"           TIME(S)","              PRES","              TEMP","             SAT_G","             SAT_L"
  0.94882000000E+005,  0.97661255354E+006,  0.16500000000E+002,  0.00000000000E+000,  0.10000000000E+001
  0.94883000000E+005,  0.97661255138E+006,  0.16500000000E+002,  0.00000000000E+000,  0.10000000000E+001
  0.94884000000E+005,  0.97661254924E+006,  0.16500000000E+002,  0.00000000000E+000,  0.10000000000E+001
  0.94884200000E+005,  0.97661254881E+006,  0.16500000000E+002,  0.00000000000E+000,  0.10000000000E+001
  0.94885200000E+005,  0.97661254667E+006,  0.16500000000E+002,  0.00000000000E+000,  0.10000000000E+001
  0.94886200000E+005,  0.97661254455E+006,  0.16500000000E+002,  0.00000000000E+000,  0.10000000000E+001
  0.94887200000E+005,  0.97661254244E+006,  0.16500000000E+002,  0.00000000000E+000,  0.10000000000E+001
  0.94888200000E+005,  0.97661254034E+006,  0.16500000000E+002,  0.00000000000E+000,  0.10000000000E+001
  0.94889200000E+005,  0.97661253825E+006,  0.16500000000E+002,  0.00000000000E+000,  0.10000000000E+001
  0.94890200000E+005,  0.97661253617E+006,  0.16500000000E+002,  0.00000000000E+000,  0.10000000000E+001
  0.94890700000E+005,  0.97661253514E+006,  0.16500000000E+002,  0.00000000000E+000,  0.10000000000E+001
  0.94891700000E+005,  0.97661253308E+006,  0.16500000000E+002,  0.00000000000E+000,  0.10000000000E+001
  0.94892700000E+005,  0.97661253103E+006,  0.16500000000E+002,  0.00000000000E+000,  0.10000000000E+001
  0.94893700000E+005,  0.97661252899E+006,  0.16500000000E+002,  0.00000000000E+000,  0.10000000000E+001
  0.94894700000E+005,  0.97661252697E+006,  0.16500000000E+002,  0.00000000000E+000,  0.10000000000E+001
  0.94895700000E+005,  0.97661252495E+006,  0.16500000000E+002,  0.00000000000E+000,  0.10000000000E+001
  0.94896700000E+005,  0.97661252295E+006,  0.16500000000E+002,  0.00000000000E+000,  0.10000000000E+001
  0.94897300000E+005,  0.97661252175E+006,  0.16500000000E+002,  0.00000000000E+000,  0.10000000000E+001
  0.94898000000E+005,  0.97661252035E+006,  0.16500000000E+002,  0.00000000000E+000,  0.10000000000E+001
  0.94899000000E+005,  0.97661251837E+006,  0.16500000000E+002,  0.00000000000E+000,  0.10000000000E+001
  0.94900000000E+005,  0.97661251641E+006,  0.16500000000E+002,  0.00000000000E+000,  0.10000000000E+001
  0.94901000000E+005,  0.97661251445E+006,  0.16500000000E+002,  0.00000000000E+000,  0.10000000000E+001
  0.94902000000E+005,  0.97661251250E+006,  0.16500000000E+002,  0.00000000000E+000,  0.10000000000E+001
  0.94903000000E+005,  0.97661251056E+006,  0.16500000000E+002,  0.00000000000E+000,  0.10000000000E+001
  0.94903900000E+005,  0.97661250883E+006,  0.16500000000E+002,  0.00000000000E+000,  0.10000000000E+001
  0.94904900000E+005,  0.97661250691E+006,  0.16500000000E+002,  0.00000000000E+000,  0.10000000000E+001
  0.94905900000E+005,  0.97661250500E+006,  0.16500000000E+002,  0.00000000000E+000,  0.10000000000E+001
  0.94906900000E+005,  0.97661250311E+006,  0.16500000000E+002,  0.00000000000E+000,  0.10000000000E+001
  0.94907900000E+005,  0.97661250122E+006,  0.16500000000E+002,  0.00000000000E+000,  0.10000000000E+001
  0.94908900000E+005,  0.97661249935E+006,  0.16500000000E+002,  0.00000000000E+000,  0.10000000000E+001
  0.94909900000E+005,  0.97661249748E+006,  0.16500000000E+002,  0.00000000000E+000,  0.10000000000E+001
  0.94910400000E+005,  0.97661249655E+006,  0.16500000000E+002,  0.00000000000E+000,  0.10000000000E+001
  0.94911400000E+005,  0.97661249470E+006,  0.16500000000E+002,  0.00000000000E+000,  0.10000000000E+001
  0.94912400000E+005,  0.97661249286E+006,  0.16500000000E+002,  0.00000000000E+000,  0.10000000000E+001
  0.94913400000E+005,  0.97661249103E+006,  0.16500000000E+002,  0.00000000000E+000,  0.10000000000E+001
  0.94914400000E+005,  0.97661248921E+006,  0.16500000000E+002,  0.00000000000E+000,  0.10000000000E+001
  0.94915400000E+005,  0.97661248739E+006,  0.16500000000E+002,  0.00000000000E+000,  0.10000000000E+001
  0.94916400000E+005,  0.97661248559E+006,  0.16500000000E+002,  0.00000000000E+000,  0.10000000000E+001
  0.94917000000E+005,  0.97661248451E+006,  0.16500000000E+002,  0.00000000000E+000,  0.10000000000E+001
  0.94918000000E+005,  0.97661248273E+006,  0.16500000000E+002,  0.00000000000E+000,  0.10000000000E+001
  0.94919000000E+005,  0.97661248095E+006,  0.16500000000E+002,  0.00000000000E+000,  0.10000000000E+001
  0.94920000000E+005,  0.97661247919E+006,  0.16500000000E+002,  0.00000000000E+000,  0.10000000000E+001
  0.94921000000E+005,  0.97661247743E+006,  0.16500000000E+002,  0.00000000000E+000,  0.10000000000E+001
  0.94922000000E+005,  0.97661247568E+006,  0.16500000000E+002,  0.00000000000E+000,  0.10000000000E+001
  0.94923000000E+005,  0.97661247394E+006,  0.16500000000E+002,  0.00000000000E+000,  0.10000000000E+001
  0.94923500000E+005,  0.97661247308E+006,  0.16500000000E+002,  0.00000000000E+000,  0.10000000000E+001
  0.94924500000E+005,  0.97661247135E+006,  0.16500000000E+002,  0.00000000000E+000,  0.10000000000E+001
  0.94925500000E+005,  0.97661246964E+006,  0.16500000000E+002,  0.00000000000E+000,  0.10000000000E+001
  0.94926500000E+005,  0.97661246793E+006,  0.16500000000E+002,  0.00000000000E+000,  0.10000000000E+001
  0.94927500000E+005,  0.97661246624E+006,  0.16500000000E+002,  0.00000000000E+000,  0.10000000000E+001
  0.94928500000E+005,  0.97661246455E+006,  0.16500000000E+002,  0.00000000000E+000,  0.10000000000E+001
  0.94929500000E+005,  0.97661246287E+006,  0.16500000000E+002,  0.00000000000E+000,  0.10000000000E+001
  0.94930100000E+005,  0.97661246187E+006,  0.16500000000E+002,  0.00000000000E+000,  0.10000000000E+001
  0.94931100000E+005,  0.97661246020E+006,  0.16500000000E+002,  0.00000000000E+000,  0.10000000000E+001
  0.94932100000E+005,  0.97661245855E+006,  0.16500000000E+002,  0.00000000000E+000,  0.10000000000E+001
  0.94933100000E+005,  0.97661245690E+006,  0.16500000000E+002,  0.00000000000E+000,  0.10000000000E+001
  0.94934100000E+005,  0.97661245526E+006,  0.16500000000E+002,  0.00000000000E+000,  0.10000000000E+001
  0.94935100000E+005,  0.97661245364E+006,  0.16500000000E+002,  0.00000000000E+000,  0.10000000000E+001
  0.94936100000E+005,  0.97661245202E+006,  0.16500000000E+002,  0.00000000000E+000,  0.10000000000E+001
  0.94936600000E+005,  0.97661245121E+006,  0.16500000000E+002,  0.00000000000E+000,  0.10000000000E+001
  0.94937600000E+005,  0.97661244960E+006,  0.16500000000E+002,  0.00000000000E+000,  0.10000000000E+001
  0.94938600000E+005,  0.97661244800E+006,  0.16500000000E+002,  0.00000000000E+000,  0.10000000000E+001
  0.94939600000E+005,  0.97661244641E+006,  0.16500000000E+002,  0.00000000000E+000,  0.10000000000E+001
  0.94940600000E+005,  0.97661244483E+006,  0.16500000000E+002,  0.00000000000E+000,  0.10000000000E+001
  0.94941600000E+005,  0.97661244326E+006,  0.16500000000E+002,  0.00000000000E+000,  0.10000000000E+001
  0.94942600000E+005,  0.97661244170E+006,  0.16500000000E+002,  0.00000000000E+000,  0.10000000000E+001
  0.94943200000E+005,  0.97661244076E+006,  0.16500000000E+002,  0.00000000000E+000,  0.10000000000E+001
  0.94944200000E+005,  0.97661243921E+006,  0.16500000000E+002,  0.00000000000E+000,  0.10000000000E+001
  0.94945200000E+005,  0.97661243767E+006,  0.16500000000E+002,  0.00000000000E+000,  0.10000000000E+001
  0.94946200000E+005,  0.97661243614E+006,  0.16500000000E+002,  0.00000000000E+000,  0.10000000000E+001
  0.94947200000E+005,  0.97661243461E+006,  0.16500000000E+002,  0.00000000000E+000,  0.10000000000E+001
  0.94948200000E+005,  0.97661243309E+006,  0.16500000000E+002,  0.00000000000E+000,  0.10000000000E+001
  0.94949200000E+005,  0.97661243158E+006,  0.16500000000E+002,  0.00000000000E+000,  0.10000000000E+001
  0.94949800000E+005,  0.97661243068E+006,  0.16500000000E+002,  0.00000000000E+000,  0.10000000000E+001
  0.94950800000E+005,  0.97661242918E+006,  0.16500000000E+002,  0.00000000000E+000,  0.10000000000E+001
  0.94951800000E+005,  0.97661242770E+006,  0.16500000000E+002,  0.00000000000E+000,  0.10000000000E+001
  0.94952800000E+005,  0.97661242622E+006,  0.16500000000E+002,  0.00000000000E+000,  0.10000000000E+001
  0.94953800000E+005,  0.97661242474E+006,  0.16500000000E+002,  0.00000000000E+000,  0.10000000000E+001
  0.94954800000E+005,  0.97661242328E+006,  0.16500000000E+002,  0.00000000000E+000,  0.10000000000E+001
  0.94955800000E+005,  0.97661242182E+006,  0.16500000000E+002,  0.00000000000E+000,  0.10000000000E+001
  0.94956300000E+005,  0.97661242110E+006,  0.16500000000E+002,  0.00000000000E+000,  0.10000000000E+001
  0.94957300000E+005,  0.97661241965E+006,  0.16500000000E+002,  0.00000000000E+000,  0.10000000000E+001
  0.94958300000E+005,  0.97661241822E+006,  0.16500000000E+002,  0.00000000000E+000,  0.10000000000E+001
  0.94959300000E+005,  0.97661241679E+006,  0.16500000000E+002,  0.00000000000E+000,  0.10000000000E+001
  0.94960300000E+005,  0.97661241536E+006,  0.16500000000E+002,  0.00000000000E+000,  0.10000000000E+001
  0.94961300000E+005,  0.97661241395E+006,  0.16500000000E+002,  0.00000000000E+000,  0.10000000000E+001
  0.94962300000E+005,  0.97661241254E+006,  0.16500000000E+002,  0.00000000000E+000,  0.10000000000E+001
  0.94962900000E+005,  0.97661241170E+006,  0.16500000000E+002,  0.00000000000E+000,  0.10000000000E+001
  0.94963900000E+005,  0.97661241031E+006,  0.16500000000E+002,  0.00000000000E+000,  0.10000000000E+001
  0.94964900000E+005,  0.97661240892E+006,  0.16500000000E+002,  0.00000000000E+000,  0.10000000000E+001
  0.94965900000E+005,  0.97661240754E+006,  0.16500000000E+002,  0.00000000000E+000,  0.10000000000E+001
  0.94966900000E+005,  0.97661240617E+006,  0.16500000000E+002,  0.00000000000E+000,  0.10000000000E+001
  0.94967900000E+005,  0.97661240480E+006,  0.16500000000E+002,  0.00000000000E+000,  0.10000000000E+001
  0.94968900000E+005,  0.97661240345E+006,  0.16500000000E+002,  0.00000000000E+000,  0.10000000000E+001
  0.94969400000E+005,  0.97661240277E+006,  0.16500000000E+002,  0.00000000000E+000,  0.10000000000E+001
  0.94970400000E+005,  0.97661240142E+006,  0.16500000000E+002,  0.00000000000E+000,  0.10000000000E+001
  0.94971400000E+005,  0.97661240008E+006,  0.16500000000E+002,  0.00000000000E+000,  0.10000000000E+001
  0.94972400000E+005,  0.97661239875E+006,  0.16500000000E+002,  0.00000000000E+000,  0.10000000000E+001
  0.94973400000E+005,  0.97661239743E+006,  0.16500000000E+002,  0.00000000000E+000,  0.10000000000E+001
  0.94974400000E+005,  0.97661239611E+006,  0.16500000000E+002,  0.00000000000E+000,  0.10000000000E+001
  0.94975400000E+005,  0.97661239480E+006,  0.16500000000E+002,  0.00000000000E+000,  0.10000000000E+001
  0.94976000000E+005,  0.97661239401E+006,  0.16500000000E+002,  0.00000000000E+000,  0.10000000000E+001
  0.94977000000E+005,  0.97661239271E+006,  0.16500000000E+002,  0.00000000000E+000,  0.10000000000E+001
  0.94978000000E+005,  0.97661239142E+006,  0.16500000000E+002,  0.00000000000E+000,  0.10000000000E+001
  0.94979000000E+005,  0.97661239013E+006,  0.16500000000E+002,  0.00000000000E+000,  0.10000000000E+001
  0.94980000000E+005,  0.97661238885E+006,  0.16500000000E+002,  0.00000000000E+000,  0.10000000000E+001
  0.94981000000E+005,  0.97661238758E+006,  0.16500000000E+002,  0.00000000000E+000,  0.10000000000E+001
  0.94982000000E+005,  0.97661238632E+006,  0.16500000000E+002,  0.00000000000E+000,  0.10000000000E+001
  0.94983000000E+005,  0.97661238506E+006,  0.16500000000E+002,  0.00000000000E+000,  0.10000000000E+001
  0.94984000000E+005,  0.97661238380E+006,  0.16500000000E+002,  0.00000000000E+000,  0.10000000000E+001
  0.94985000000E+005,  0.97661238256E+006,  0.16500000000E+002,  0.00000000000E+000,  0.10000000000E+001
  0.94986000000E+005,  0.97661238132E+006,  0.16500000000E+002,  0.00000000000E+000,  0.10000000000E+001
  0.94987000000E+005,  0.97661238009E+006,  0.16500000000E+002,  0.00000000000E+000,  0.10000000000E+001
  0.94988000000E+005,  0.97661237886E+006,  0.16500000000E+002,  0.00000000000E+000,  0.10000000000E+001
  0.94989000000E+005,  0.97661237764E+006,  0.16500000000E+002,  0.00000000000E+000,  0.10000000000E+001
  0.94990000000E+005,  0.97661237643E+006,  0.16500000000E+002,  0.00000000000E+000,  0.10000000000E+001
  0.94991000000E+005,  0.97661237523E+006,  0.16500000000E+002,  0.00000000000E+000,  0.10000000000E+001
  0.94992000000E+005,  0.97661237403E+006,  0.16500000000E+002,  0.00000000000E+000,  0.10000000000E+001
  0.94993000000E+005,  0.97661237283E+006,  0.16500000000E+002,  0.00000000000E+000,  0.10000000000E+001
  0.94994000000E+005,  0.97661237165E+006,  0.16500000000E+002,  0.00000000000E+000,  0.10000000000E+001
  0.94995000000E+005,  0.97661237047E+006,  0.16500000000E+002,  0.00000000000E+000,  0.10000000000E+001
  0.94996000000E+005,  0.97661236929E+006,  0.16500000000E+002,  0.00000000000E+000,  0.10000000000E+001
  0.94997000000E+005,  0.97661236813E+006,  0.16500000000E+002,  0.00000000000E+000,  0.10000000000E+001
  0.94998000000E+005,  0.97661236696E+006,  0.16500000000E+002,  0.00000000000E+000,  0.10000000000E+001
  0.94999000000E+005,  0.97661236581E+006,  0.16500000000E+002,  0.00000000000E+000,  0.10000000000E+001
  0.95000000000E+005,  0.97661236466E+006,  0.16500000000E+002,  0.00000000000E+000,  0.10000000000E+001
  0.95001000000E+005,  0.97661236352E+006,  0.16500000000E+002,  0.00000000000E+000,  0.10000000000E+001
  0.95002000000E+005,  0.97661236238E+006,  0.16500000000E+002,  0.00000000000E+000,  0.10000000000E+001
  0.95003000000E+005,  0.97661236125E+006,  0.16500000000E+002,  0.00000000000E+000,  0.10000000000E+001
  0.95004000000E+005,  0.97661236012E+006,  0.16500000000E+002,  0.00000000000E+000,  0.10000000000E+001
  0.95005000000E+005,  0.97661235900E+006,  0.16500000000E+002,  0.00000000000E+000,  0.10000000000E+001
  0.95006000000E+005,  0.97661235789E+006,  0.16500000000E+002,  0.00000000000E+000,  0.10000000000E+001
  0.95007000000E+005,  0.97661235679E+006,  0.16500000000E+002,  0.00000000000E+000,  0.10000000000E+001
  0.95008000000E+005,  0.97661235568E+006,  0.16500000000E+002,  0.00000000000E+000,  0.10000000000E+001
  0.95009000000E+005,  0.97661235459E+006,  0.16500000000E+002,  0.00000000000E+000,  0.10000000000E+001
  0.95010000000E+005,  0.97661235350E+006,  0.16500000000E+002,  0.00000000000E+000,  0.10000000000E+001
  0.95011000000E+005,  0.97661235242E+006,  0.16500000000E+002,  0.00000000000E+000,  0.10000000000E+001
  0.95012000000E+005,  0.97661235134E+006,  0.16500000000E+002,  0.00000000000E+000,  0.10000000000E+001
  0.95013000000E+005,  0.97661235027E+006,  0.16500000000E+002,  0.00000000000E+000,  0.10000000000E+001
  0.95014000000E+005,  0.97661234920E+006,  0.16500000000E+002,  0.00000000000E+000,  0.10000000000E+001
  0.95015000000E+005,  0.97661234814E+006,  0.16500000000E+002,  0.00000000000E+000,  0.10000000000E+001
  0.95016000000E+005,  0.97661234709E+006,  0.16500000000E+002,  0.00000000000E+000,  0.10000000000E+001
  0.95017000000E+005,  0.97661234604E+006,  0.16500000000E+002,  0.00000000000E+000,  0.10000000000E+001
  0.95018000000E+005,  0.97661234499E+006,  0.16500000000E+002,  0.00000000000E+000,  0.10000000000E+001
  0.95019000000E+005,  0.97661234395E+006,  0.16500000000E+002,  0.00000000000E+000,  0.10000000000E+001
  0.95020000000E+005,  0.97661234292E+006,  0.16500000000E+002,  0.00000000000E+000,  0.10000000000E+001
  0.95021000000E+005,  0.97661234189E+006,  0.16500000000E+002,  0.00000000000E+000,  0.10000000000E+001
  0.95022000000E+005,  0.97661234087E+006,  0.16500000000E+002,  0.00000000000E+000,  0.10000000000E+001
  0.95023000000E+005,  0.97661233986E+006,  0.16500000000E+002,  0.00000000000E+000,  0.10000000000E+001
  0.95024000000E+005,  0.97661233885E+006,  0.16500000000E+002,  0.00000000000E+000,  0.10000000000E+001
  0.95025000000E+005,  0.97661233784E+006,  0.16500000000E+002,  0.00000000000E+000,  0.10000000000E+001
  0.95026000000E+005,  0.97661233684E+006,  0.16500000000E+002,  0.00000000000E+000,  0.10000000000E+001
  0.95027000000E+005,  0.97661233584E+006,  0.16500000000E+002,  0.00000000000E+000,  0.10000000000E+001
  0.95028000000E+005,  0.97661233485E+006,  0.16500000000E+002,  0.00000000000E+000,  0.10000000000E+001
  0.95029000000E+005,  0.97661233387E+006,  0.16500000000E+002,  0.00000000000E+000,  0.10000000000E+001
  0.95030000000E+005,  0.97661233289E+006,  0.16500000000E+002,  0.00000000000E+000,  0.10000000000E+001
  0.95031000000E+005,  0.97661233192E+006,  0.16500000000E+002,  0.00000000000E+000,  0.10000000000E+001
  0.95032000000E+005,  0.97661233095E+006,  0.16500000000E+002,  0.00000000000E+000,  0.10000000000E+001
  0.95033000000E+005,  0.97661232999E+006,  0.16500000000E+002,  0.00000000000E+000,  0.10000000000E+001
  0.95034000000E+005,  0.97661232903E+006,  0.16500000000E+002,  0.00000000000E+000,  0.10000000000E+001
  0.95035000000E+005,  0.97661232808E+006,  0.16500000000E+002,  0.00000000000E+000,  0.10000000000E+001
  0.95036000000E+005,  0.97661232713E+006,  0.16500000000E+002,  0.00000000000E+000,  0.10000000000E+001
  0.95037000000E+005,  0.97661232619E+006,  0.16500000000E+002,  0.00000000000E+000,  0.10000000000E+001
  0.95038000000E+005,  0.97661232525E+006,  0.16500000000E+002,  0.00000000000E+000,  0.10000000000E+001
  0.95039000000E+005,  0.97661232432E+006,  0.16500000000E+002,  0.00000000000E+000,  0.10000000000E+001
  0.95040000000E+005,  0.97661232339E+006,  0.16500000000E+002,  0.00000000000E+000,  0.10000000000E+001
  0.95041000000E+005,  0.97661232247E+006,  0.16500000000E+002,  0.00000000000E+000,  0.10000000000E+001
  0.95042000000E+005,  0.97661232155E+006,  0.16500000000E+002,  0.00000000000E+000,  0.10000000000E+001
  0.95043000000E+005,  0.97661232063E+006,  0.16500000000E+002,  0.00000000000E+000,  0.10000000000E+001
  0.95044000000E+005,  0.97661231973E+006,  0.16500000000E+002,  0.00000000000E+000,  0.10000000000E+001
  0.95045000000E+005,  0.97661231882E+006,  0.16500000000E+002,  0.00000000000E+000,  0.10000000000E+001
  0.95046000000E+005,  0.97661231792E+006,  0.16500000000E+002,  0.00000000000E+000,  0.10000000000E+001
  0.95047000000E+005,  0.97661231703E+006,  0.16500000000E+002,  0.00000000000E+000,  0.10000000000E+001
  0.95048000000E+005,  0.97661231614E+006,  0.16500000000E+002,  0.00000000000E+000,  0.10000000000E+001
  0.95049000000E+005,  0.97661231526E+006,  0.16500000000E+002,  0.00000000000E+000,  0.10000000000E+001
  0.95050000000E+005,  0.97661231438E+006,  0.16500000000E+002,  0.00000000000E+000,  0.10000000000E+001
  0.95051000000E+005,  0.97661231350E+006,  0.16500000000E+002,  0.00000000000E+000,  0.10000000000E+001
  0.95052000000E+005,  0.97661231263E+006,  0.16500000000E+002,  0.00000000000E+000,  0.10000000000E+001
  0.95053000000E+005,  0.97661231177E+006,  0.16500000000E+002,  0.00000000000E+000,  0.10000000000E+001
  0.95054000000E+005,  0.97661231091E+006,  0.16500000000E+002,  0.00000000000E+000,  0.10000000000E+001
  0.95055000000E+005,  0.97661231005E+006,  0.16500000000E+002,  0.00000000000E+000,  0.10000000000E+001
  0.95056000000E+005,  0.97661230920E+006,  0.16500000000E+002,  0.00000000000E+000,  0.10000000000E+001
  0.95057000000E+005,  0.97661230835E+006,  0.16500000000E+002,  0.00000000000E+000,  0.10000000000E+001
  0.95058000000E+005,  0.97661230751E+006,  0.16500000000E+002,  0.00000000000E+000,  0.10000000000E+001
  0.95059000000E+005,  0.97661230667E+006,  0.16500000000E+002,  0.00000000000E+000,  0.10000000000E+001
  0.95060000000E+005,  0.97661230584E+006,  0.16500000000E+002,  0.00000000000E+000,  0.10000000000E+001
  0.95061000000E+005,  0.97661230501E+006,  0.16500000000E+002,  0.00000000000E+000,  0.10000000000E+001
  0.95062000000E+005,  0.97661230418E+006,  0.16500000000E+002,  0.00000000000E+000,  0.10000000000E+001
  0.95063000000E+005,  0.97661230336E+006,  0.16500000000E+002,  0.00000000000E+000,  0.10000000000E+001
