"           TIME(S)","              PRES","              TEMP","             SAT_G","             SAT_L"
  0.94860000000E+005,  0.99750024187E+006,  0.16500000000E+002,  0.00000000000E+000,  0.10000000000E+001
  0.94864000000E+005,  0.99750024187E+006,  0.16500000000E+002,  0.00000000000E+000,  0.10000000000E+001
  0.94868000000E+005,  0.99750024187E+006,  0.16500000000E+002,  0.00000000000E+000,  0.10000000000E+001
  0.94872000000E+005,  0.99750024187E+006,  0.16500000000E+002,  0.00000000000E+000,  0.10000000000E+001
  0.94876000000E+005,  0.99750024187E+006,  0.16500000000E+002,  0.00000000000E+000,  0.10000000000E+001
  0.94880000000E+005,  0.99750024187E+006,  0.16500000000E+002,  0.00000000000E+000,  0.10000000000E+001
  0.94884000000E+005,  0.99804868351E+006,  0.16500000000E+002,  0.00000000000E+000,  0.10000000000E+001
  0.94888000000E+005,  0.99948271714E+006,  0.16500000000E+002,  0.00000000000E+000,  0.10000000000E+001
  0.94892000000E+005,  0.10017810115E+007,  0.16500000000E+002,  0.00000000000E+000,  0.10000000000E+001
  0.94896000000E+005,  0.10049235624E+007,  0.16500000000E+002,  0.00000000000E+000,  0.10000000000E+001
  0.94900000000E+005,  0.10088913234E+007,  0.16500000000E+002,  0.00000000000E+000,  0.10000000000E+001
  0.94904000000E+005,  0.10136659274E+007,  0.16500000000E+002,  0.00000000000E+000,  0.10000000000E+001
  0.94908000000E+005,  0.10192293455E+007,  0.16500000000E+002,  0.00000000000E+000,  0.10000000000E+001
  0.94912000000E+005,  0.10255568692E+007,  0.16500000000E+002,  0.00000000000E+000,  0.10000000000E+001
  0.94916000000E+005,  0.10326995754E+007,  0.16500000000E+002,  0.00000000000E+000,  0.10000000000E+001
  0.94920000000E+005,  0.10406917762E+007,  0.16500000000E+002,  0.00000000000E+000,  0.10000000000E+001
  0.94924000000E+005,  0.10492592612E+007,  0.16500000000E+002,  0.00000000000E+000,  0.10000000000E+001
  0.94928000000E+005,  0.10587504474E+007,  0.16500000000E+002,  0.00000000000E+000,  0.10000000000E+001
  0.94932000000E+005,  0.10698128055E+007,  0.16500000000E+002,  0.00000000000E+000,  0.10000000000E+001
  0.94936000000E+005,  0.10832747959E+007,  0.16500000000E+002,  0.00000000000E+000,  0.10000000000E+001
  0.94940000000E+005,  0.10971424043E+007,  0.16500000000E+002,  0.00000000000E+000,  0.10000000000E+001
  0.94944000000E+005,  0.11105012517E+007,  0.16500000000E+002,  0.00000000000E+000,  0.10000000000E+001
  0.94948000000E+005,  0.11235114411E+007,  0.16500000000E+002,  0.00000000000E+000,  0.10000000000E+001
  0.94952000000E+005,  0.11362321833E+007,  0.16500000000E+002,  0.00000000000E+000,  0.10000000000E+001
  0.94956000000E+005,  0.11485961493E+007,  0.16500000000E+002,  0.00000000000E+000,  0.10000000000E+001
  0.94960000000E+005,  0.11606215568E+007,  0.16500000000E+002,  0.00000000000E+000,  0.10000000000E+001
  0.94962000000E+005,  0.11665224837E+007,  0.16500000000E+002,  0.00000000000E+000,  0.10000000000E+001
  0.94972000000E+005,  0.11966869785E+007,  0.16500000000E+002,  0.00000000000E+000,  0.10000000000E+001
  0.95022000000E+005,  0.13794914182E+007,  0.16500000000E+002,  0.00000000000E+000,  0.10000000000E+001
  0.95102000000E+005,  0.16269192984E+007,  0.16500000000E+002,  0.00000000000E+000,  0.10000000000E+001
  0.95128100000E+005,  0.16896892642E+007,  0.16500000000E+002,  0.00000000000E+000,  0.10000000000E+001
  0.95208100000E+005,  0.18703183696E+007,  0.16500000000E+002,  0.00000000000E+000,  0.10000000000E+001
  0.95288100000E+005,  0.20342962043E+007,  0.16500000000E+002,  0.00000000000E+000,  0.10000000000E+001
  0.95368100000E+005,  0.21842542534E+007,  0.16500000000E+002,  0.00000000000E+000,  0.10000000000E+001
  0.95398200000E+005,  0.22367746847E+007,  0.16500000000E+002,  0.00000000000E+000,  0.10000000000E+001
  0.95478200000E+005,  0.23691849061E+007,  0.16500000000E+002,  0.00000000000E+000,  0.10000000000E+001
  0.95558200000E+005,  0.24901011525E+007,  0.16500000000E+002,  0.00000000000E+000,  0.10000000000E+001
  0.95638200000E+005,  0.26003239159E+007,  0.16500000000E+002,  0.00000000000E+000,  0.10000000000E+001
  0.95668300000E+005,  0.26397139915E+007,  0.16500000000E+002,  0.00000000000E+000,  0.10000000000E+001
  0.95748300000E+005,  0.27366350303E+007,  0.16500000000E+002,  0.00000000000E+000,  0.10000000000E+001
  0.95828300000E+005,  0.28263711935E+007,  0.16500000000E+002,  0.00000000000E+000,  0.10000000000E+001
  0.95908300000E+005,  0.29091058927E+007,  0.16500000000E+002,  0.00000000000E+000,  0.10000000000E+001
  0.95938400000E+005,  0.29392526753E+007,  0.16500000000E+002,  0.00000000000E+000,  0.10000000000E+001
  0.96018400000E+005,  0.30139694282E+007,  0.16500000000E+002,  0.00000000000E+000,  0.10000000000E+001
  0.96098400000E+005,  0.30831974398E+007,  0.16500000000E+002,  0.00000000000E+000,  0.10000000000E+001
  0.96178400000E+005,  0.31482044026E+007,  0.16500000000E+002,  0.00000000000E+000,  0.10000000000E+001
  0.96208500000E+005,  0.31720582492E+007,  0.16500000000E+002,  0.00000000000E+000,  0.10000000000E+001
  0.96288500000E+005,  0.32317265006E+007,  0.16500000000E+002,  0.00000000000E+000,  0.10000000000E+001
  0.96368500000E+005,  0.32884952674E+007,  0.16500000000E+002,  0.00000000000E+000,  0.10000000000E+001
  0.96448500000E+005,  0.33424319254E+007,  0.16500000000E+002,  0.00000000000E+000,  0.10000000000E+001
  0.96478600000E+005,  0.33622988396E+007,  0.16500000000E+002,  0.00000000000E+000,  0.10000000000E+001
  0.96558600000E+005,  0.34122663236E+007,  0.16500000000E+002,  0.00000000000E+000,  0.10000000000E+001
  0.96638600000E+005,  0.34600168080E+007,  0.16500000000E+002,  0.00000000000E+000,  0.10000000000E+001
  0.96718600000E+005,  0.35058140621E+007,  0.16500000000E+002,  0.00000000000E+000,  0.10000000000E+001
  0.96748700000E+005,  0.35227531528E+007,  0.16500000000E+002,  0.00000000000E+000,  0.10000000000E+001
  0.96828700000E+005,  0.35659822987E+007,  0.16500000000E+002,  0.00000000000E+000,  0.10000000000E+001
  0.96908700000E+005,  0.36076803731E+007,  0.16500000000E+002,  0.00000000000E+000,  0.10000000000E+001
  0.96988700000E+005,  0.36479494598E+007,  0.16500000000E+002,  0.00000000000E+000,  0.10000000000E+001
  0.97018800000E+005,  0.36629014888E+007,  0.16500000000E+002,  0.00000000000E+000,  0.10000000000E+001
  0.97098800000E+005,  0.37012648032E+007,  0.16500000000E+002,  0.00000000000E+000,  0.10000000000E+001
  0.97178800000E+005,  0.37384330643E+007,  0.16500000000E+002,  0.00000000000E+000,  0.10000000000E+001
  0.97258800000E+005,  0.37745145633E+007,  0.16500000000E+002,  0.00000000000E+000,  0.10000000000E+001
  0.97288900000E+005,  0.37879275897E+007,  0.16500000000E+002,  0.00000000000E+000,  0.10000000000E+001
  0.97368900000E+005,  0.38225428410E+007,  0.16500000000E+002,  0.00000000000E+000,  0.10000000000E+001
  0.97448900000E+005,  0.38561146964E+007,  0.16500000000E+002,  0.00000000000E+000,  0.10000000000E+001
  0.97528900000E+005,  0.38887151267E+007,  0.16500000000E+002,  0.00000000000E+000,  0.10000000000E+001
  0.97559000000E+005,  0.39008438111E+007,  0.16500000000E+002,  0.00000000000E+000,  0.10000000000E+001
  0.97639000000E+005,  0.39321770984E+007,  0.16500000000E+002,  0.00000000000E+000,  0.10000000000E+001
  0.97719000000E+005,  0.39626996629E+007,  0.16500000000E+002,  0.00000000000E+000,  0.10000000000E+001
  0.97799000000E+005,  0.39924980403E+007,  0.16500000000E+002,  0.00000000000E+000,  0.10000000000E+001
  0.97829100000E+005,  0.40035964494E+007,  0.16500000000E+002,  0.00000000000E+000,  0.10000000000E+001
  0.97909100000E+005,  0.40324125387E+007,  0.16500000000E+002,  0.00000000000E+000,  0.10000000000E+001
  0.97989100000E+005,  0.40605143595E+007,  0.16500000000E+002,  0.00000000000E+000,  0.10000000000E+001
  0.98069100000E+005,  0.40879146555E+007,  0.16500000000E+002,  0.00000000000E+000,  0.10000000000E+001
  0.98099200000E+005,  0.40981267214E+007,  0.16500000000E+002,  0.00000000000E+000,  0.10000000000E+001
  0.98179200000E+005,  0.41245536051E+007,  0.16500000000E+002,  0.00000000000E+000,  0.10000000000E+001
  0.98259200000E+005,  0.41503158690E+007,  0.16500000000E+002,  0.00000000000E+000,  0.10000000000E+001
  0.98339200000E+005,  0.41754624175E+007,  0.16500000000E+002,  0.00000000000E+000,  0.10000000000E+001
  0.98369300000E+005,  0.41848410296E+007,  0.16500000000E+002,  0.00000000000E+000,  0.10000000000E+001
  0.98449300000E+005,  0.42091747320E+007,  0.16500000000E+002,  0.00000000000E+000,  0.10000000000E+001
  0.98529300000E+005,  0.42329554989E+007,  0.16500000000E+002,  0.00000000000E+000,  0.10000000000E+001
  0.98609300000E+005,  0.42562029176E+007,  0.16500000000E+002,  0.00000000000E+000,  0.10000000000E+001
  0.98639400000E+005,  0.42648782012E+007,  0.16500000000E+002,  0.00000000000E+000,  0.10000000000E+001
  0.98719400000E+005,  0.42874014970E+007,  0.16500000000E+002,  0.00000000000E+000,  0.10000000000E+001
  0.98799400000E+005,  0.43094204465E+007,  0.16500000000E+002,  0.00000000000E+000,  0.10000000000E+001
  0.98879400000E+005,  0.43309550500E+007,  0.16500000000E+002,  0.00000000000E+000,  0.10000000000E+001
  0.98909500000E+005,  0.43389940445E+007,  0.16500000000E+002,  0.00000000000E+000,  0.10000000000E+001
  0.98989500000E+005,  0.42976864007E+007,  0.16500000000E+002,  0.00000000000E+000,  0.10000000000E+001
  0.98991500000E+005,  0.42965177794E+007,  0.16500000000E+002,  0.00000000000E+000,  0.10000000000E+001
  0.99001500000E+005,  0.42895206754E+007,  0.16500000000E+002,  0.00000000000E+000,  0.10000000000E+001
  0.99011500000E+005,  0.42819766336E+007,  0.16500000000E+002,  0.00000000000E+000,  0.10000000000E+001
  0.99021500000E+005,  0.42741133794E+007,  0.16500000000E+002,  0.00000000000E+000,  0.10000000000E+001
  0.99031500000E+005,  0.42660403557E+007,  0.16500000000E+002,  0.00000000000E+000,  0.10000000000E+001
  0.99041500000E+005,  0.42578203023E+007,  0.16500000000E+002,  0.00000000000E+000,  0.10000000000E+001
  0.99051500000E+005,  0.42494937706E+007,  0.16500000000E+002,  0.00000000000E+000,  0.10000000000E+001
  0.99061500000E+005,  0.42410891881E+007,  0.16500000000E+002,  0.00000000000E+000,  0.10000000000E+001
  0.99071500000E+005,  0.42326276477E+007,  0.16500000000E+002,  0.00000000000E+000,  0.10000000000E+001
  0.99081500000E+005,  0.42241254520E+007,  0.16500000000E+002,  0.00000000000E+000,  0.10000000000E+001
  0.99091500000E+005,  0.42155955915E+007,  0.16500000000E+002,  0.00000000000E+000,  0.10000000000E+001
  0.99101500000E+005,  0.42070486620E+007,  0.16500000000E+002,  0.00000000000E+000,  0.10000000000E+001
  0.99111500000E+005,  0.41984934632E+007,  0.16500000000E+002,  0.00000000000E+000,  0.10000000000E+001
  0.99121500000E+005,  0.41899374097E+007,  0.16500000000E+002,  0.00000000000E+000,  0.10000000000E+001
  0.99131500000E+005,  0.41813868190E+007,  0.16500000000E+002,  0.00000000000E+000,  0.10000000000E+001
  0.99141500000E+005,  0.41728471241E+007,  0.16500000000E+002,  0.00000000000E+000,  0.10000000000E+001
  0.99151500000E+005,  0.41643230343E+007,  0.16500000000E+002,  0.00000000000E+000,  0.10000000000E+001
  0.99161500000E+005,  0.41558186567E+007,  0.16500000000E+002,  0.00000000000E+000,  0.10000000000E+001
  0.99171500000E+005,  0.41473375916E+007,  0.16500000000E+002,  0.00000000000E+000,  0.10000000000E+001
  0.99179600000E+005,  0.41404849608E+007,  0.16500000000E+002,  0.00000000000E+000,  0.10000000000E+001
  0.99189600000E+005,  0.41320537345E+007,  0.16500000000E+002,  0.00000000000E+000,  0.10000000000E+001
  0.99199600000E+005,  0.41236538446E+007,  0.16500000000E+002,  0.00000000000E+000,  0.10000000000E+001
  0.99209600000E+005,  0.41152875397E+007,  0.16500000000E+002,  0.00000000000E+000,  0.10000000000E+001
  0.99219600000E+005,  0.41069568203E+007,  0.16500000000E+002,  0.00000000000E+000,  0.10000000000E+001
  0.99229600000E+005,  0.40986634674E+007,  0.16500000000E+002,  0.00000000000E+000,  0.10000000000E+001
  0.99239600000E+005,  0.40904090673E+007,  0.16500000000E+002,  0.00000000000E+000,  0.10000000000E+001
  0.99249600000E+005,  0.40821950328E+007,  0.16500000000E+002,  0.00000000000E+000,  0.10000000000E+001
  0.99259600000E+005,  0.40740226211E+007,  0.16500000000E+002,  0.00000000000E+000,  0.10000000000E+001
  0.99269600000E+005,  0.40658929492E+007,  0.16500000000E+002,  0.00000000000E+000,  0.10000000000E+001
  0.99279600000E+005,  0.40578070082E+007,  0.16500000000E+002,  0.00000000000E+000,  0.10000000000E+001
  0.99289600000E+005,  0.40497656746E+007,  0.16500000000E+002,  0.00000000000E+000,  0.10000000000E+001
  0.99299600000E+005,  0.40417697210E+007,  0.16500000000E+002,  0.00000000000E+000,  0.10000000000E+001
  0.99309600000E+005,  0.40338198242E+007,  0.16500000000E+002,  0.00000000000E+000,  0.10000000000E+001
