"           TIME(S)","              PRES","              TEMP","             SAT_G","             SAT_L"
  0.94860000000E+005,  0.99750024187E+006,  0.16500000000E+002,  0.00000000000E+000,  0.10000000000E+001
  0.94864500000E+005,  0.99750024187E+006,  0.16500000000E+002,  0.00000000000E+000,  0.10000000000E+001
  0.94871100000E+005,  0.99750024187E+006,  0.16500000000E+002,  0.00000000000E+000,  0.10000000000E+001
  0.94877600000E+005,  0.99750024187E+006,  0.16500000000E+002,  0.00000000000E+000,  0.10000000000E+001
  0.94884200000E+005,  0.99818087256E+006,  0.16500000000E+002,  0.00000000000E+000,  0.10000000000E+001
  0.94890700000E+005,  0.10004838384E+007,  0.16500000000E+002,  0.00000000000E+000,  0.10000000000E+001
  0.94897300000E+005,  0.10044584721E+007,  0.16500000000E+002,  0.00000000000E+000,  0.10000000000E+001
  0.94903900000E+005,  0.10100255001E+007,  0.16500000000E+002,  0.00000000000E+000,  0.10000000000E+001
  0.94910400000E+005,  0.10170126863E+007,  0.16500000000E+002,  0.00000000000E+000,  0.10000000000E+001
  0.94917000000E+005,  0.10258956272E+007,  0.16500000000E+002,  0.00000000000E+000,  0.10000000000E+001
  0.94923500000E+005,  0.10360899659E+007,  0.16500000000E+002,  0.00000000000E+000,  0.10000000000E+001
  0.94930100000E+005,  0.10491108167E+007,  0.16500000000E+002,  0.00000000000E+000,  0.10000000000E+001
  0.94936600000E+005,  0.10678013407E+007,  0.16500000000E+002,  0.00000000000E+000,  0.10000000000E+001
  0.94943200000E+005,  0.10918637782E+007,  0.16500000000E+002,  0.00000000000E+000,  0.10000000000E+001
  0.94949800000E+005,  0.11180652549E+007,  0.16500000000E+002,  0.00000000000E+000,  0.10000000000E+001
  0.94956300000E+005,  0.11433696569E+007,  0.16500000000E+002,  0.00000000000E+000,  0.10000000000E+001
  0.94962900000E+005,  0.11678639903E+007,  0.16500000000E+002,  0.00000000000E+000,  0.10000000000E+001
  0.94969400000E+005,  0.11911115331E+007,  0.16500000000E+002,  0.00000000000E+000,  0.10000000000E+001
  0.94976000000E+005,  0.12140245281E+007,  0.16500000000E+002,  0.00000000000E+000,  0.10000000000E+001
  0.94986000000E+005,  0.12479803948E+007,  0.16500000000E+002,  0.00000000000E+000,  0.10000000000E+001
  0.94996000000E+005,  0.12808932423E+007,  0.16500000000E+002,  0.00000000000E+000,  0.10000000000E+001
  0.95006000000E+005,  0.13126210852E+007,  0.16500000000E+002,  0.00000000000E+000,  0.10000000000E+001
  0.95016000000E+005,  0.13432106238E+007,  0.16500000000E+002,  0.00000000000E+000,  0.10000000000E+001
  0.95026000000E+005,  0.13727139843E+007,  0.16500000000E+002,  0.00000000000E+000,  0.10000000000E+001
  0.95036000000E+005,  0.14011403732E+007,  0.16500000000E+002,  0.00000000000E+000,  0.10000000000E+001
  0.95046000000E+005,  0.14286682285E+007,  0.16500000000E+002,  0.00000000000E+000,  0.10000000000E+001
  0.95056000000E+005,  0.14554688046E+007,  0.16500000000E+002,  0.00000000000E+000,  0.10000000000E+001
  0.95066000000E+005,  0.14815948772E+007,  0.16500000000E+002,  0.00000000000E+000,  0.10000000000E+001
  0.95076000000E+005,  0.15070852614E+007,  0.16500000000E+002,  0.00000000000E+000,  0.10000000000E+001
  0.95086000000E+005,  0.15320305699E+007,  0.16500000000E+002,  0.00000000000E+000,  0.10000000000E+001
  0.95096000000E+005,  0.15565381340E+007,  0.16500000000E+002,  0.00000000000E+000,  0.10000000000E+001
  0.95106000000E+005,  0.15806944313E+007,  0.16500000000E+002,  0.00000000000E+000,  0.10000000000E+001
  0.95116000000E+005,  0.16045654716E+007,  0.16500000000E+002,  0.00000000000E+000,  0.10000000000E+001
  0.95126000000E+005,  0.16281913479E+007,  0.16500000000E+002,  0.00000000000E+000,  0.10000000000E+001
  0.95136000000E+005,  0.16515903495E+007,  0.16500000000E+002,  0.00000000000E+000,  0.10000000000E+001
  0.95146000000E+005,  0.16747746981E+007,  0.16500000000E+002,  0.00000000000E+000,  0.10000000000E+001
  0.95156000000E+005,  0.16977556956E+007,  0.16500000000E+002,  0.00000000000E+000,  0.10000000000E+001
  0.95166000000E+005,  0.17205451989E+007,  0.16500000000E+002,  0.00000000000E+000,  0.10000000000E+001
  0.95176000000E+005,  0.17431488956E+007,  0.16500000000E+002,  0.00000000000E+000,  0.10000000000E+001
  0.95186000000E+005,  0.17655654490E+007,  0.16500000000E+002,  0.00000000000E+000,  0.10000000000E+001
  0.95196000000E+005,  0.17877997541E+007,  0.16500000000E+002,  0.00000000000E+000,  0.10000000000E+001
  0.95206000000E+005,  0.18098616141E+007,  0.16500000000E+002,  0.00000000000E+000,  0.10000000000E+001
  0.95216000000E+005,  0.18317561038E+007,  0.16500000000E+002,  0.00000000000E+000,  0.10000000000E+001
  0.95226000000E+005,  0.18534860371E+007,  0.16500000000E+002,  0.00000000000E+000,  0.10000000000E+001
  0.95236000000E+005,  0.18750476366E+007,  0.16500000000E+002,  0.00000000000E+000,  0.10000000000E+001
  0.95246000000E+005,  0.18964339440E+007,  0.16500000000E+002,  0.00000000000E+000,  0.10000000000E+001
  0.95256000000E+005,  0.19176394334E+007,  0.16500000000E+002,  0.00000000000E+000,  0.10000000000E+001
  0.95266000000E+005,  0.19386680315E+007,  0.16500000000E+002,  0.00000000000E+000,  0.10000000000E+001
  0.95276000000E+005,  0.19595285963E+007,  0.16500000000E+002,  0.00000000000E+000,  0.10000000000E+001
  0.95286000000E+005,  0.19802249590E+007,  0.16500000000E+002,  0.00000000000E+000,  0.10000000000E+001
  0.95296000000E+005,  0.20007542695E+007,  0.16500000000E+002,  0.00000000000E+000,  0.10000000000E+001
  0.95306000000E+005,  0.20211069301E+007,  0.16500000000E+002,  0.00000000000E+000,  0.10000000000E+001
  0.95316000000E+005,  0.20412708749E+007,  0.16500000000E+002,  0.00000000000E+000,  0.10000000000E+001
  0.95326000000E+005,  0.20612375246E+007,  0.16500000000E+002,  0.00000000000E+000,  0.10000000000E+001
  0.95336000000E+005,  0.20809992627E+007,  0.16500000000E+002,  0.00000000000E+000,  0.10000000000E+001
  0.95346000000E+005,  0.21005540099E+007,  0.16500000000E+002,  0.00000000000E+000,  0.10000000000E+001
  0.95356000000E+005,  0.21199016385E+007,  0.16500000000E+002,  0.00000000000E+000,  0.10000000000E+001
  0.95366000000E+005,  0.21390469506E+007,  0.16500000000E+002,  0.00000000000E+000,  0.10000000000E+001
  0.95376000000E+005,  0.21579967335E+007,  0.16500000000E+002,  0.00000000000E+000,  0.10000000000E+001
  0.95386000000E+005,  0.21767592722E+007,  0.16500000000E+002,  0.00000000000E+000,  0.10000000000E+001
  0.95396000000E+005,  0.21953426205E+007,  0.16500000000E+002,  0.00000000000E+000,  0.10000000000E+001
  0.95406000000E+005,  0.22137518112E+007,  0.16500000000E+002,  0.00000000000E+000,  0.10000000000E+001
  0.95416000000E+005,  0.22319880302E+007,  0.16500000000E+002,  0.00000000000E+000,  0.10000000000E+001
  0.95426000000E+005,  0.22500500533E+007,  0.16500000000E+002,  0.00000000000E+000,  0.10000000000E+001
  0.95436000000E+005,  0.22679352809E+007,  0.16500000000E+002,  0.00000000000E+000,  0.10000000000E+001
  0.95446000000E+005,  0.22856414858E+007,  0.16500000000E+002,  0.00000000000E+000,  0.10000000000E+001
  0.95456000000E+005,  0.23031648281E+007,  0.16500000000E+002,  0.00000000000E+000,  0.10000000000E+001
  0.95466000000E+005,  0.23205018319E+007,  0.16500000000E+002,  0.00000000000E+000,  0.10000000000E+001
  0.95476000000E+005,  0.23376484089E+007,  0.16500000000E+002,  0.00000000000E+000,  0.10000000000E+001
  0.95486000000E+005,  0.23545979783E+007,  0.16500000000E+002,  0.00000000000E+000,  0.10000000000E+001
  0.95496000000E+005,  0.23713451974E+007,  0.16500000000E+002,  0.00000000000E+000,  0.10000000000E+001
  0.95506000000E+005,  0.23878864416E+007,  0.16500000000E+002,  0.00000000000E+000,  0.10000000000E+001
  0.95516000000E+005,  0.24042193382E+007,  0.16500000000E+002,  0.00000000000E+000,  0.10000000000E+001
  0.95526000000E+005,  0.24203438736E+007,  0.16500000000E+002,  0.00000000000E+000,  0.10000000000E+001
  0.95536000000E+005,  0.24362616798E+007,  0.16500000000E+002,  0.00000000000E+000,  0.10000000000E+001
  0.95546000000E+005,  0.24519758546E+007,  0.16500000000E+002,  0.00000000000E+000,  0.10000000000E+001
  0.95556000000E+005,  0.24674908926E+007,  0.16500000000E+002,  0.00000000000E+000,  0.10000000000E+001
  0.95566000000E+005,  0.24828122836E+007,  0.16500000000E+002,  0.00000000000E+000,  0.10000000000E+001
  0.95576000000E+005,  0.24979469122E+007,  0.16500000000E+002,  0.00000000000E+000,  0.10000000000E+001
  0.95586000000E+005,  0.25129018986E+007,  0.16500000000E+002,  0.00000000000E+000,  0.10000000000E+001
  0.95596000000E+005,  0.25276844815E+007,  0.16500000000E+002,  0.00000000000E+000,  0.10000000000E+001
  0.95606000000E+005,  0.25423015554E+007,  0.16500000000E+002,  0.00000000000E+000,  0.10000000000E+001
  0.95616000000E+005,  0.25567601265E+007,  0.16500000000E+002,  0.00000000000E+000,  0.10000000000E+001
  0.95626000000E+005,  0.25710667125E+007,  0.16500000000E+002,  0.00000000000E+000,  0.10000000000E+001
  0.95636000000E+005,  0.25852265917E+007,  0.16500000000E+002,  0.00000000000E+000,  0.10000000000E+001
  0.95646000000E+005,  0.25992444593E+007,  0.16500000000E+002,  0.00000000000E+000,  0.10000000000E+001
  0.95656000000E+005,  0.26131241041E+007,  0.16500000000E+002,  0.00000000000E+000,  0.10000000000E+001
  0.95666000000E+005,  0.26268682934E+007,  0.16500000000E+002,  0.00000000000E+000,  0.10000000000E+001
  0.95676000000E+005,  0.26404789130E+007,  0.16500000000E+002,  0.00000000000E+000,  0.10000000000E+001
  0.95686000000E+005,  0.26539573795E+007,  0.16500000000E+002,  0.00000000000E+000,  0.10000000000E+001
  0.95696000000E+005,  0.26673045816E+007,  0.16500000000E+002,  0.00000000000E+000,  0.10000000000E+001
  0.95706000000E+005,  0.26805216550E+007,  0.16500000000E+002,  0.00000000000E+000,  0.10000000000E+001
  0.95716000000E+005,  0.26936098043E+007,  0.16500000000E+002,  0.00000000000E+000,  0.10000000000E+001
  0.95726000000E+005,  0.27065698930E+007,  0.16500000000E+002,  0.00000000000E+000,  0.10000000000E+001
  0.95736000000E+005,  0.27194029422E+007,  0.16500000000E+002,  0.00000000000E+000,  0.10000000000E+001
  0.95746000000E+005,  0.27321100991E+007,  0.16500000000E+002,  0.00000000000E+000,  0.10000000000E+001
  0.95756000000E+005,  0.27446923604E+007,  0.16500000000E+002,  0.00000000000E+000,  0.10000000000E+001
  0.95766000000E+005,  0.27571508530E+007,  0.16500000000E+002,  0.00000000000E+000,  0.10000000000E+001
  0.95776000000E+005,  0.27694866168E+007,  0.16500000000E+002,  0.00000000000E+000,  0.10000000000E+001
  0.95786000000E+005,  0.27817006848E+007,  0.16500000000E+002,  0.00000000000E+000,  0.10000000000E+001
  0.95796000000E+005,  0.27937943199E+007,  0.16500000000E+002,  0.00000000000E+000,  0.10000000000E+001
  0.95806000000E+005,  0.28057688151E+007,  0.16500000000E+002,  0.00000000000E+000,  0.10000000000E+001
  0.95816000000E+005,  0.28176256861E+007,  0.16500000000E+002,  0.00000000000E+000,  0.10000000000E+001
  0.95826000000E+005,  0.28293666180E+007,  0.16500000000E+002,  0.00000000000E+000,  0.10000000000E+001
  0.95836000000E+005,  0.28409934034E+007,  0.16500000000E+002,  0.00000000000E+000,  0.10000000000E+001
  0.95846000000E+005,  0.28525078008E+007,  0.16500000000E+002,  0.00000000000E+000,  0.10000000000E+001
  0.95856000000E+005,  0.28639117670E+007,  0.16500000000E+002,  0.00000000000E+000,  0.10000000000E+001
  0.95866000000E+005,  0.28752071814E+007,  0.16500000000E+002,  0.00000000000E+000,  0.10000000000E+001
  0.95876000000E+005,  0.28863957747E+007,  0.16500000000E+002,  0.00000000000E+000,  0.10000000000E+001
  0.95886000000E+005,  0.28974792042E+007,  0.16500000000E+002,  0.00000000000E+000,  0.10000000000E+001
  0.95896000000E+005,  0.29084591680E+007,  0.16500000000E+002,  0.00000000000E+000,  0.10000000000E+001
