"           TIME(S)","              PRES","              TEMP","             SAT_G","             SAT_L"
  0.94878500000E+005,  0.99758108430E+006,  0.16500000000E+002,  0.00000000000E+000,  0.10000000000E+001
  0.94879500000E+005,  0.99758108430E+006,  0.16500000000E+002,  0.00000000000E+000,  0.10000000000E+001
  0.94880500000E+005,  0.99758108430E+006,  0.16500000000E+002,  0.00000000000E+000,  0.10000000000E+001
  0.94881500000E+005,  0.99758108430E+006,  0.16500000000E+002,  0.00000000000E+000,  0.10000000000E+001
  0.94882500000E+005,  0.15485306187E+007,  0.16500000000E+002,  0.00000000000E+000,  0.10000000000E+001
  0.94883500000E+005,  0.20787863423E+007,  0.16500000000E+002,  0.00000000000E+000,  0.10000000000E+001
  0.94884500000E+005,  0.25944857175E+007,  0.16500000000E+002,  0.00000000000E+000,  0.10000000000E+001
  0.94885500000E+005,  0.30972045019E+007,  0.16500000000E+002,  0.00000000000E+000,  0.10000000000E+001
  0.94886500000E+005,  0.35846620991E+007,  0.16500000000E+002,  0.00000000000E+000,  0.10000000000E+001
  0.94887500000E+005,  0.40541268964E+007,  0.16500000000E+002,  0.00000000000E+000,  0.10000000000E+001
  0.94888500000E+005,  0.45024345393E+007,  0.16500000000E+002,  0.00000000000E+000,  0.10000000000E+001
  0.94889500000E+005,  0.49259916824E+007,  0.16500000000E+002,  0.00000000000E+000,  0.10000000000E+001
  0.94890500000E+005,  0.53207950297E+007,  0.16500000000E+002,  0.00000000000E+000,  0.10000000000E+001
  0.94891500000E+005,  0.56825066681E+007,  0.16500000000E+002,  0.00000000000E+000,  0.10000000000E+001
  0.94892500000E+005,  0.60065903172E+007,  0.16500000000E+002,  0.00000000000E+000,  0.10000000000E+001
  0.94893500000E+005,  0.62843946086E+007,  0.16500000000E+002,  0.00000000000E+000,  0.10000000000E+001
  0.94894500000E+005,  0.65197870656E+007,  0.16500000000E+002,  0.00000000000E+000,  0.10000000000E+001
  0.94895500000E+005,  0.66932990561E+007,  0.16500000000E+002,  0.00000000000E+000,  0.10000000000E+001
  0.94896500000E+005,  0.68286973010E+007,  0.16500000000E+002,  0.00000000000E+000,  0.10000000000E+001
  0.94897500000E+005,  0.69160622951E+007,  0.16500000000E+002,  0.00000000000E+000,  0.10000000000E+001
  0.94898500000E+005,  0.69632227025E+007,  0.16500000000E+002,  0.00000000000E+000,  0.10000000000E+001
  0.94899500000E+005,  0.69836884040E+007,  0.16500000000E+002,  0.00000000000E+000,  0.10000000000E+001
  0.94900500000E+005,  0.69947728160E+007,  0.16500000000E+002,  0.00000000000E+000,  0.10000000000E+001
  0.94901500000E+005,  0.70095250747E+007,  0.16500000000E+002,  0.00000000000E+000,  0.10000000000E+001
  0.94902500000E+005,  0.70346552974E+007,  0.16500000000E+002,  0.00000000000E+000,  0.10000000000E+001
  0.94903500000E+005,  0.70682086871E+007,  0.16500000000E+002,  0.00000000000E+000,  0.10000000000E+001
  0.94904500000E+005,  0.71028671600E+007,  0.16500000000E+002,  0.00000000000E+000,  0.10000000000E+001
  0.94905500000E+005,  0.71336834607E+007,  0.16500000000E+002,  0.00000000000E+000,  0.10000000000E+001
  0.94906500000E+005,  0.71588009621E+007,  0.16500000000E+002,  0.00000000000E+000,  0.10000000000E+001
  0.94907500000E+005,  0.71771128977E+007,  0.16500000000E+002,  0.00000000000E+000,  0.10000000000E+001
  0.94908500000E+005,  0.71897071015E+007,  0.16500000000E+002,  0.00000000000E+000,  0.10000000000E+001
  0.94909500000E+005,  0.71968738375E+007,  0.16500000000E+002,  0.00000000000E+000,  0.10000000000E+001
  0.94910500000E+005,  0.71996497379E+007,  0.16500000000E+002,  0.00000000000E+000,  0.10000000000E+001
  0.94911500000E+005,  0.71989289697E+007,  0.16500000000E+002,  0.00000000000E+000,  0.10000000000E+001
  0.94912500000E+005,  0.71953741962E+007,  0.16500000000E+002,  0.00000000000E+000,  0.10000000000E+001
  0.94913500000E+005,  0.71920277960E+007,  0.16500000000E+002,  0.00000000000E+000,  0.10000000000E+001
  0.94914500000E+005,  0.71821164023E+007,  0.16500000000E+002,  0.00000000000E+000,  0.10000000000E+001
  0.94915500000E+005,  0.71744469724E+007,  0.16500000000E+002,  0.00000000000E+000,  0.10000000000E+001
  0.94916500000E+005,  0.74693857458E+007,  0.16500000000E+002,  0.00000000000E+000,  0.10000000000E+001
  0.94917500000E+005,  0.73643907012E+007,  0.16500000000E+002,  0.00000000000E+000,  0.10000000000E+001
  0.94918500000E+005,  0.73080488452E+007,  0.16500000000E+002,  0.00000000000E+000,  0.10000000000E+001
  0.94919500000E+005,  0.72660339796E+007,  0.16500000000E+002,  0.00000000000E+000,  0.10000000000E+001
  0.94920500000E+005,  0.72303004773E+007,  0.16500000000E+002,  0.00000000000E+000,  0.10000000000E+001
  0.94921500000E+005,  0.71699484013E+007,  0.16500000000E+002,  0.00000000000E+000,  0.10000000000E+001
  0.94922500000E+005,  0.70990648533E+007,  0.16500000000E+002,  0.00000000000E+000,  0.10000000000E+001
  0.94923500000E+005,  0.70373300196E+007,  0.16500000000E+002,  0.00000000000E+000,  0.10000000000E+001
  0.94924500000E+005,  0.72004388406E+007,  0.16500000000E+002,  0.00000000000E+000,  0.10000000000E+001
  0.94925500000E+005,  0.72093123279E+007,  0.16500000000E+002,  0.00000000000E+000,  0.10000000000E+001
  0.94926500000E+005,  0.72144328954E+007,  0.16500000000E+002,  0.00000000000E+000,  0.10000000000E+001
  0.94927500000E+005,  0.73492301144E+007,  0.16500000000E+002,  0.00000000000E+000,  0.10000000000E+001
  0.94928500000E+005,  0.74108093384E+007,  0.16500000000E+002,  0.00000000000E+000,  0.10000000000E+001
  0.94929500000E+005,  0.74685903150E+007,  0.16500000000E+002,  0.00000000000E+000,  0.10000000000E+001
  0.94930500000E+005,  0.76226707040E+007,  0.16500000000E+002,  0.00000000000E+000,  0.10000000000E+001
  0.94931500000E+005,  0.77986438831E+007,  0.16500000000E+002,  0.00000000000E+000,  0.10000000000E+001
  0.94932500000E+005,  0.79882916918E+007,  0.16500000000E+002,  0.00000000000E+000,  0.10000000000E+001
  0.94933500000E+005,  0.81394203639E+007,  0.16500000000E+002,  0.00000000000E+000,  0.10000000000E+001
  0.94934500000E+005,  0.81876275932E+007,  0.16500000000E+002,  0.00000000000E+000,  0.10000000000E+001
  0.94935500000E+005,  0.81803756030E+007,  0.16500000000E+002,  0.00000000000E+000,  0.10000000000E+001
  0.94936500000E+005,  0.81476165451E+007,  0.16500000000E+002,  0.00000000000E+000,  0.10000000000E+001
  0.94937500000E+005,  0.81136591055E+007,  0.16500000000E+002,  0.00000000000E+000,  0.10000000000E+001
  0.94938500000E+005,  0.80873339495E+007,  0.16500000000E+002,  0.00000000000E+000,  0.10000000000E+001
  0.94939500000E+005,  0.80672308749E+007,  0.16500000000E+002,  0.00000000000E+000,  0.10000000000E+001
  0.94940500000E+005,  0.80457791054E+007,  0.16500000000E+002,  0.00000000000E+000,  0.10000000000E+001
  0.94941500000E+005,  0.80281905259E+007,  0.16500000000E+002,  0.00000000000E+000,  0.10000000000E+001
  0.94942500000E+005,  0.79943397738E+007,  0.16500000000E+002,  0.00000000000E+000,  0.10000000000E+001
  0.94943500000E+005,  0.79525341037E+007,  0.16500000000E+002,  0.00000000000E+000,  0.10000000000E+001
  0.94944500000E+005,  0.79197609877E+007,  0.16500000000E+002,  0.00000000000E+000,  0.10000000000E+001
  0.94945500000E+005,  0.78958905092E+007,  0.16500000000E+002,  0.00000000000E+000,  0.10000000000E+001
  0.94946500000E+005,  0.79693732956E+007,  0.16500000000E+002,  0.00000000000E+000,  0.10000000000E+001
  0.94947500000E+005,  0.79865266540E+007,  0.16500000000E+002,  0.00000000000E+000,  0.10000000000E+001
  0.94948500000E+005,  0.79946114803E+007,  0.16500000000E+002,  0.00000000000E+000,  0.10000000000E+001
  0.94949500000E+005,  0.79762231292E+007,  0.16500000000E+002,  0.00000000000E+000,  0.10000000000E+001
  0.94950500000E+005,  0.79723293403E+007,  0.16500000000E+002,  0.00000000000E+000,  0.10000000000E+001
  0.94951500000E+005,  0.79668666932E+007,  0.16500000000E+002,  0.00000000000E+000,  0.10000000000E+001
  0.94952500000E+005,  0.79553137774E+007,  0.16500000000E+002,  0.00000000000E+000,  0.10000000000E+001
  0.94953500000E+005,  0.79296787430E+007,  0.16500000000E+002,  0.00000000000E+000,  0.10000000000E+001
  0.94954500000E+005,  0.78954694090E+007,  0.16500000000E+002,  0.00000000000E+000,  0.10000000000E+001
  0.94955500000E+005,  0.78303650476E+007,  0.16500000000E+002,  0.00000000000E+000,  0.10000000000E+001
  0.94956500000E+005,  0.77673721600E+007,  0.16500000000E+002,  0.00000000000E+000,  0.10000000000E+001
  0.94957500000E+005,  0.77068242256E+007,  0.16500000000E+002,  0.00000000000E+000,  0.10000000000E+001
  0.94958500000E+005,  0.76490996889E+007,  0.16500000000E+002,  0.00000000000E+000,  0.10000000000E+001
  0.94959500000E+005,  0.75949549894E+007,  0.16500000000E+002,  0.00000000000E+000,  0.10000000000E+001
  0.94960500000E+005,  0.75473576553E+007,  0.16500000000E+002,  0.00000000000E+000,  0.10000000000E+001
  0.94961500000E+005,  0.75097518507E+007,  0.16500000000E+002,  0.00000000000E+000,  0.10000000000E+001
  0.94962500000E+005,  0.74874670393E+007,  0.16500000000E+002,  0.00000000000E+000,  0.10000000000E+001
  0.94963500000E+005,  0.74753067003E+007,  0.16500000000E+002,  0.00000000000E+000,  0.10000000000E+001
  0.94964500000E+005,  0.74684143898E+007,  0.16500000000E+002,  0.00000000000E+000,  0.10000000000E+001
  0.94965500000E+005,  0.74644363337E+007,  0.16500000000E+002,  0.00000000000E+000,  0.10000000000E+001
  0.94966500000E+005,  0.74628305935E+007,  0.16500000000E+002,  0.00000000000E+000,  0.10000000000E+001
  0.94967500000E+005,  0.74620767746E+007,  0.16500000000E+002,  0.00000000000E+000,  0.10000000000E+001
  0.94968500000E+005,  0.74600705814E+007,  0.16500000000E+002,  0.00000000000E+000,  0.10000000000E+001
  0.94969500000E+005,  0.74563005354E+007,  0.16500000000E+002,  0.00000000000E+000,  0.10000000000E+001
  0.94970500000E+005,  0.74502143170E+007,  0.16500000000E+002,  0.00000000000E+000,  0.10000000000E+001
  0.94971500000E+005,  0.74422779567E+007,  0.16500000000E+002,  0.00000000000E+000,  0.10000000000E+001
  0.94972500000E+005,  0.74351276250E+007,  0.16500000000E+002,  0.00000000000E+000,  0.10000000000E+001
  0.94973500000E+005,  0.74297582035E+007,  0.16500000000E+002,  0.00000000000E+000,  0.10000000000E+001
  0.94974500000E+005,  0.74252450134E+007,  0.16500000000E+002,  0.00000000000E+000,  0.10000000000E+001
  0.94975500000E+005,  0.74201158026E+007,  0.16500000000E+002,  0.00000000000E+000,  0.10000000000E+001
  0.94976500000E+005,  0.74139131615E+007,  0.16500000000E+002,  0.00000000000E+000,  0.10000000000E+001
  0.94977500000E+005,  0.74066057507E+007,  0.16500000000E+002,  0.00000000000E+000,  0.10000000000E+001
  0.94978500000E+005,  0.73986927875E+007,  0.16500000000E+002,  0.00000000000E+000,  0.10000000000E+001
  0.94979500000E+005,  0.73906184992E+007,  0.16500000000E+002,  0.00000000000E+000,  0.10000000000E+001
  0.94980500000E+005,  0.73830269829E+007,  0.16500000000E+002,  0.00000000000E+000,  0.10000000000E+001
  0.94981500000E+005,  0.73757033549E+007,  0.16500000000E+002,  0.00000000000E+000,  0.10000000000E+001
  0.94982500000E+005,  0.73687980664E+007,  0.16500000000E+002,  0.00000000000E+000,  0.10000000000E+001
  0.94983500000E+005,  0.73628895024E+007,  0.16500000000E+002,  0.00000000000E+000,  0.10000000000E+001
  0.94984500000E+005,  0.73575580326E+007,  0.16500000000E+002,  0.00000000000E+000,  0.10000000000E+001
  0.94985500000E+005,  0.73518576082E+007,  0.16500000000E+002,  0.00000000000E+000,  0.10000000000E+001
  0.94986500000E+005,  0.73454398790E+007,  0.16500000000E+002,  0.00000000000E+000,  0.10000000000E+001
  0.94987500000E+005,  0.73378327766E+007,  0.16500000000E+002,  0.00000000000E+000,  0.10000000000E+001
  0.94988500000E+005,  0.73289879547E+007,  0.16500000000E+002,  0.00000000000E+000,  0.10000000000E+001
  0.94989500000E+005,  0.73192741054E+007,  0.16500000000E+002,  0.00000000000E+000,  0.10000000000E+001
  0.94990500000E+005,  0.73094536818E+007,  0.16500000000E+002,  0.00000000000E+000,  0.10000000000E+001
  0.94991500000E+005,  0.73002541367E+007,  0.16500000000E+002,  0.00000000000E+000,  0.10000000000E+001
  0.94992500000E+005,  0.72922508064E+007,  0.16500000000E+002,  0.00000000000E+000,  0.10000000000E+001
  0.94993500000E+005,  0.72919662045E+007,  0.16500000000E+002,  0.00000000000E+000,  0.10000000000E+001
  0.94994500000E+005,  0.72961239633E+007,  0.16500000000E+002,  0.00000000000E+000,  0.10000000000E+001
  0.94995500000E+005,  0.72963714183E+007,  0.16500000000E+002,  0.00000000000E+000,  0.10000000000E+001
  0.94996500000E+005,  0.72869266652E+007,  0.16500000000E+002,  0.00000000000E+000,  0.10000000000E+001
  0.94997500000E+005,  0.72822753863E+007,  0.16500000000E+002,  0.00000000000E+000,  0.10000000000E+001
  0.94998500000E+005,  0.72780528612E+007,  0.16500000000E+002,  0.00000000000E+000,  0.10000000000E+001
  0.94999500000E+005,  0.72740460033E+007,  0.16500000000E+002,  0.00000000000E+000,  0.10000000000E+001
  0.95000500000E+005,  0.72707122706E+007,  0.16500000000E+002,  0.00000000000E+000,  0.10000000000E+001
  0.95001500000E+005,  0.72682197725E+007,  0.16500000000E+002,  0.00000000000E+000,  0.10000000000E+001
  0.95002500000E+005,  0.72664827768E+007,  0.16500000000E+002,  0.00000000000E+000,  0.10000000000E+001
  0.95003500000E+005,  0.72651686998E+007,  0.16500000000E+002,  0.00000000000E+000,  0.10000000000E+001
  0.95004500000E+005,  0.72640511595E+007,  0.16500000000E+002,  0.00000000000E+000,  0.10000000000E+001
  0.95005500000E+005,  0.72627034284E+007,  0.16500000000E+002,  0.00000000000E+000,  0.10000000000E+001
  0.95006500000E+005,  0.72608884930E+007,  0.16500000000E+002,  0.00000000000E+000,  0.10000000000E+001
  0.95007500000E+005,  0.72586041633E+007,  0.16500000000E+002,  0.00000000000E+000,  0.10000000000E+001
  0.95008500000E+005,  0.72559005660E+007,  0.16500000000E+002,  0.00000000000E+000,  0.10000000000E+001
  0.95009500000E+005,  0.72527740650E+007,  0.16500000000E+002,  0.00000000000E+000,  0.10000000000E+001
  0.95010500000E+005,  0.72492545925E+007,  0.16500000000E+002,  0.00000000000E+000,  0.10000000000E+001
  0.95011500000E+005,  0.72454455704E+007,  0.16500000000E+002,  0.00000000000E+000,  0.10000000000E+001
  0.95012500000E+005,  0.72414147963E+007,  0.16500000000E+002,  0.00000000000E+000,  0.10000000000E+001
  0.95013500000E+005,  0.72371243399E+007,  0.16500000000E+002,  0.00000000000E+000,  0.10000000000E+001
  0.95014500000E+005,  0.72326534019E+007,  0.16500000000E+002,  0.00000000000E+000,  0.10000000000E+001
  0.95015500000E+005,  0.72280504136E+007,  0.16500000000E+002,  0.00000000000E+000,  0.10000000000E+001
  0.95016500000E+005,  0.72233393072E+007,  0.16500000000E+002,  0.00000000000E+000,  0.10000000000E+001
  0.95017500000E+005,  0.72185628940E+007,  0.16500000000E+002,  0.00000000000E+000,  0.10000000000E+001
  0.95018500000E+005,  0.72137404651E+007,  0.16500000000E+002,  0.00000000000E+000,  0.10000000000E+001
  0.95019500000E+005,  0.72088740939E+007,  0.16500000000E+002,  0.00000000000E+000,  0.10000000000E+001
  0.95020500000E+005,  0.72039719695E+007,  0.16500000000E+002,  0.00000000000E+000,  0.10000000000E+001
  0.95021500000E+005,  0.72033399195E+007,  0.16500000000E+002,  0.00000000000E+000,  0.10000000000E+001
  0.95022500000E+005,  0.71998027684E+007,  0.16500000000E+002,  0.00000000000E+000,  0.10000000000E+001
  0.95023500000E+005,  0.71935594570E+007,  0.16500000000E+002,  0.00000000000E+000,  0.10000000000E+001
  0.95024500000E+005,  0.71820190868E+007,  0.16500000000E+002,  0.00000000000E+000,  0.10000000000E+001
  0.95025500000E+005,  0.71738693407E+007,  0.16500000000E+002,  0.00000000000E+000,  0.10000000000E+001
  0.95026500000E+005,  0.71657905912E+007,  0.16500000000E+002,  0.00000000000E+000,  0.10000000000E+001
  0.95027500000E+005,  0.71573463803E+007,  0.16500000000E+002,  0.00000000000E+000,  0.10000000000E+001
  0.95028500000E+005,  0.71484802308E+007,  0.16500000000E+002,  0.00000000000E+000,  0.10000000000E+001
  0.95029500000E+005,  0.71391580895E+007,  0.16500000000E+002,  0.00000000000E+000,  0.10000000000E+001
  0.95030500000E+005,  0.71294077975E+007,  0.16500000000E+002,  0.00000000000E+000,  0.10000000000E+001
  0.95031500000E+005,  0.71193226723E+007,  0.16500000000E+002,  0.00000000000E+000,  0.10000000000E+001
  0.95032500000E+005,  0.71089655017E+007,  0.16500000000E+002,  0.00000000000E+000,  0.10000000000E+001
  0.95033500000E+005,  0.70984002130E+007,  0.16500000000E+002,  0.00000000000E+000,  0.10000000000E+001
  0.95034500000E+005,  0.70877269744E+007,  0.16500000000E+002,  0.00000000000E+000,  0.10000000000E+001
  0.95035500000E+005,  0.70770171989E+007,  0.16500000000E+002,  0.00000000000E+000,  0.10000000000E+001
  0.95036500000E+005,  0.70664509266E+007,  0.16500000000E+002,  0.00000000000E+000,  0.10000000000E+001
  0.95037500000E+005,  0.70561373788E+007,  0.16500000000E+002,  0.00000000000E+000,  0.10000000000E+001
  0.95038500000E+005,  0.70460895586E+007,  0.16500000000E+002,  0.00000000000E+000,  0.10000000000E+001
  0.95039500000E+005,  0.70363220204E+007,  0.16500000000E+002,  0.00000000000E+000,  0.10000000000E+001
  0.95040500000E+005,  0.70268770097E+007,  0.16500000000E+002,  0.00000000000E+000,  0.10000000000E+001
  0.95041500000E+005,  0.70177507546E+007,  0.16500000000E+002,  0.00000000000E+000,  0.10000000000E+001
  0.95042500000E+005,  0.70090711875E+007,  0.16500000000E+002,  0.00000000000E+000,  0.10000000000E+001
  0.95043500000E+005,  0.70009011674E+007,  0.16500000000E+002,  0.00000000000E+000,  0.10000000000E+001
  0.95044500000E+005,  0.69933163059E+007,  0.16500000000E+002,  0.00000000000E+000,  0.10000000000E+001
  0.95045500000E+005,  0.69863671012E+007,  0.16500000000E+002,  0.00000000000E+000,  0.10000000000E+001
  0.95046500000E+005,  0.69800813872E+007,  0.16500000000E+002,  0.00000000000E+000,  0.10000000000E+001
  0.95047500000E+005,  0.69744439035E+007,  0.16500000000E+002,  0.00000000000E+000,  0.10000000000E+001
  0.95048500000E+005,  0.69693980989E+007,  0.16500000000E+002,  0.00000000000E+000,  0.10000000000E+001
  0.95049500000E+005,  0.69648365717E+007,  0.16500000000E+002,  0.00000000000E+000,  0.10000000000E+001
  0.95050500000E+005,  0.69606003775E+007,  0.16500000000E+002,  0.00000000000E+000,  0.10000000000E+001
  0.95051500000E+005,  0.69566234332E+007,  0.16500000000E+002,  0.00000000000E+000,  0.10000000000E+001
  0.95052500000E+005,  0.69528492709E+007,  0.16500000000E+002,  0.00000000000E+000,  0.10000000000E+001
  0.95053500000E+005,  0.69492052446E+007,  0.16500000000E+002,  0.00000000000E+000,  0.10000000000E+001
  0.95054500000E+005,  0.69456137162E+007,  0.16500000000E+002,  0.00000000000E+000,  0.10000000000E+001
  0.95055500000E+005,  0.69420132494E+007,  0.16500000000E+002,  0.00000000000E+000,  0.10000000000E+001
  0.95056500000E+005,  0.69383679143E+007,  0.16500000000E+002,  0.00000000000E+000,  0.10000000000E+001
  0.95057500000E+005,  0.69346556059E+007,  0.16500000000E+002,  0.00000000000E+000,  0.10000000000E+001
  0.95058500000E+005,  0.69308702859E+007,  0.16500000000E+002,  0.00000000000E+000,  0.10000000000E+001
  0.95059500000E+005,  0.69270161486E+007,  0.16500000000E+002,  0.00000000000E+000,  0.10000000000E+001
  0.95060500000E+005,  0.69230902304E+007,  0.16500000000E+002,  0.00000000000E+000,  0.10000000000E+001
  0.95061500000E+005,  0.69190888996E+007,  0.16500000000E+002,  0.00000000000E+000,  0.10000000000E+001
  0.95062500000E+005,  0.69150385304E+007,  0.16500000000E+002,  0.00000000000E+000,  0.10000000000E+001
  0.95063500000E+005,  0.69109323743E+007,  0.16500000000E+002,  0.00000000000E+000,  0.10000000000E+001
  0.95064500000E+005,  0.69067749354E+007,  0.16500000000E+002,  0.00000000000E+000,  0.10000000000E+001
  0.95065500000E+005,  0.69025619808E+007,  0.16500000000E+002,  0.00000000000E+000,  0.10000000000E+001
  0.95066500000E+005,  0.68982833415E+007,  0.16500000000E+002,  0.00000000000E+000,  0.10000000000E+001
