"           TIME(S)","              PRES","              TEMP","             SAT_G","             SAT_L"
  0.94860000000E+005,  0.10416050731E+007,  0.16500000000E+002,  0.00000000000E+000,  0.10000000000E+001
  0.94870000000E+005,  0.10416050741E+007,  0.16500000000E+002,  0.00000000000E+000,  0.10000000000E+001
  0.94920000000E+005,  0.10416050813E+007,  0.16500000000E+002,  0.00000000000E+000,  0.10000000000E+001
  0.94980000000E+005,  0.10416050896E+007,  0.16500000000E+002,  0.00000000000E+000,  0.10000000000E+001
  0.95040000000E+005,  0.10416050966E+007,  0.16500000000E+002,  0.00000000000E+000,  0.10000000000E+001
  0.95100000000E+005,  0.10416051022E+007,  0.16500000000E+002,  0.00000000000E+000,  0.10000000000E+001
  0.95128100000E+005,  0.10416051045E+007,  0.16500000000E+002,  0.00000000000E+000,  0.10000000000E+001
  0.95188100000E+005,  0.10416051085E+007,  0.16500000000E+002,  0.00000000000E+000,  0.10000000000E+001
  0.95248100000E+005,  0.10416051118E+007,  0.16500000000E+002,  0.00000000000E+000,  0.10000000000E+001
  0.95308100000E+005,  0.10416051145E+007,  0.16500000000E+002,  0.00000000000E+000,  0.10000000000E+001
  0.95368100000E+005,  0.10416051171E+007,  0.16500000000E+002,  0.00000000000E+000,  0.10000000000E+001
  0.95398200000E+005,  0.10416051185E+007,  0.16500000000E+002,  0.00000000000E+000,  0.10000000000E+001
  0.95458200000E+005,  0.10416051233E+007,  0.16500000000E+002,  0.00000000000E+000,  0.10000000000E+001
  0.95518200000E+005,  0.10416051420E+007,  0.16500000000E+002,  0.00000000000E+000,  0.10000000000E+001
  0.95578200000E+005,  0.10416052460E+007,  0.16500000000E+002,  0.00000000000E+000,  0.10000000000E+001
  0.95638200000E+005,  0.10416058454E+007,  0.16500000000E+002,  0.00000000000E+000,  0.10000000000E+001
  0.95668300000E+005,  0.10416063654E+007,  0.16500000000E+002,  0.00000000000E+000,  0.10000000000E+001
  0.95728300000E+005,  0.10416124323E+007,  0.16500000000E+002,  0.00000000000E+000,  0.10000000000E+001
  0.95788300000E+005,  0.10416366851E+007,  0.16500000000E+002,  0.00000000000E+000,  0.10000000000E+001
  0.95848300000E+005,  0.10417115959E+007,  0.16500000000E+002,  0.00000000000E+000,  0.10000000000E+001
  0.95908300000E+005,  0.10419799598E+007,  0.16500000000E+002,  0.00000000000E+000,  0.10000000000E+001
  0.95938400000E+005,  0.10422305899E+007,  0.16500000000E+002,  0.00000000000E+000,  0.10000000000E+001
  0.95998400000E+005,  0.10443363312E+007,  0.16500000000E+002,  0.00000000000E+000,  0.10000000000E+001
  0.96058400000E+005,  0.10494804440E+007,  0.16500000000E+002,  0.00000000000E+000,  0.10000000000E+001
  0.96118400000E+005,  0.10616036961E+007,  0.16500000000E+002,  0.00000000000E+000,  0.10000000000E+001
  0.96178400000E+005,  0.10996953244E+007,  0.16500000000E+002,  0.00000000000E+000,  0.10000000000E+001
  0.96208500000E+005,  0.11474264444E+007,  0.16500000000E+002,  0.00000000000E+000,  0.10000000000E+001
  0.96268500000E+005,  0.14477013530E+007,  0.16500000000E+002,  0.00000000000E+000,  0.10000000000E+001
  0.96328500000E+005,  0.19363537171E+007,  0.16500000000E+002,  0.00000000000E+000,  0.10000000000E+001
  0.96388500000E+005,  0.24073612080E+007,  0.16500000000E+002,  0.00000000000E+000,  0.10000000000E+001
  0.96448500000E+005,  0.27772593367E+007,  0.16500000000E+002,  0.00000000000E+000,  0.10000000000E+001
  0.96478600000E+005,  0.29552149482E+007,  0.16500000000E+002,  0.00000000000E+000,  0.10000000000E+001
  0.96538600000E+005,  0.32642607704E+007,  0.16500000000E+002,  0.00000000000E+000,  0.10000000000E+001
  0.96598600000E+005,  0.34797723440E+007,  0.16500000000E+002,  0.00000000000E+000,  0.10000000000E+001
  0.96658600000E+005,  0.35785494149E+007,  0.16500000000E+002,  0.00000000000E+000,  0.10000000000E+001
  0.96718600000E+005,  0.36146206685E+007,  0.16500000000E+002,  0.00000000000E+000,  0.10000000000E+001
  0.96748700000E+005,  0.36235078846E+007,  0.16500000000E+002,  0.00000000000E+000,  0.10000000000E+001
  0.96808700000E+005,  0.36938363773E+007,  0.16500000000E+002,  0.00000000000E+000,  0.10000000000E+001
  0.96868700000E+005,  0.37514010999E+007,  0.16500000000E+002,  0.00000000000E+000,  0.10000000000E+001
  0.96928700000E+005,  0.37585072332E+007,  0.16500000000E+002,  0.00000000000E+000,  0.10000000000E+001
  0.96988700000E+005,  0.37415616373E+007,  0.16500000000E+002,  0.00000000000E+000,  0.10000000000E+001
  0.97018800000E+005,  0.37211169194E+007,  0.16500000000E+002,  0.00000000000E+000,  0.10000000000E+001
  0.97078800000E+005,  0.37264235044E+007,  0.16500000000E+002,  0.00000000000E+000,  0.10000000000E+001
  0.97138800000E+005,  0.37427841624E+007,  0.16500000000E+002,  0.00000000000E+000,  0.10000000000E+001
  0.97198800000E+005,  0.37721013460E+007,  0.16500000000E+002,  0.00000000000E+000,  0.10000000000E+001
  0.97258800000E+005,  0.37970431946E+007,  0.16500000000E+002,  0.00000000000E+000,  0.10000000000E+001
  0.97288900000E+005,  0.37949039921E+007,  0.16500000000E+002,  0.00000000000E+000,  0.10000000000E+001
  0.97348900000E+005,  0.37989177382E+007,  0.16500000000E+002,  0.00000000000E+000,  0.10000000000E+001
  0.97408900000E+005,  0.37993770174E+007,  0.16500000000E+002,  0.00000000000E+000,  0.10000000000E+001
  0.97468900000E+005,  0.37988328555E+007,  0.16500000000E+002,  0.00000000000E+000,  0.10000000000E+001
  0.97528900000E+005,  0.37913762288E+007,  0.16500000000E+002,  0.00000000000E+000,  0.10000000000E+001
  0.97559000000E+005,  0.37847968210E+007,  0.16500000000E+002,  0.00000000000E+000,  0.10000000000E+001
  0.97619000000E+005,  0.37844902794E+007,  0.16500000000E+002,  0.00000000000E+000,  0.10000000000E+001
  0.97679000000E+005,  0.37841019841E+007,  0.16500000000E+002,  0.00000000000E+000,  0.10000000000E+001
  0.97739000000E+005,  0.37802447141E+007,  0.16500000000E+002,  0.00000000000E+000,  0.10000000000E+001
  0.97799000000E+005,  0.37733824220E+007,  0.16500000000E+002,  0.00000000000E+000,  0.10000000000E+001
  0.97829100000E+005,  0.37662798929E+007,  0.16500000000E+002,  0.00000000000E+000,  0.10000000000E+001
  0.97889100000E+005,  0.37599379840E+007,  0.16500000000E+002,  0.00000000000E+000,  0.10000000000E+001
  0.97949100000E+005,  0.37577299169E+007,  0.16500000000E+002,  0.00000000000E+000,  0.10000000000E+001
  0.98009100000E+005,  0.37597775055E+007,  0.16500000000E+002,  0.00000000000E+000,  0.10000000000E+001
  0.98069100000E+005,  0.37656280334E+007,  0.16500000000E+002,  0.00000000000E+000,  0.10000000000E+001
  0.98099200000E+005,  0.37677205633E+007,  0.16500000000E+002,  0.00000000000E+000,  0.10000000000E+001
  0.98159200000E+005,  0.37758346759E+007,  0.16500000000E+002,  0.00000000000E+000,  0.10000000000E+001
  0.98219200000E+005,  0.37852029610E+007,  0.16500000000E+002,  0.00000000000E+000,  0.10000000000E+001
  0.98279200000E+005,  0.37943520622E+007,  0.16500000000E+002,  0.00000000000E+000,  0.10000000000E+001
  0.98339200000E+005,  0.38030466980E+007,  0.16500000000E+002,  0.00000000000E+000,  0.10000000000E+001
  0.98369300000E+005,  0.38067778705E+007,  0.16500000000E+002,  0.00000000000E+000,  0.10000000000E+001
  0.98429300000E+005,  0.38157499158E+007,  0.16500000000E+002,  0.00000000000E+000,  0.10000000000E+001
  0.98489300000E+005,  0.38204828994E+007,  0.16500000000E+002,  0.00000000000E+000,  0.10000000000E+001
  0.98549300000E+005,  0.38194549024E+007,  0.16500000000E+002,  0.00000000000E+000,  0.10000000000E+001
  0.98609300000E+005,  0.38159931653E+007,  0.16500000000E+002,  0.00000000000E+000,  0.10000000000E+001
  0.98639400000E+005,  0.38135539635E+007,  0.16500000000E+002,  0.00000000000E+000,  0.10000000000E+001
  0.98699400000E+005,  0.38110722749E+007,  0.16500000000E+002,  0.00000000000E+000,  0.10000000000E+001
  0.98759400000E+005,  0.38113210549E+007,  0.16500000000E+002,  0.00000000000E+000,  0.10000000000E+001
  0.98819400000E+005,  0.38134413865E+007,  0.16500000000E+002,  0.00000000000E+000,  0.10000000000E+001
  0.98879400000E+005,  0.38168296689E+007,  0.16500000000E+002,  0.00000000000E+000,  0.10000000000E+001
  0.98909500000E+005,  0.38184266371E+007,  0.16500000000E+002,  0.00000000000E+000,  0.10000000000E+001
  0.98969500000E+005,  0.38158548268E+007,  0.16500000000E+002,  0.00000000000E+000,  0.10000000000E+001
  0.99029500000E+005,  0.38012255585E+007,  0.16500000000E+002,  0.00000000000E+000,  0.10000000000E+001
  0.99089500000E+005,  0.37753828531E+007,  0.16500000000E+002,  0.00000000000E+000,  0.10000000000E+001
  0.99149500000E+005,  0.37425651492E+007,  0.16500000000E+002,  0.00000000000E+000,  0.10000000000E+001
  0.99179600000E+005,  0.37246106946E+007,  0.16500000000E+002,  0.00000000000E+000,  0.10000000000E+001
  0.99239600000E+005,  0.36876321456E+007,  0.16500000000E+002,  0.00000000000E+000,  0.10000000000E+001
  0.99299600000E+005,  0.36508992437E+007,  0.16500000000E+002,  0.00000000000E+000,  0.10000000000E+001
  0.99359600000E+005,  0.36154292392E+007,  0.16500000000E+002,  0.00000000000E+000,  0.10000000000E+001
  0.99419600000E+005,  0.35816343784E+007,  0.16500000000E+002,  0.00000000000E+000,  0.10000000000E+001
  0.99449700000E+005,  0.35650378613E+007,  0.16500000000E+002,  0.00000000000E+000,  0.10000000000E+001
  0.99509700000E+005,  0.35335001470E+007,  0.16500000000E+002,  0.00000000000E+000,  0.10000000000E+001
  0.99569700000E+005,  0.35032633395E+007,  0.16500000000E+002,  0.00000000000E+000,  0.10000000000E+001
  0.99629700000E+005,  0.34741684304E+007,  0.16500000000E+002,  0.00000000000E+000,  0.10000000000E+001
  0.99689700000E+005,  0.34460828468E+007,  0.16500000000E+002,  0.00000000000E+000,  0.10000000000E+001
  0.99719800000E+005,  0.34322083269E+007,  0.16500000000E+002,  0.00000000000E+000,  0.10000000000E+001
  0.99779800000E+005,  0.34054258147E+007,  0.16500000000E+002,  0.00000000000E+000,  0.10000000000E+001
  0.99839800000E+005,  0.33794846186E+007,  0.16500000000E+002,  0.00000000000E+000,  0.10000000000E+001
  0.99899800000E+005,  0.33542442459E+007,  0.16500000000E+002,  0.00000000000E+000,  0.10000000000E+001
  0.99959800000E+005,  0.33296584293E+007,  0.16500000000E+002,  0.00000000000E+000,  0.10000000000E+001
  0.10000000000E+006,  0.33134614347E+007,  0.16500000000E+002,  0.00000000000E+000,  0.10000000000E+001
