"           TIME(S)","              PRES","              TEMP","             SAT_G","             SAT_L"
  0.94860000000E+005,  0.99606484278E+006,  0.16500000000E+002,  0.00000000000E+000,  0.10000000000E+001
  0.94870000000E+005,  0.99606484278E+006,  0.16500000000E+002,  0.00000000000E+000,  0.10000000000E+001
  0.94872000000E+005,  0.99606484278E+006,  0.16500000000E+002,  0.00000000000E+000,  0.10000000000E+001
  0.94874000000E+005,  0.99606484278E+006,  0.16500000000E+002,  0.00000000000E+000,  0.10000000000E+001
  0.94876000000E+005,  0.99606484278E+006,  0.16500000000E+002,  0.00000000000E+000,  0.10000000000E+001
  0.94878000000E+005,  0.99606484278E+006,  0.16500000000E+002,  0.00000000000E+000,  0.10000000000E+001
  0.94880000000E+005,  0.99606484278E+006,  0.16500000000E+002,  0.00000000000E+000,  0.10000000000E+001
  0.94882000000E+005,  0.12713069635E+007,  0.16500000000E+002,  0.00000000000E+000,  0.10000000000E+001
  0.94884000000E+005,  0.25193857710E+007,  0.16500000000E+002,  0.00000000000E+000,  0.10000000000E+001
  0.94886000000E+005,  0.37514585739E+007,  0.16500000000E+002,  0.00000000000E+000,  0.10000000000E+001
  0.94888000000E+005,  0.49535622403E+007,  0.16500000000E+002,  0.00000000000E+000,  0.10000000000E+001
  0.94890000000E+005,  0.60765509197E+007,  0.16500000000E+002,  0.00000000000E+000,  0.10000000000E+001
  0.94892000000E+005,  0.69195516774E+007,  0.16500000000E+002,  0.00000000000E+000,  0.10000000000E+001
  0.94894000000E+005,  0.72460335926E+007,  0.16500000000E+002,  0.00000000000E+000,  0.10000000000E+001
  0.94896000000E+005,  0.72397597681E+007,  0.16500000000E+002,  0.00000000000E+000,  0.10000000000E+001
  0.94898000000E+005,  0.72437417448E+007,  0.16500000000E+002,  0.00000000000E+000,  0.10000000000E+001
  0.94900000000E+005,  0.73919651075E+007,  0.16500000000E+002,  0.00000000000E+000,  0.10000000000E+001
  0.94902000000E+005,  0.74772436551E+007,  0.16500000000E+002,  0.00000000000E+000,  0.10000000000E+001
  0.94904000000E+005,  0.74358404854E+007,  0.16500000000E+002,  0.00000000000E+000,  0.10000000000E+001
  0.94906000000E+005,  0.73281013129E+007,  0.16500000000E+002,  0.00000000000E+000,  0.10000000000E+001
  0.94908000000E+005,  0.72345429996E+007,  0.16500000000E+002,  0.00000000000E+000,  0.10000000000E+001
  0.94910000000E+005,  0.70793398515E+007,  0.16500000000E+002,  0.00000000000E+000,  0.10000000000E+001
  0.94912000000E+005,  0.69671454855E+007,  0.16500000000E+002,  0.00000000000E+000,  0.10000000000E+001
  0.94914000000E+005,  0.69246647970E+007,  0.16500000000E+002,  0.00000000000E+000,  0.10000000000E+001
  0.94916000000E+005,  0.69854067208E+007,  0.16500000000E+002,  0.00000000000E+000,  0.10000000000E+001
  0.94918000000E+005,  0.70626122358E+007,  0.16500000000E+002,  0.00000000000E+000,  0.10000000000E+001
  0.94920000000E+005,  0.70051561273E+007,  0.16500000000E+002,  0.00000000000E+000,  0.10000000000E+001
  0.94922000000E+005,  0.69659218335E+007,  0.16500000000E+002,  0.00000000000E+000,  0.10000000000E+001
  0.94924000000E+005,  0.69528666418E+007,  0.16500000000E+002,  0.00000000000E+000,  0.10000000000E+001
  0.94926000000E+005,  0.70488418097E+007,  0.16500000000E+002,  0.00000000000E+000,  0.10000000000E+001
  0.94928000000E+005,  0.71857958345E+007,  0.16500000000E+002,  0.00000000000E+000,  0.10000000000E+001
  0.94930000000E+005,  0.73715431462E+007,  0.16500000000E+002,  0.00000000000E+000,  0.10000000000E+001
  0.94932000000E+005,  0.77424401160E+007,  0.16500000000E+002,  0.00000000000E+000,  0.10000000000E+001
  0.94934000000E+005,  0.80845413188E+007,  0.16500000000E+002,  0.00000000000E+000,  0.10000000000E+001
  0.94936000000E+005,  0.81333023290E+007,  0.16500000000E+002,  0.00000000000E+000,  0.10000000000E+001
  0.94938000000E+005,  0.79977923288E+007,  0.16500000000E+002,  0.00000000000E+000,  0.10000000000E+001
  0.94940000000E+005,  0.79188669265E+007,  0.16500000000E+002,  0.00000000000E+000,  0.10000000000E+001
  0.94942000000E+005,  0.78565420072E+007,  0.16500000000E+002,  0.00000000000E+000,  0.10000000000E+001
  0.94944000000E+005,  0.78253866599E+007,  0.16500000000E+002,  0.00000000000E+000,  0.10000000000E+001
  0.94946000000E+005,  0.78803635557E+007,  0.16500000000E+002,  0.00000000000E+000,  0.10000000000E+001
  0.94948000000E+005,  0.80492967803E+007,  0.16500000000E+002,  0.00000000000E+000,  0.10000000000E+001
  0.94950000000E+005,  0.80121172797E+007,  0.16500000000E+002,  0.00000000000E+000,  0.10000000000E+001
  0.94952000000E+005,  0.79100167634E+007,  0.16500000000E+002,  0.00000000000E+000,  0.10000000000E+001
  0.94954000000E+005,  0.78690973023E+007,  0.16500000000E+002,  0.00000000000E+000,  0.10000000000E+001
  0.94956000000E+005,  0.78406145639E+007,  0.16500000000E+002,  0.00000000000E+000,  0.10000000000E+001
  0.94958000000E+005,  0.78269630198E+007,  0.16500000000E+002,  0.00000000000E+000,  0.10000000000E+001
  0.94960000000E+005,  0.78022981692E+007,  0.16500000000E+002,  0.00000000000E+000,  0.10000000000E+001
  0.94962000000E+005,  0.77467249634E+007,  0.16500000000E+002,  0.00000000000E+000,  0.10000000000E+001
  0.94964000000E+005,  0.76977853289E+007,  0.16500000000E+002,  0.00000000000E+000,  0.10000000000E+001
  0.94966000000E+005,  0.76462944882E+007,  0.16500000000E+002,  0.00000000000E+000,  0.10000000000E+001
  0.94968000000E+005,  0.75764494007E+007,  0.16500000000E+002,  0.00000000000E+000,  0.10000000000E+001
  0.94970000000E+005,  0.75388570041E+007,  0.16500000000E+002,  0.00000000000E+000,  0.10000000000E+001
  0.94972000000E+005,  0.75122825683E+007,  0.16500000000E+002,  0.00000000000E+000,  0.10000000000E+001
  0.94974000000E+005,  0.74899284577E+007,  0.16500000000E+002,  0.00000000000E+000,  0.10000000000E+001
  0.94976000000E+005,  0.74668986305E+007,  0.16500000000E+002,  0.00000000000E+000,  0.10000000000E+001
  0.94978000000E+005,  0.74368534809E+007,  0.16500000000E+002,  0.00000000000E+000,  0.10000000000E+001
  0.94980000000E+005,  0.74098809959E+007,  0.16500000000E+002,  0.00000000000E+000,  0.10000000000E+001
  0.94982000000E+005,  0.73975340499E+007,  0.16500000000E+002,  0.00000000000E+000,  0.10000000000E+001
  0.94984000000E+005,  0.73797538626E+007,  0.16500000000E+002,  0.00000000000E+000,  0.10000000000E+001
  0.94986000000E+005,  0.73547974452E+007,  0.16500000000E+002,  0.00000000000E+000,  0.10000000000E+001
  0.94988000000E+005,  0.73346931905E+007,  0.16500000000E+002,  0.00000000000E+000,  0.10000000000E+001
  0.94990000000E+005,  0.73198029463E+007,  0.16500000000E+002,  0.00000000000E+000,  0.10000000000E+001
  0.94992000000E+005,  0.73054769117E+007,  0.16500000000E+002,  0.00000000000E+000,  0.10000000000E+001
  0.94994000000E+005,  0.73117159110E+007,  0.16500000000E+002,  0.00000000000E+000,  0.10000000000E+001
  0.94996000000E+005,  0.73111289867E+007,  0.16500000000E+002,  0.00000000000E+000,  0.10000000000E+001
  0.94998000000E+005,  0.72695874029E+007,  0.16500000000E+002,  0.00000000000E+000,  0.10000000000E+001
  0.95000000000E+005,  0.72569052376E+007,  0.16500000000E+002,  0.00000000000E+000,  0.10000000000E+001
  0.95010000000E+005,  0.74103326555E+007,  0.16500000000E+002,  0.00000000000E+000,  0.10000000000E+001
  0.95020000000E+005,  0.72976008599E+007,  0.16500000000E+002,  0.00000000000E+000,  0.10000000000E+001
  0.95030000000E+005,  0.72261579313E+007,  0.16500000000E+002,  0.00000000000E+000,  0.10000000000E+001
  0.95040000000E+005,  0.71488793777E+007,  0.16500000000E+002,  0.00000000000E+000,  0.10000000000E+001
  0.95050000000E+005,  0.70810471073E+007,  0.16500000000E+002,  0.00000000000E+000,  0.10000000000E+001
  0.95060000000E+005,  0.70805809276E+007,  0.16500000000E+002,  0.00000000000E+000,  0.10000000000E+001
  0.95070000000E+005,  0.71208241594E+007,  0.16500000000E+002,  0.00000000000E+000,  0.10000000000E+001
  0.95080000000E+005,  0.71092030523E+007,  0.16500000000E+002,  0.00000000000E+000,  0.10000000000E+001
  0.95090000000E+005,  0.70755143994E+007,  0.16500000000E+002,  0.00000000000E+000,  0.10000000000E+001
  0.95100000000E+005,  0.70782154511E+007,  0.16500000000E+002,  0.00000000000E+000,  0.10000000000E+001
  0.95110000000E+005,  0.70751731518E+007,  0.16500000000E+002,  0.00000000000E+000,  0.10000000000E+001
  0.95120000000E+005,  0.70903664558E+007,  0.16500000000E+002,  0.00000000000E+000,  0.10000000000E+001
  0.95128100000E+005,  0.70816670506E+007,  0.16500000000E+002,  0.00000000000E+000,  0.10000000000E+001
  0.95138100000E+005,  0.70723200334E+007,  0.16500000000E+002,  0.00000000000E+000,  0.10000000000E+001
  0.95148100000E+005,  0.70353667981E+007,  0.16500000000E+002,  0.00000000000E+000,  0.10000000000E+001
  0.95158100000E+005,  0.70382560208E+007,  0.16500000000E+002,  0.00000000000E+000,  0.10000000000E+001
  0.95168100000E+005,  0.70552335570E+007,  0.16500000000E+002,  0.00000000000E+000,  0.10000000000E+001
  0.95178100000E+005,  0.70385186680E+007,  0.16500000000E+002,  0.00000000000E+000,  0.10000000000E+001
  0.95188100000E+005,  0.70161521560E+007,  0.16500000000E+002,  0.00000000000E+000,  0.10000000000E+001
  0.95198100000E+005,  0.69883024047E+007,  0.16500000000E+002,  0.00000000000E+000,  0.10000000000E+001
  0.95208100000E+005,  0.69675530211E+007,  0.16500000000E+002,  0.00000000000E+000,  0.10000000000E+001
  0.95218100000E+005,  0.69740942231E+007,  0.16500000000E+002,  0.00000000000E+000,  0.10000000000E+001
  0.95228100000E+005,  0.69783328520E+007,  0.16500000000E+002,  0.00000000000E+000,  0.10000000000E+001
  0.95238100000E+005,  0.69657451394E+007,  0.16500000000E+002,  0.00000000000E+000,  0.10000000000E+001
  0.95248100000E+005,  0.69586887863E+007,  0.16500000000E+002,  0.00000000000E+000,  0.10000000000E+001
  0.95258100000E+005,  0.69893854124E+007,  0.16500000000E+002,  0.00000000000E+000,  0.10000000000E+001
  0.95268100000E+005,  0.69943605817E+007,  0.16500000000E+002,  0.00000000000E+000,  0.10000000000E+001
  0.95278100000E+005,  0.69896041226E+007,  0.16500000000E+002,  0.00000000000E+000,  0.10000000000E+001
  0.95288100000E+005,  0.69867449527E+007,  0.16500000000E+002,  0.00000000000E+000,  0.10000000000E+001
  0.95298100000E+005,  0.69836407073E+007,  0.16500000000E+002,  0.00000000000E+000,  0.10000000000E+001
  0.95308100000E+005,  0.69845956653E+007,  0.16500000000E+002,  0.00000000000E+000,  0.10000000000E+001
  0.95318100000E+005,  0.69918304084E+007,  0.16500000000E+002,  0.00000000000E+000,  0.10000000000E+001
  0.95328100000E+005,  0.69924800858E+007,  0.16500000000E+002,  0.00000000000E+000,  0.10000000000E+001
  0.95338100000E+005,  0.69813708388E+007,  0.16500000000E+002,  0.00000000000E+000,  0.10000000000E+001
  0.95348100000E+005,  0.69648109688E+007,  0.16500000000E+002,  0.00000000000E+000,  0.10000000000E+001
  0.95358100000E+005,  0.69436324511E+007,  0.16500000000E+002,  0.00000000000E+000,  0.10000000000E+001
  0.95368100000E+005,  0.69305434373E+007,  0.16500000000E+002,  0.00000000000E+000,  0.10000000000E+001
  0.95378100000E+005,  0.69261068428E+007,  0.16500000000E+002,  0.00000000000E+000,  0.10000000000E+001
  0.95388100000E+005,  0.69160966614E+007,  0.16500000000E+002,  0.00000000000E+000,  0.10000000000E+001
  0.95398100000E+005,  0.69052357982E+007,  0.16500000000E+002,  0.00000000000E+000,  0.10000000000E+001
  0.95398200000E+005,  0.69110576717E+007,  0.16500000000E+002,  0.00000000000E+000,  0.10000000000E+001
  0.95408200000E+005,  0.69105812824E+007,  0.16500000000E+002,  0.00000000000E+000,  0.10000000000E+001
  0.95418200000E+005,  0.69235095243E+007,  0.16500000000E+002,  0.00000000000E+000,  0.10000000000E+001
  0.95428200000E+005,  0.69259594071E+007,  0.16500000000E+002,  0.00000000000E+000,  0.10000000000E+001
  0.95438200000E+005,  0.69273104768E+007,  0.16500000000E+002,  0.00000000000E+000,  0.10000000000E+001
  0.95448200000E+005,  0.69214225022E+007,  0.16500000000E+002,  0.00000000000E+000,  0.10000000000E+001
  0.95458200000E+005,  0.69095687298E+007,  0.16500000000E+002,  0.00000000000E+000,  0.10000000000E+001
  0.95468200000E+005,  0.68982369329E+007,  0.16500000000E+002,  0.00000000000E+000,  0.10000000000E+001
  0.95478200000E+005,  0.68920058270E+007,  0.16500000000E+002,  0.00000000000E+000,  0.10000000000E+001
  0.95488200000E+005,  0.68848035474E+007,  0.16500000000E+002,  0.00000000000E+000,  0.10000000000E+001
  0.95498200000E+005,  0.68756648509E+007,  0.16500000000E+002,  0.00000000000E+000,  0.10000000000E+001
  0.95508200000E+005,  0.68718184470E+007,  0.16500000000E+002,  0.00000000000E+000,  0.10000000000E+001
  0.95518200000E+005,  0.68674758420E+007,  0.16500000000E+002,  0.00000000000E+000,  0.10000000000E+001
  0.95528200000E+005,  0.68619739926E+007,  0.16500000000E+002,  0.00000000000E+000,  0.10000000000E+001
  0.95538200000E+005,  0.68608535615E+007,  0.16500000000E+002,  0.00000000000E+000,  0.10000000000E+001
  0.95548200000E+005,  0.68596322521E+007,  0.16500000000E+002,  0.00000000000E+000,  0.10000000000E+001
  0.95558200000E+005,  0.68583768458E+007,  0.16500000000E+002,  0.00000000000E+000,  0.10000000000E+001
  0.95568200000E+005,  0.68559570943E+007,  0.16500000000E+002,  0.00000000000E+000,  0.10000000000E+001
  0.95578200000E+005,  0.68521618196E+007,  0.16500000000E+002,  0.00000000000E+000,  0.10000000000E+001
  0.95588200000E+005,  0.68500045934E+007,  0.16500000000E+002,  0.00000000000E+000,  0.10000000000E+001
  0.95598200000E+005,  0.68541539936E+007,  0.16500000000E+002,  0.00000000000E+000,  0.10000000000E+001
  0.95608200000E+005,  0.68713498836E+007,  0.16500000000E+002,  0.00000000000E+000,  0.10000000000E+001
  0.95618200000E+005,  0.68923813900E+007,  0.16500000000E+002,  0.00000000000E+000,  0.10000000000E+001
  0.95628200000E+005,  0.69072937793E+007,  0.16500000000E+002,  0.00000000000E+000,  0.10000000000E+001
  0.95638200000E+005,  0.69117424330E+007,  0.16500000000E+002,  0.00000000000E+000,  0.10000000000E+001
  0.95648200000E+005,  0.69189400802E+007,  0.16500000000E+002,  0.00000000000E+000,  0.10000000000E+001
  0.95658200000E+005,  0.69246085921E+007,  0.16500000000E+002,  0.00000000000E+000,  0.10000000000E+001
  0.95668200000E+005,  0.69248910255E+007,  0.16500000000E+002,  0.00000000000E+000,  0.10000000000E+001
  0.95668300000E+005,  0.69248458399E+007,  0.16500000000E+002,  0.00000000000E+000,  0.10000000000E+001
  0.95678300000E+005,  0.69233708561E+007,  0.16500000000E+002,  0.00000000000E+000,  0.10000000000E+001
  0.95688300000E+005,  0.69211743179E+007,  0.16500000000E+002,  0.00000000000E+000,  0.10000000000E+001
  0.95698300000E+005,  0.69166926335E+007,  0.16500000000E+002,  0.00000000000E+000,  0.10000000000E+001
  0.95708300000E+005,  0.69163961448E+007,  0.16500000000E+002,  0.00000000000E+000,  0.10000000000E+001
  0.95718300000E+005,  0.69204960486E+007,  0.16500000000E+002,  0.00000000000E+000,  0.10000000000E+001
  0.95728300000E+005,  0.69196172838E+007,  0.16500000000E+002,  0.00000000000E+000,  0.10000000000E+001
  0.95738300000E+005,  0.69190372171E+007,  0.16500000000E+002,  0.00000000000E+000,  0.10000000000E+001
  0.95748300000E+005,  0.69176817249E+007,  0.16500000000E+002,  0.00000000000E+000,  0.10000000000E+001
  0.95758300000E+005,  0.69156209753E+007,  0.16500000000E+002,  0.00000000000E+000,  0.10000000000E+001
  0.95768300000E+005,  0.69130840253E+007,  0.16500000000E+002,  0.00000000000E+000,  0.10000000000E+001
  0.95778300000E+005,  0.69109524304E+007,  0.16500000000E+002,  0.00000000000E+000,  0.10000000000E+001
  0.95788300000E+005,  0.69099187421E+007,  0.16500000000E+002,  0.00000000000E+000,  0.10000000000E+001
  0.95798300000E+005,  0.69089122988E+007,  0.16500000000E+002,  0.00000000000E+000,  0.10000000000E+001
  0.95808300000E+005,  0.69075006466E+007,  0.16500000000E+002,  0.00000000000E+000,  0.10000000000E+001
  0.95818300000E+005,  0.69060656960E+007,  0.16500000000E+002,  0.00000000000E+000,  0.10000000000E+001
  0.95828300000E+005,  0.69046008642E+007,  0.16500000000E+002,  0.00000000000E+000,  0.10000000000E+001
  0.95838300000E+005,  0.69032691573E+007,  0.16500000000E+002,  0.00000000000E+000,  0.10000000000E+001
  0.95848300000E+005,  0.69021813490E+007,  0.16500000000E+002,  0.00000000000E+000,  0.10000000000E+001
  0.95858300000E+005,  0.69011586345E+007,  0.16500000000E+002,  0.00000000000E+000,  0.10000000000E+001
  0.95868300000E+005,  0.69002344349E+007,  0.16500000000E+002,  0.00000000000E+000,  0.10000000000E+001
  0.95878300000E+005,  0.68993182956E+007,  0.16500000000E+002,  0.00000000000E+000,  0.10000000000E+001
  0.95888300000E+005,  0.68983084085E+007,  0.16500000000E+002,  0.00000000000E+000,  0.10000000000E+001
  0.95898300000E+005,  0.68971702536E+007,  0.16500000000E+002,  0.00000000000E+000,  0.10000000000E+001
  0.95908300000E+005,  0.68959624897E+007,  0.16500000000E+002,  0.00000000000E+000,  0.10000000000E+001
  0.95918300000E+005,  0.68945406005E+007,  0.16500000000E+002,  0.00000000000E+000,  0.10000000000E+001
  0.95928300000E+005,  0.68928542663E+007,  0.16500000000E+002,  0.00000000000E+000,  0.10000000000E+001
  0.95938300000E+005,  0.68907957201E+007,  0.16500000000E+002,  0.00000000000E+000,  0.10000000000E+001
  0.95938400000E+005,  0.68913371944E+007,  0.16500000000E+002,  0.00000000000E+000,  0.10000000000E+001
  0.95948400000E+005,  0.68893356556E+007,  0.16500000000E+002,  0.00000000000E+000,  0.10000000000E+001
  0.95958400000E+005,  0.68886922782E+007,  0.16500000000E+002,  0.00000000000E+000,  0.10000000000E+001
  0.95968400000E+005,  0.68878824752E+007,  0.16500000000E+002,  0.00000000000E+000,  0.10000000000E+001
  0.95978400000E+005,  0.68872919603E+007,  0.16500000000E+002,  0.00000000000E+000,  0.10000000000E+001
  0.95988400000E+005,  0.68866177421E+007,  0.16500000000E+002,  0.00000000000E+000,  0.10000000000E+001
  0.95998400000E+005,  0.68859538787E+007,  0.16500000000E+002,  0.00000000000E+000,  0.10000000000E+001
  0.96008400000E+005,  0.68690913390E+007,  0.16500000000E+002,  0.00000000000E+000,  0.10000000000E+001
  0.96018400000E+005,  0.68702587891E+007,  0.16500000000E+002,  0.00000000000E+000,  0.10000000000E+001
  0.96028400000E+005,  0.68700404650E+007,  0.16500000000E+002,  0.00000000000E+000,  0.10000000000E+001
  0.96038400000E+005,  0.68691351398E+007,  0.16500000000E+002,  0.00000000000E+000,  0.10000000000E+001
  0.96048400000E+005,  0.68682601862E+007,  0.16500000000E+002,  0.00000000000E+000,  0.10000000000E+001
  0.96058400000E+005,  0.68672811112E+007,  0.16500000000E+002,  0.00000000000E+000,  0.10000000000E+001
  0.96068400000E+005,  0.68663504913E+007,  0.16500000000E+002,  0.00000000000E+000,  0.10000000000E+001
  0.96078400000E+005,  0.68654647309E+007,  0.16500000000E+002,  0.00000000000E+000,  0.10000000000E+001
  0.96088400000E+005,  0.68646252674E+007,  0.16500000000E+002,  0.00000000000E+000,  0.10000000000E+001
  0.96098400000E+005,  0.68639085411E+007,  0.16500000000E+002,  0.00000000000E+000,  0.10000000000E+001
  0.96108400000E+005,  0.68633168472E+007,  0.16500000000E+002,  0.00000000000E+000,  0.10000000000E+001
  0.96118400000E+005,  0.68627906768E+007,  0.16500000000E+002,  0.00000000000E+000,  0.10000000000E+001
  0.96128400000E+005,  0.68623756993E+007,  0.16500000000E+002,  0.00000000000E+000,  0.10000000000E+001
  0.96138400000E+005,  0.68620420198E+007,  0.16500000000E+002,  0.00000000000E+000,  0.10000000000E+001
  0.96148400000E+005,  0.68617707432E+007,  0.16500000000E+002,  0.00000000000E+000,  0.10000000000E+001
  0.96158400000E+005,  0.68615600045E+007,  0.16500000000E+002,  0.00000000000E+000,  0.10000000000E+001
  0.96168400000E+005,  0.68613687999E+007,  0.16500000000E+002,  0.00000000000E+000,  0.10000000000E+001
  0.96178400000E+005,  0.68611369662E+007,  0.16500000000E+002,  0.00000000000E+000,  0.10000000000E+001
  0.96188400000E+005,  0.68609467457E+007,  0.16500000000E+002,  0.00000000000E+000,  0.10000000000E+001
