"           TIME(S)","              PRES","              TEMP","             SAT_G","             SAT_L"
  0.94860000000E+005,  0.10416050731E+007,  0.16500000000E+002,  0.00000000000E+000,  0.10000000000E+001
  0.94864500000E+005,  0.10416050731E+007,  0.16500000000E+002,  0.00000000000E+000,  0.10000000000E+001
  0.94871100000E+005,  0.10416050731E+007,  0.16500000000E+002,  0.00000000000E+000,  0.10000000000E+001
  0.94877600000E+005,  0.10416050731E+007,  0.16500000000E+002,  0.00000000000E+000,  0.10000000000E+001
  0.94884200000E+005,  0.10416050737E+007,  0.16500000000E+002,  0.00000000000E+000,  0.10000000000E+001
  0.94890700000E+005,  0.10416050744E+007,  0.16500000000E+002,  0.00000000000E+000,  0.10000000000E+001
  0.94897300000E+005,  0.10416050753E+007,  0.16500000000E+002,  0.00000000000E+000,  0.10000000000E+001
  0.94903900000E+005,  0.10416050762E+007,  0.16500000000E+002,  0.00000000000E+000,  0.10000000000E+001
  0.94910400000E+005,  0.10416050773E+007,  0.16500000000E+002,  0.00000000000E+000,  0.10000000000E+001
  0.94917000000E+005,  0.10416050783E+007,  0.16500000000E+002,  0.00000000000E+000,  0.10000000000E+001
  0.94923500000E+005,  0.10416050794E+007,  0.16500000000E+002,  0.00000000000E+000,  0.10000000000E+001
  0.94930100000E+005,  0.10416050805E+007,  0.16500000000E+002,  0.00000000000E+000,  0.10000000000E+001
  0.94936600000E+005,  0.10416050816E+007,  0.16500000000E+002,  0.00000000000E+000,  0.10000000000E+001
  0.94943200000E+005,  0.10416050828E+007,  0.16500000000E+002,  0.00000000000E+000,  0.10000000000E+001
  0.94949800000E+005,  0.10416050839E+007,  0.16500000000E+002,  0.00000000000E+000,  0.10000000000E+001
  0.94956300000E+005,  0.10416050850E+007,  0.16500000000E+002,  0.00000000000E+000,  0.10000000000E+001
  0.94962900000E+005,  0.10416050861E+007,  0.16500000000E+002,  0.00000000000E+000,  0.10000000000E+001
  0.94969400000E+005,  0.10416050871E+007,  0.16500000000E+002,  0.00000000000E+000,  0.10000000000E+001
  0.94976000000E+005,  0.10416050882E+007,  0.16500000000E+002,  0.00000000000E+000,  0.10000000000E+001
  0.94986000000E+005,  0.10416050897E+007,  0.16500000000E+002,  0.00000000000E+000,  0.10000000000E+001
  0.94996000000E+005,  0.10416050912E+007,  0.16500000000E+002,  0.00000000000E+000,  0.10000000000E+001
  0.95006000000E+005,  0.10416050926E+007,  0.16500000000E+002,  0.00000000000E+000,  0.10000000000E+001
  0.95016000000E+005,  0.10416050940E+007,  0.16500000000E+002,  0.00000000000E+000,  0.10000000000E+001
  0.95026000000E+005,  0.10416050953E+007,  0.16500000000E+002,  0.00000000000E+000,  0.10000000000E+001
  0.95036000000E+005,  0.10416050965E+007,  0.16500000000E+002,  0.00000000000E+000,  0.10000000000E+001
  0.95046000000E+005,  0.10416050977E+007,  0.16500000000E+002,  0.00000000000E+000,  0.10000000000E+001
  0.95056000000E+005,  0.10416050988E+007,  0.16500000000E+002,  0.00000000000E+000,  0.10000000000E+001
  0.95066000000E+005,  0.10416050998E+007,  0.16500000000E+002,  0.00000000000E+000,  0.10000000000E+001
  0.95076000000E+005,  0.10416051008E+007,  0.16500000000E+002,  0.00000000000E+000,  0.10000000000E+001
  0.95086000000E+005,  0.10416051018E+007,  0.16500000000E+002,  0.00000000000E+000,  0.10000000000E+001
  0.95096000000E+005,  0.10416051027E+007,  0.16500000000E+002,  0.00000000000E+000,  0.10000000000E+001
  0.95106000000E+005,  0.10416051036E+007,  0.16500000000E+002,  0.00000000000E+000,  0.10000000000E+001
  0.95116000000E+005,  0.10416051045E+007,  0.16500000000E+002,  0.00000000000E+000,  0.10000000000E+001
  0.95126000000E+005,  0.10416051053E+007,  0.16500000000E+002,  0.00000000000E+000,  0.10000000000E+001
  0.95136000000E+005,  0.10416051060E+007,  0.16500000000E+002,  0.00000000000E+000,  0.10000000000E+001
  0.95146000000E+005,  0.10416051067E+007,  0.16500000000E+002,  0.00000000000E+000,  0.10000000000E+001
  0.95156000000E+005,  0.10416051074E+007,  0.16500000000E+002,  0.00000000000E+000,  0.10000000000E+001
  0.95166000000E+005,  0.10416051081E+007,  0.16500000000E+002,  0.00000000000E+000,  0.10000000000E+001
  0.95176000000E+005,  0.10416051088E+007,  0.16500000000E+002,  0.00000000000E+000,  0.10000000000E+001
  0.95186000000E+005,  0.10416051094E+007,  0.16500000000E+002,  0.00000000000E+000,  0.10000000000E+001
  0.95196000000E+005,  0.10416051100E+007,  0.16500000000E+002,  0.00000000000E+000,  0.10000000000E+001
  0.95206000000E+005,  0.10416051105E+007,  0.16500000000E+002,  0.00000000000E+000,  0.10000000000E+001
  0.95216000000E+005,  0.10416051111E+007,  0.16500000000E+002,  0.00000000000E+000,  0.10000000000E+001
  0.95226000000E+005,  0.10416051116E+007,  0.16500000000E+002,  0.00000000000E+000,  0.10000000000E+001
  0.95236000000E+005,  0.10416051121E+007,  0.16500000000E+002,  0.00000000000E+000,  0.10000000000E+001
  0.95246000000E+005,  0.10416051126E+007,  0.16500000000E+002,  0.00000000000E+000,  0.10000000000E+001
  0.95256000000E+005,  0.10416051131E+007,  0.16500000000E+002,  0.00000000000E+000,  0.10000000000E+001
  0.95266000000E+005,  0.10416051135E+007,  0.16500000000E+002,  0.00000000000E+000,  0.10000000000E+001
  0.95276000000E+005,  0.10416051140E+007,  0.16500000000E+002,  0.00000000000E+000,  0.10000000000E+001
  0.95286000000E+005,  0.10416051144E+007,  0.16500000000E+002,  0.00000000000E+000,  0.10000000000E+001
  0.95296000000E+005,  0.10416051148E+007,  0.16500000000E+002,  0.00000000000E+000,  0.10000000000E+001
  0.95306000000E+005,  0.10416051152E+007,  0.16500000000E+002,  0.00000000000E+000,  0.10000000000E+001
  0.95316000000E+005,  0.10416051156E+007,  0.16500000000E+002,  0.00000000000E+000,  0.10000000000E+001
  0.95326000000E+005,  0.10416051160E+007,  0.16500000000E+002,  0.00000000000E+000,  0.10000000000E+001
  0.95336000000E+005,  0.10416051164E+007,  0.16500000000E+002,  0.00000000000E+000,  0.10000000000E+001
  0.95346000000E+005,  0.10416051168E+007,  0.16500000000E+002,  0.00000000000E+000,  0.10000000000E+001
  0.95356000000E+005,  0.10416051171E+007,  0.16500000000E+002,  0.00000000000E+000,  0.10000000000E+001
  0.95366000000E+005,  0.10416051175E+007,  0.16500000000E+002,  0.00000000000E+000,  0.10000000000E+001
  0.95376000000E+005,  0.10416051178E+007,  0.16500000000E+002,  0.00000000000E+000,  0.10000000000E+001
  0.95386000000E+005,  0.10416051182E+007,  0.16500000000E+002,  0.00000000000E+000,  0.10000000000E+001
  0.95396000000E+005,  0.10416051185E+007,  0.16500000000E+002,  0.00000000000E+000,  0.10000000000E+001
  0.95406000000E+005,  0.10416051188E+007,  0.16500000000E+002,  0.00000000000E+000,  0.10000000000E+001
  0.95416000000E+005,  0.10416051192E+007,  0.16500000000E+002,  0.00000000000E+000,  0.10000000000E+001
  0.95426000000E+005,  0.10416051195E+007,  0.16500000000E+002,  0.00000000000E+000,  0.10000000000E+001
  0.95436000000E+005,  0.10416051198E+007,  0.16500000000E+002,  0.00000000000E+000,  0.10000000000E+001
  0.95446000000E+005,  0.10416051201E+007,  0.16500000000E+002,  0.00000000000E+000,  0.10000000000E+001
  0.95456000000E+005,  0.10416051204E+007,  0.16500000000E+002,  0.00000000000E+000,  0.10000000000E+001
  0.95466000000E+005,  0.10416051208E+007,  0.16500000000E+002,  0.00000000000E+000,  0.10000000000E+001
  0.95476000000E+005,  0.10416051211E+007,  0.16500000000E+002,  0.00000000000E+000,  0.10000000000E+001
  0.95486000000E+005,  0.10416051214E+007,  0.16500000000E+002,  0.00000000000E+000,  0.10000000000E+001
  0.95496000000E+005,  0.10416051218E+007,  0.16500000000E+002,  0.00000000000E+000,  0.10000000000E+001
  0.95506000000E+005,  0.10416051222E+007,  0.16500000000E+002,  0.00000000000E+000,  0.10000000000E+001
  0.95516000000E+005,  0.10416051228E+007,  0.16500000000E+002,  0.00000000000E+000,  0.10000000000E+001
  0.95526000000E+005,  0.10416051234E+007,  0.16500000000E+002,  0.00000000000E+000,  0.10000000000E+001
  0.95536000000E+005,  0.10416051242E+007,  0.16500000000E+002,  0.00000000000E+000,  0.10000000000E+001
  0.95546000000E+005,  0.10416051253E+007,  0.16500000000E+002,  0.00000000000E+000,  0.10000000000E+001
  0.95556000000E+005,  0.10416051269E+007,  0.16500000000E+002,  0.00000000000E+000,  0.10000000000E+001
  0.95566000000E+005,  0.10416051291E+007,  0.16500000000E+002,  0.00000000000E+000,  0.10000000000E+001
  0.95576000000E+005,  0.10416051324E+007,  0.16500000000E+002,  0.00000000000E+000,  0.10000000000E+001
  0.95586000000E+005,  0.10416051371E+007,  0.16500000000E+002,  0.00000000000E+000,  0.10000000000E+001
  0.95596000000E+005,  0.10416051441E+007,  0.16500000000E+002,  0.00000000000E+000,  0.10000000000E+001
  0.95606000000E+005,  0.10416051541E+007,  0.16500000000E+002,  0.00000000000E+000,  0.10000000000E+001
  0.95616000000E+005,  0.10416051685E+007,  0.16500000000E+002,  0.00000000000E+000,  0.10000000000E+001
  0.95626000000E+005,  0.10416051893E+007,  0.16500000000E+002,  0.00000000000E+000,  0.10000000000E+001
  0.95636000000E+005,  0.10416052190E+007,  0.16500000000E+002,  0.00000000000E+000,  0.10000000000E+001
  0.95646000000E+005,  0.10416052611E+007,  0.16500000000E+002,  0.00000000000E+000,  0.10000000000E+001
  0.95656000000E+005,  0.10416053206E+007,  0.16500000000E+002,  0.00000000000E+000,  0.10000000000E+001
  0.95666000000E+005,  0.10416054042E+007,  0.16500000000E+002,  0.00000000000E+000,  0.10000000000E+001
  0.95676000000E+005,  0.10416055207E+007,  0.16500000000E+002,  0.00000000000E+000,  0.10000000000E+001
  0.95686000000E+005,  0.10416056818E+007,  0.16500000000E+002,  0.00000000000E+000,  0.10000000000E+001
  0.95696000000E+005,  0.10416059029E+007,  0.16500000000E+002,  0.00000000000E+000,  0.10000000000E+001
  0.95706000000E+005,  0.10416062042E+007,  0.16500000000E+002,  0.00000000000E+000,  0.10000000000E+001
  0.95716000000E+005,  0.10416066124E+007,  0.16500000000E+002,  0.00000000000E+000,  0.10000000000E+001
  0.95726000000E+005,  0.10416071647E+007,  0.16500000000E+002,  0.00000000000E+000,  0.10000000000E+001
  0.95736000000E+005,  0.10416079134E+007,  0.16500000000E+002,  0.00000000000E+000,  0.10000000000E+001
  0.95746000000E+005,  0.10416089346E+007,  0.16500000000E+002,  0.00000000000E+000,  0.10000000000E+001
  0.95756000000E+005,  0.10416103380E+007,  0.16500000000E+002,  0.00000000000E+000,  0.10000000000E+001
  0.95766000000E+005,  0.10416122834E+007,  0.16500000000E+002,  0.00000000000E+000,  0.10000000000E+001
  0.95776000000E+005,  0.10416150094E+007,  0.16500000000E+002,  0.00000000000E+000,  0.10000000000E+001
  0.95786000000E+005,  0.10416188762E+007,  0.16500000000E+002,  0.00000000000E+000,  0.10000000000E+001
  0.95796000000E+005,  0.10416244198E+007,  0.16500000000E+002,  0.00000000000E+000,  0.10000000000E+001
  0.95806000000E+005,  0.10416324168E+007,  0.16500000000E+002,  0.00000000000E+000,  0.10000000000E+001
  0.95816000000E+005,  0.10416439521E+007,  0.16500000000E+002,  0.00000000000E+000,  0.10000000000E+001
  0.95826000000E+005,  0.10416604776E+007,  0.16500000000E+002,  0.00000000000E+000,  0.10000000000E+001
  0.95836000000E+005,  0.10416838548E+007,  0.16500000000E+002,  0.00000000000E+000,  0.10000000000E+001
  0.95846000000E+005,  0.10417163840E+007,  0.16500000000E+002,  0.00000000000E+000,  0.10000000000E+001
  0.95856000000E+005,  0.10417608181E+007,  0.16500000000E+002,  0.00000000000E+000,  0.10000000000E+001
  0.95866000000E+005,  0.10418203623E+007,  0.16500000000E+002,  0.00000000000E+000,  0.10000000000E+001
  0.95876000000E+005,  0.10418986835E+007,  0.16500000000E+002,  0.00000000000E+000,  0.10000000000E+001
  0.95886000000E+005,  0.10420002341E+007,  0.16500000000E+002,  0.00000000000E+000,  0.10000000000E+001
  0.95896000000E+005,  0.10421307365E+007,  0.16500000000E+002,  0.00000000000E+000,  0.10000000000E+001
  0.95906000000E+005,  0.10422976744E+007,  0.16500000000E+002,  0.00000000000E+000,  0.10000000000E+001
  0.95916000000E+005,  0.10425107787E+007,  0.16500000000E+002,  0.00000000000E+000,  0.10000000000E+001
  0.95926000000E+005,  0.10427825189E+007,  0.16500000000E+002,  0.00000000000E+000,  0.10000000000E+001
  0.95936000000E+005,  0.10431430264E+007,  0.16500000000E+002,  0.00000000000E+000,  0.10000000000E+001
  0.95946000000E+005,  0.10436420540E+007,  0.16500000000E+002,  0.00000000000E+000,  0.10000000000E+001
  0.95956000000E+005,  0.10443422336E+007,  0.16500000000E+002,  0.00000000000E+000,  0.10000000000E+001
  0.95966000000E+005,  0.10453137935E+007,  0.16500000000E+002,  0.00000000000E+000,  0.10000000000E+001
  0.95976000000E+005,  0.10466309919E+007,  0.16500000000E+002,  0.00000000000E+000,  0.10000000000E+001
  0.95986000000E+005,  0.10483634094E+007,  0.16500000000E+002,  0.00000000000E+000,  0.10000000000E+001
  0.95992600000E+005,  0.10497091234E+007,  0.16500000000E+002,  0.00000000000E+000,  0.10000000000E+001
