"           TIME(S)","              PRES","              TEMP","             SAT_G","             SAT_L"
  0.94860000000E+005,  0.10416050731E+007,  0.16500000000E+002,  0.00000000000E+000,  0.10000000000E+001
  0.94870000000E+005,  0.10416050741E+007,  0.16500000000E+002,  0.00000000000E+000,  0.10000000000E+001
  0.94920000000E+005,  0.10416050813E+007,  0.16500000000E+002,  0.00000000000E+000,  0.10000000000E+001
  0.94980000000E+005,  0.10416050896E+007,  0.16500000000E+002,  0.00000000000E+000,  0.10000000000E+001
  0.95040000000E+005,  0.10416050966E+007,  0.16500000000E+002,  0.00000000000E+000,  0.10000000000E+001
  0.95100000000E+005,  0.10416051022E+007,  0.16500000000E+002,  0.00000000000E+000,  0.10000000000E+001
  0.95128100000E+005,  0.10416051045E+007,  0.16500000000E+002,  0.00000000000E+000,  0.10000000000E+001
  0.95188100000E+005,  0.10416051085E+007,  0.16500000000E+002,  0.00000000000E+000,  0.10000000000E+001
  0.95248100000E+005,  0.10416051118E+007,  0.16500000000E+002,  0.00000000000E+000,  0.10000000000E+001
  0.95308100000E+005,  0.10416051145E+007,  0.16500000000E+002,  0.00000000000E+000,  0.10000000000E+001
  0.95368100000E+005,  0.10416051171E+007,  0.16500000000E+002,  0.00000000000E+000,  0.10000000000E+001
  0.95398200000E+005,  0.10416051185E+007,  0.16500000000E+002,  0.00000000000E+000,  0.10000000000E+001
  0.95458200000E+005,  0.10416051233E+007,  0.16500000000E+002,  0.00000000000E+000,  0.10000000000E+001
  0.95518200000E+005,  0.10416051420E+007,  0.16500000000E+002,  0.00000000000E+000,  0.10000000000E+001
  0.95578200000E+005,  0.10416052460E+007,  0.16500000000E+002,  0.00000000000E+000,  0.10000000000E+001
  0.95638200000E+005,  0.10416058454E+007,  0.16500000000E+002,  0.00000000000E+000,  0.10000000000E+001
  0.95668300000E+005,  0.10416063654E+007,  0.16500000000E+002,  0.00000000000E+000,  0.10000000000E+001
  0.95728300000E+005,  0.10416124323E+007,  0.16500000000E+002,  0.00000000000E+000,  0.10000000000E+001
  0.95788300000E+005,  0.10416366851E+007,  0.16500000000E+002,  0.00000000000E+000,  0.10000000000E+001
  0.95848300000E+005,  0.10417115959E+007,  0.16500000000E+002,  0.00000000000E+000,  0.10000000000E+001
  0.95908300000E+005,  0.10419799598E+007,  0.16500000000E+002,  0.00000000000E+000,  0.10000000000E+001
  0.95938400000E+005,  0.10422305899E+007,  0.16500000000E+002,  0.00000000000E+000,  0.10000000000E+001
  0.95998400000E+005,  0.10443363312E+007,  0.16500000000E+002,  0.00000000000E+000,  0.10000000000E+001
  0.96058400000E+005,  0.10494804440E+007,  0.16500000000E+002,  0.00000000000E+000,  0.10000000000E+001
  0.96118400000E+005,  0.10616036961E+007,  0.16500000000E+002,  0.00000000000E+000,  0.10000000000E+001
  0.96178400000E+005,  0.10996953244E+007,  0.16500000000E+002,  0.00000000000E+000,  0.10000000000E+001
  0.96208500000E+005,  0.11474264444E+007,  0.16500000000E+002,  0.00000000000E+000,  0.10000000000E+001
  0.96268500000E+005,  0.14477013530E+007,  0.16500000000E+002,  0.00000000000E+000,  0.10000000000E+001
  0.96328500000E+005,  0.19363537171E+007,  0.16500000000E+002,  0.00000000000E+000,  0.10000000000E+001
  0.96388500000E+005,  0.24073612080E+007,  0.16500000000E+002,  0.00000000000E+000,  0.10000000000E+001
  0.96448500000E+005,  0.27772593367E+007,  0.16500000000E+002,  0.00000000000E+000,  0.10000000000E+001
  0.96478600000E+005,  0.29552149482E+007,  0.16500000000E+002,  0.00000000000E+000,  0.10000000000E+001
  0.96538600000E+005,  0.32642607704E+007,  0.16500000000E+002,  0.00000000000E+000,  0.10000000000E+001
  0.96598600000E+005,  0.34797723440E+007,  0.16500000000E+002,  0.00000000000E+000,  0.10000000000E+001
  0.96658600000E+005,  0.35785494149E+007,  0.16500000000E+002,  0.00000000000E+000,  0.10000000000E+001
  0.96718600000E+005,  0.36146206685E+007,  0.16500000000E+002,  0.00000000000E+000,  0.10000000000E+001
  0.96748700000E+005,  0.36235078846E+007,  0.16500000000E+002,  0.00000000000E+000,  0.10000000000E+001
  0.96808700000E+005,  0.36938363773E+007,  0.16500000000E+002,  0.00000000000E+000,  0.10000000000E+001
  0.96868700000E+005,  0.37514010999E+007,  0.16500000000E+002,  0.00000000000E+000,  0.10000000000E+001
