"           TIME(S)","              PRES","              TEMP","             SAT_G","             SAT_L"
  0.94900500000E+005,  0.97428499535E+006,  0.16500000000E+002,  0.00000000000E+000,  0.10000000000E+001
  0.94903000000E+005,  0.97428499532E+006,  0.16500000000E+002,  0.00000000000E+000,  0.10000000000E+001
  0.94913000000E+005,  0.97428499519E+006,  0.16500000000E+002,  0.00000000000E+000,  0.10000000000E+001
  0.94923000000E+005,  0.97428499505E+006,  0.16500000000E+002,  0.00000000000E+000,  0.10000000000E+001
  0.94933000000E+005,  0.97428499492E+006,  0.16500000000E+002,  0.00000000000E+000,  0.10000000000E+001
  0.94943000000E+005,  0.97428499479E+006,  0.16500000000E+002,  0.00000000000E+000,  0.10000000000E+001
  0.94953000000E+005,  0.97428499465E+006,  0.16500000000E+002,  0.00000000000E+000,  0.10000000000E+001
  0.94963000000E+005,  0.97428499452E+006,  0.16500000000E+002,  0.00000000000E+000,  0.10000000000E+001
  0.94973000000E+005,  0.97428499439E+006,  0.16500000000E+002,  0.00000000000E+000,  0.10000000000E+001
  0.94983000000E+005,  0.97428499426E+006,  0.16500000000E+002,  0.00000000000E+000,  0.10000000000E+001
  0.94993000000E+005,  0.97428499412E+006,  0.16500000000E+002,  0.00000000000E+000,  0.10000000000E+001
  0.95003000000E+005,  0.97428499399E+006,  0.16500000000E+002,  0.00000000000E+000,  0.10000000000E+001
  0.95013000000E+005,  0.97428499386E+006,  0.16500000000E+002,  0.00000000000E+000,  0.10000000000E+001
  0.95023000000E+005,  0.97428499373E+006,  0.16500000000E+002,  0.00000000000E+000,  0.10000000000E+001
  0.95033000000E+005,  0.97428499359E+006,  0.16500000000E+002,  0.00000000000E+000,  0.10000000000E+001
  0.95043000000E+005,  0.97428499346E+006,  0.16500000000E+002,  0.00000000000E+000,  0.10000000000E+001
  0.95053000000E+005,  0.97428499333E+006,  0.16500000000E+002,  0.00000000000E+000,  0.10000000000E+001
  0.95063000000E+005,  0.97428499320E+006,  0.16500000000E+002,  0.00000000000E+000,  0.10000000000E+001
  0.95073000000E+005,  0.97428499307E+006,  0.16500000000E+002,  0.00000000000E+000,  0.10000000000E+001
  0.95083000000E+005,  0.97428499294E+006,  0.16500000000E+002,  0.00000000000E+000,  0.10000000000E+001
  0.95093000000E+005,  0.97428499280E+006,  0.16500000000E+002,  0.00000000000E+000,  0.10000000000E+001
  0.95103000000E+005,  0.97428499267E+006,  0.16500000000E+002,  0.00000000000E+000,  0.10000000000E+001
  0.95113000000E+005,  0.97428499254E+006,  0.16500000000E+002,  0.00000000000E+000,  0.10000000000E+001
  0.95123000000E+005,  0.97428499241E+006,  0.16500000000E+002,  0.00000000000E+000,  0.10000000000E+001
  0.95133000000E+005,  0.97428499228E+006,  0.16500000000E+002,  0.00000000000E+000,  0.10000000000E+001
  0.95143000000E+005,  0.97428499215E+006,  0.16500000000E+002,  0.00000000000E+000,  0.10000000000E+001
  0.95153000000E+005,  0.97428499202E+006,  0.16500000000E+002,  0.00000000000E+000,  0.10000000000E+001
  0.95163000000E+005,  0.97428499189E+006,  0.16500000000E+002,  0.00000000000E+000,  0.10000000000E+001
  0.95173000000E+005,  0.97428499176E+006,  0.16500000000E+002,  0.00000000000E+000,  0.10000000000E+001
  0.95183000000E+005,  0.97428499162E+006,  0.16500000000E+002,  0.00000000000E+000,  0.10000000000E+001
  0.95193000000E+005,  0.97428499149E+006,  0.16500000000E+002,  0.00000000000E+000,  0.10000000000E+001
  0.95203000000E+005,  0.97428499136E+006,  0.16500000000E+002,  0.00000000000E+000,  0.10000000000E+001
  0.95203500000E+005,  0.97428499135E+006,  0.16500000000E+002,  0.00000000000E+000,  0.10000000000E+001
  0.95206000000E+005,  0.97428499132E+006,  0.16500000000E+002,  0.00000000000E+000,  0.10000000000E+001
  0.95218500000E+005,  0.97428499116E+006,  0.16500000000E+002,  0.00000000000E+000,  0.10000000000E+001
  0.95278500000E+005,  0.97428499038E+006,  0.16500000000E+002,  0.00000000000E+000,  0.10000000000E+001
  0.95338500000E+005,  0.97428498960E+006,  0.16500000000E+002,  0.00000000000E+000,  0.10000000000E+001
  0.95398500000E+005,  0.97428498883E+006,  0.16500000000E+002,  0.00000000000E+000,  0.10000000000E+001
  0.95458500000E+005,  0.97428498806E+006,  0.16500000000E+002,  0.00000000000E+000,  0.10000000000E+001
