"           TIME(S)","              PRES","              TEMP","             SAT_G","             SAT_L"
  0.94895500000E+005,  0.97664392952E+006,  0.16500000000E+002,  0.00000000000E+000,  0.10000000000E+001
  0.94896500000E+005,  0.97664392948E+006,  0.16500000000E+002,  0.00000000000E+000,  0.10000000000E+001
  0.94897500000E+005,  0.97664392944E+006,  0.16500000000E+002,  0.00000000000E+000,  0.10000000000E+001
  0.94898500000E+005,  0.97664392939E+006,  0.16500000000E+002,  0.00000000000E+000,  0.10000000000E+001
  0.94899500000E+005,  0.97664392935E+006,  0.16500000000E+002,  0.00000000000E+000,  0.10000000000E+001
  0.94900500000E+005,  0.97664392930E+006,  0.16500000000E+002,  0.00000000000E+000,  0.10000000000E+001
  0.94901500000E+005,  0.97664392926E+006,  0.16500000000E+002,  0.00000000000E+000,  0.10000000000E+001
  0.94902500000E+005,  0.97664392921E+006,  0.16500000000E+002,  0.00000000000E+000,  0.10000000000E+001
  0.94903500000E+005,  0.97664392917E+006,  0.16500000000E+002,  0.00000000000E+000,  0.10000000000E+001
  0.94904500000E+005,  0.97664392912E+006,  0.16500000000E+002,  0.00000000000E+000,  0.10000000000E+001
  0.94905500000E+005,  0.97664392908E+006,  0.16500000000E+002,  0.00000000000E+000,  0.10000000000E+001
  0.94906500000E+005,  0.97664392903E+006,  0.16500000000E+002,  0.00000000000E+000,  0.10000000000E+001
  0.94907500000E+005,  0.97664392899E+006,  0.16500000000E+002,  0.00000000000E+000,  0.10000000000E+001
  0.94908500000E+005,  0.97664392894E+006,  0.16500000000E+002,  0.00000000000E+000,  0.10000000000E+001
  0.94909500000E+005,  0.97664392890E+006,  0.16500000000E+002,  0.00000000000E+000,  0.10000000000E+001
  0.94910500000E+005,  0.97664392885E+006,  0.16500000000E+002,  0.00000000000E+000,  0.10000000000E+001
  0.94911500000E+005,  0.97664392881E+006,  0.16500000000E+002,  0.00000000000E+000,  0.10000000000E+001
  0.94912500000E+005,  0.97664392876E+006,  0.16500000000E+002,  0.00000000000E+000,  0.10000000000E+001
  0.94913500000E+005,  0.97664392872E+006,  0.16500000000E+002,  0.00000000000E+000,  0.10000000000E+001
  0.94914500000E+005,  0.97664392867E+006,  0.16500000000E+002,  0.00000000000E+000,  0.10000000000E+001
  0.94915500000E+005,  0.97664392862E+006,  0.16500000000E+002,  0.00000000000E+000,  0.10000000000E+001
  0.94916500000E+005,  0.97664392858E+006,  0.16500000000E+002,  0.00000000000E+000,  0.10000000000E+001
  0.94917500000E+005,  0.97664392853E+006,  0.16500000000E+002,  0.00000000000E+000,  0.10000000000E+001
  0.94918500000E+005,  0.97664392849E+006,  0.16500000000E+002,  0.00000000000E+000,  0.10000000000E+001
  0.94919500000E+005,  0.97664392844E+006,  0.16500000000E+002,  0.00000000000E+000,  0.10000000000E+001
  0.94920500000E+005,  0.97664392839E+006,  0.16500000000E+002,  0.00000000000E+000,  0.10000000000E+001
  0.94921500000E+005,  0.97664392835E+006,  0.16500000000E+002,  0.00000000000E+000,  0.10000000000E+001
  0.94922500000E+005,  0.97664392830E+006,  0.16500000000E+002,  0.00000000000E+000,  0.10000000000E+001
  0.94923500000E+005,  0.97664392826E+006,  0.16500000000E+002,  0.00000000000E+000,  0.10000000000E+001
  0.94924500000E+005,  0.97664392821E+006,  0.16500000000E+002,  0.00000000000E+000,  0.10000000000E+001
  0.94925500000E+005,  0.97664392816E+006,  0.16500000000E+002,  0.00000000000E+000,  0.10000000000E+001
  0.94926500000E+005,  0.97664392812E+006,  0.16500000000E+002,  0.00000000000E+000,  0.10000000000E+001
  0.94927500000E+005,  0.97664392807E+006,  0.16500000000E+002,  0.00000000000E+000,  0.10000000000E+001
  0.94928500000E+005,  0.97664392802E+006,  0.16500000000E+002,  0.00000000000E+000,  0.10000000000E+001
  0.94929500000E+005,  0.97664392798E+006,  0.16500000000E+002,  0.00000000000E+000,  0.10000000000E+001
  0.94930500000E+005,  0.97664392793E+006,  0.16500000000E+002,  0.00000000000E+000,  0.10000000000E+001
  0.94931500000E+005,  0.97664392789E+006,  0.16500000000E+002,  0.00000000000E+000,  0.10000000000E+001
  0.94932500000E+005,  0.97664392784E+006,  0.16500000000E+002,  0.00000000000E+000,  0.10000000000E+001
  0.94933500000E+005,  0.97664392779E+006,  0.16500000000E+002,  0.00000000000E+000,  0.10000000000E+001
  0.94934500000E+005,  0.97664392774E+006,  0.16500000000E+002,  0.00000000000E+000,  0.10000000000E+001
  0.94935500000E+005,  0.97664392770E+006,  0.16500000000E+002,  0.00000000000E+000,  0.10000000000E+001
  0.94936500000E+005,  0.97664392765E+006,  0.16500000000E+002,  0.00000000000E+000,  0.10000000000E+001
  0.94937500000E+005,  0.97664392760E+006,  0.16500000000E+002,  0.00000000000E+000,  0.10000000000E+001
  0.94938500000E+005,  0.97664392756E+006,  0.16500000000E+002,  0.00000000000E+000,  0.10000000000E+001
  0.94939500000E+005,  0.97664392751E+006,  0.16500000000E+002,  0.00000000000E+000,  0.10000000000E+001
  0.94940500000E+005,  0.97664392746E+006,  0.16500000000E+002,  0.00000000000E+000,  0.10000000000E+001
  0.94941500000E+005,  0.97664392742E+006,  0.16500000000E+002,  0.00000000000E+000,  0.10000000000E+001
  0.94942500000E+005,  0.97664392737E+006,  0.16500000000E+002,  0.00000000000E+000,  0.10000000000E+001
  0.94943500000E+005,  0.97664392732E+006,  0.16500000000E+002,  0.00000000000E+000,  0.10000000000E+001
  0.94944500000E+005,  0.97664392727E+006,  0.16500000000E+002,  0.00000000000E+000,  0.10000000000E+001
  0.94945500000E+005,  0.97664392723E+006,  0.16500000000E+002,  0.00000000000E+000,  0.10000000000E+001
  0.94946500000E+005,  0.97664392718E+006,  0.16500000000E+002,  0.00000000000E+000,  0.10000000000E+001
  0.94947500000E+005,  0.97664392713E+006,  0.16500000000E+002,  0.00000000000E+000,  0.10000000000E+001
  0.94948500000E+005,  0.97664392708E+006,  0.16500000000E+002,  0.00000000000E+000,  0.10000000000E+001
  0.94949500000E+005,  0.97664392704E+006,  0.16500000000E+002,  0.00000000000E+000,  0.10000000000E+001
  0.94950500000E+005,  0.97664392699E+006,  0.16500000000E+002,  0.00000000000E+000,  0.10000000000E+001
  0.94951500000E+005,  0.97664392694E+006,  0.16500000000E+002,  0.00000000000E+000,  0.10000000000E+001
  0.94952500000E+005,  0.97664392690E+006,  0.16500000000E+002,  0.00000000000E+000,  0.10000000000E+001
  0.94953500000E+005,  0.97664392685E+006,  0.16500000000E+002,  0.00000000000E+000,  0.10000000000E+001
  0.94954500000E+005,  0.97664392680E+006,  0.16500000000E+002,  0.00000000000E+000,  0.10000000000E+001
  0.94955500000E+005,  0.97664392675E+006,  0.16500000000E+002,  0.00000000000E+000,  0.10000000000E+001
  0.94956500000E+005,  0.97664392670E+006,  0.16500000000E+002,  0.00000000000E+000,  0.10000000000E+001
  0.94957500000E+005,  0.97664392665E+006,  0.16500000000E+002,  0.00000000000E+000,  0.10000000000E+001
  0.94958500000E+005,  0.97664392661E+006,  0.16500000000E+002,  0.00000000000E+000,  0.10000000000E+001
  0.94959500000E+005,  0.97664392656E+006,  0.16500000000E+002,  0.00000000000E+000,  0.10000000000E+001
  0.94960500000E+005,  0.97664392651E+006,  0.16500000000E+002,  0.00000000000E+000,  0.10000000000E+001
  0.94961500000E+005,  0.97664392646E+006,  0.16500000000E+002,  0.00000000000E+000,  0.10000000000E+001
  0.94962500000E+005,  0.97664392641E+006,  0.16500000000E+002,  0.00000000000E+000,  0.10000000000E+001
  0.94963500000E+005,  0.97664392636E+006,  0.16500000000E+002,  0.00000000000E+000,  0.10000000000E+001
  0.94964500000E+005,  0.97664392632E+006,  0.16500000000E+002,  0.00000000000E+000,  0.10000000000E+001
  0.94965500000E+005,  0.97664392627E+006,  0.16500000000E+002,  0.00000000000E+000,  0.10000000000E+001
  0.94966500000E+005,  0.97664392622E+006,  0.16500000000E+002,  0.00000000000E+000,  0.10000000000E+001
  0.94967500000E+005,  0.97664392617E+006,  0.16500000000E+002,  0.00000000000E+000,  0.10000000000E+001
  0.94968500000E+005,  0.97664392612E+006,  0.16500000000E+002,  0.00000000000E+000,  0.10000000000E+001
  0.94969500000E+005,  0.97664392607E+006,  0.16500000000E+002,  0.00000000000E+000,  0.10000000000E+001
  0.94970500000E+005,  0.97664392603E+006,  0.16500000000E+002,  0.00000000000E+000,  0.10000000000E+001
  0.94971500000E+005,  0.97664392598E+006,  0.16500000000E+002,  0.00000000000E+000,  0.10000000000E+001
  0.94972500000E+005,  0.97664392593E+006,  0.16500000000E+002,  0.00000000000E+000,  0.10000000000E+001
  0.94973500000E+005,  0.97664392588E+006,  0.16500000000E+002,  0.00000000000E+000,  0.10000000000E+001
  0.94974500000E+005,  0.97664392583E+006,  0.16500000000E+002,  0.00000000000E+000,  0.10000000000E+001
  0.94975500000E+005,  0.97664392578E+006,  0.16500000000E+002,  0.00000000000E+000,  0.10000000000E+001
  0.94976500000E+005,  0.97664392573E+006,  0.16500000000E+002,  0.00000000000E+000,  0.10000000000E+001
  0.94977500000E+005,  0.97664392568E+006,  0.16500000000E+002,  0.00000000000E+000,  0.10000000000E+001
  0.94978500000E+005,  0.97664392564E+006,  0.16500000000E+002,  0.00000000000E+000,  0.10000000000E+001
  0.94979500000E+005,  0.97664392559E+006,  0.16500000000E+002,  0.00000000000E+000,  0.10000000000E+001
  0.94980500000E+005,  0.97664392554E+006,  0.16500000000E+002,  0.00000000000E+000,  0.10000000000E+001
  0.94981500000E+005,  0.97664392549E+006,  0.16500000000E+002,  0.00000000000E+000,  0.10000000000E+001
  0.94982500000E+005,  0.97664392544E+006,  0.16500000000E+002,  0.00000000000E+000,  0.10000000000E+001
  0.94983500000E+005,  0.97664392539E+006,  0.16500000000E+002,  0.00000000000E+000,  0.10000000000E+001
  0.94984500000E+005,  0.97664392534E+006,  0.16500000000E+002,  0.00000000000E+000,  0.10000000000E+001
  0.94985500000E+005,  0.97664392529E+006,  0.16500000000E+002,  0.00000000000E+000,  0.10000000000E+001
  0.94986500000E+005,  0.97664392524E+006,  0.16500000000E+002,  0.00000000000E+000,  0.10000000000E+001
  0.94987500000E+005,  0.97664392519E+006,  0.16500000000E+002,  0.00000000000E+000,  0.10000000000E+001
  0.94988500000E+005,  0.97664392514E+006,  0.16500000000E+002,  0.00000000000E+000,  0.10000000000E+001
  0.94989500000E+005,  0.97664392509E+006,  0.16500000000E+002,  0.00000000000E+000,  0.10000000000E+001
  0.94990500000E+005,  0.97664392504E+006,  0.16500000000E+002,  0.00000000000E+000,  0.10000000000E+001
  0.94991500000E+005,  0.97664392500E+006,  0.16500000000E+002,  0.00000000000E+000,  0.10000000000E+001
  0.94992500000E+005,  0.97664392495E+006,  0.16500000000E+002,  0.00000000000E+000,  0.10000000000E+001
  0.94993500000E+005,  0.97664392490E+006,  0.16500000000E+002,  0.00000000000E+000,  0.10000000000E+001
  0.94994500000E+005,  0.97664392485E+006,  0.16500000000E+002,  0.00000000000E+000,  0.10000000000E+001
  0.94995500000E+005,  0.97664392480E+006,  0.16500000000E+002,  0.00000000000E+000,  0.10000000000E+001
  0.94996500000E+005,  0.97664392475E+006,  0.16500000000E+002,  0.00000000000E+000,  0.10000000000E+001
  0.94997500000E+005,  0.97664392470E+006,  0.16500000000E+002,  0.00000000000E+000,  0.10000000000E+001
  0.94998500000E+005,  0.97664392465E+006,  0.16500000000E+002,  0.00000000000E+000,  0.10000000000E+001
  0.94999500000E+005,  0.97664392460E+006,  0.16500000000E+002,  0.00000000000E+000,  0.10000000000E+001
  0.95000500000E+005,  0.97664392455E+006,  0.16500000000E+002,  0.00000000000E+000,  0.10000000000E+001
  0.95001500000E+005,  0.97664392450E+006,  0.16500000000E+002,  0.00000000000E+000,  0.10000000000E+001
  0.95002500000E+005,  0.97664392445E+006,  0.16500000000E+002,  0.00000000000E+000,  0.10000000000E+001
  0.95003500000E+005,  0.97664392440E+006,  0.16500000000E+002,  0.00000000000E+000,  0.10000000000E+001
  0.95004500000E+005,  0.97664392435E+006,  0.16500000000E+002,  0.00000000000E+000,  0.10000000000E+001
  0.95005500000E+005,  0.97664392430E+006,  0.16500000000E+002,  0.00000000000E+000,  0.10000000000E+001
  0.95006500000E+005,  0.97664392425E+006,  0.16500000000E+002,  0.00000000000E+000,  0.10000000000E+001
  0.95007500000E+005,  0.97664392420E+006,  0.16500000000E+002,  0.00000000000E+000,  0.10000000000E+001
  0.95008500000E+005,  0.97664392415E+006,  0.16500000000E+002,  0.00000000000E+000,  0.10000000000E+001
  0.95009500000E+005,  0.97664392410E+006,  0.16500000000E+002,  0.00000000000E+000,  0.10000000000E+001
  0.95010500000E+005,  0.97664392405E+006,  0.16500000000E+002,  0.00000000000E+000,  0.10000000000E+001
  0.95011500000E+005,  0.97664392400E+006,  0.16500000000E+002,  0.00000000000E+000,  0.10000000000E+001
  0.95012500000E+005,  0.97664392395E+006,  0.16500000000E+002,  0.00000000000E+000,  0.10000000000E+001
  0.95013500000E+005,  0.97664392390E+006,  0.16500000000E+002,  0.00000000000E+000,  0.10000000000E+001
