"           TIME(S)","              PRES","              TEMP","             SAT_G","             SAT_L"
  0.94878500000E+005,  0.99872444494E+006,  0.16500000000E+002,  0.00000000000E+000,  0.10000000000E+001
  0.94879500000E+005,  0.99872444494E+006,  0.16500000000E+002,  0.00000000000E+000,  0.10000000000E+001
  0.94880500000E+005,  0.99872444494E+006,  0.16500000000E+002,  0.00000000000E+000,  0.10000000000E+001
  0.94881500000E+005,  0.99872444494E+006,  0.16500000000E+002,  0.00000000000E+000,  0.10000000000E+001
  0.94882500000E+005,  0.11386943820E+007,  0.16500000000E+002,  0.00000000000E+000,  0.10000000000E+001
  0.94883500000E+005,  0.12875203548E+007,  0.16500000000E+002,  0.00000000000E+000,  0.10000000000E+001
  0.94884500000E+005,  0.14362597221E+007,  0.16500000000E+002,  0.00000000000E+000,  0.10000000000E+001
  0.94885500000E+005,  0.15849116746E+007,  0.16500000000E+002,  0.00000000000E+000,  0.10000000000E+001
  0.94886500000E+005,  0.17334742710E+007,  0.16500000000E+002,  0.00000000000E+000,  0.10000000000E+001
  0.94887500000E+005,  0.18819454077E+007,  0.16500000000E+002,  0.00000000000E+000,  0.10000000000E+001
  0.94888500000E+005,  0.20303228030E+007,  0.16500000000E+002,  0.00000000000E+000,  0.10000000000E+001
  0.94889500000E+005,  0.21786040152E+007,  0.16500000000E+002,  0.00000000000E+000,  0.10000000000E+001
  0.94890500000E+005,  0.23267863608E+007,  0.16500000000E+002,  0.00000000000E+000,  0.10000000000E+001
  0.94891500000E+005,  0.24748670079E+007,  0.16500000000E+002,  0.00000000000E+000,  0.10000000000E+001
  0.94892500000E+005,  0.26228429642E+007,  0.16500000000E+002,  0.00000000000E+000,  0.10000000000E+001
  0.94893500000E+005,  0.27707108761E+007,  0.16500000000E+002,  0.00000000000E+000,  0.10000000000E+001
  0.94894500000E+005,  0.29184672457E+007,  0.16500000000E+002,  0.00000000000E+000,  0.10000000000E+001
  0.94895500000E+005,  0.30661080614E+007,  0.16500000000E+002,  0.00000000000E+000,  0.10000000000E+001
  0.94896500000E+005,  0.32136292265E+007,  0.16500000000E+002,  0.00000000000E+000,  0.10000000000E+001
  0.94897500000E+005,  0.33610262869E+007,  0.16500000000E+002,  0.00000000000E+000,  0.10000000000E+001
  0.94898500000E+005,  0.35083023299E+007,  0.16500000000E+002,  0.00000000000E+000,  0.10000000000E+001
  0.94899500000E+005,  0.36554431763E+007,  0.16500000000E+002,  0.00000000000E+000,  0.10000000000E+001
  0.94900500000E+005,  0.38024446747E+007,  0.16500000000E+002,  0.00000000000E+000,  0.10000000000E+001
  0.94901500000E+005,  0.39493002664E+007,  0.16500000000E+002,  0.00000000000E+000,  0.10000000000E+001
  0.94902500000E+005,  0.40960034199E+007,  0.16500000000E+002,  0.00000000000E+000,  0.10000000000E+001
  0.94903500000E+005,  0.42425469447E+007,  0.16500000000E+002,  0.00000000000E+000,  0.10000000000E+001
  0.94904500000E+005,  0.43889225503E+007,  0.16500000000E+002,  0.00000000000E+000,  0.10000000000E+001
  0.94905500000E+005,  0.45351221267E+007,  0.16500000000E+002,  0.00000000000E+000,  0.10000000000E+001
  0.94906500000E+005,  0.46811348893E+007,  0.16500000000E+002,  0.00000000000E+000,  0.10000000000E+001
  0.94907500000E+005,  0.48269418664E+007,  0.16500000000E+002,  0.00000000000E+000,  0.10000000000E+001
  0.94908500000E+005,  0.49725239195E+007,  0.16500000000E+002,  0.00000000000E+000,  0.10000000000E+001
  0.94909500000E+005,  0.51178570373E+007,  0.16500000000E+002,  0.00000000000E+000,  0.10000000000E+001
  0.94910500000E+005,  0.52629159987E+007,  0.16500000000E+002,  0.00000000000E+000,  0.10000000000E+001
  0.94911500000E+005,  0.54076692527E+007,  0.16500000000E+002,  0.00000000000E+000,  0.10000000000E+001
  0.94912500000E+005,  0.55520758039E+007,  0.16500000000E+002,  0.00000000000E+000,  0.10000000000E+001
  0.94913500000E+005,  0.56971041911E+007,  0.16500000000E+002,  0.00000000000E+000,  0.10000000000E+001
  0.94914500000E+005,  0.58409094682E+007,  0.16500000000E+002,  0.00000000000E+000,  0.10000000000E+001
  0.94915500000E+005,  0.59854823171E+007,  0.16500000000E+002,  0.00000000000E+000,  0.10000000000E+001
  0.94916500000E+005,  0.62688772224E+007,  0.16500000000E+002,  0.00000000000E+000,  0.10000000000E+001
  0.94917500000E+005,  0.64349599948E+007,  0.16500000000E+002,  0.00000000000E+000,  0.10000000000E+001
  0.94918500000E+005,  0.65921099108E+007,  0.16500000000E+002,  0.00000000000E+000,  0.10000000000E+001
  0.94919500000E+005,  0.67480777829E+007,  0.16500000000E+002,  0.00000000000E+000,  0.10000000000E+001
  0.94920500000E+005,  0.69026497027E+007,  0.16500000000E+002,  0.00000000000E+000,  0.10000000000E+001
  0.94921500000E+005,  0.70407479303E+007,  0.16500000000E+002,  0.00000000000E+000,  0.10000000000E+001
  0.94922500000E+005,  0.71638633793E+007,  0.16500000000E+002,  0.00000000000E+000,  0.10000000000E+001
  0.94923500000E+005,  0.72804920451E+007,  0.16500000000E+002,  0.00000000000E+000,  0.10000000000E+001
  0.94924500000E+005,  0.75054251176E+007,  0.16500000000E+002,  0.00000000000E+000,  0.10000000000E+001
  0.94925500000E+005,  0.76876024061E+007,  0.16500000000E+002,  0.00000000000E+000,  0.10000000000E+001
  0.94926500000E+005,  0.78607790919E+007,  0.16500000000E+002,  0.00000000000E+000,  0.10000000000E+001
  0.94927500000E+005,  0.81009075126E+007,  0.16500000000E+002,  0.00000000000E+000,  0.10000000000E+001
  0.94928500000E+005,  0.83308576841E+007,  0.16500000000E+002,  0.00000000000E+000,  0.10000000000E+001
  0.94929500000E+005,  0.85557147923E+007,  0.16500000000E+002,  0.00000000000E+000,  0.10000000000E+001
  0.94930500000E+005,  0.88452354131E+007,  0.16500000000E+002,  0.00000000000E+000,  0.10000000000E+001
  0.94931500000E+005,  0.91947282563E+007,  0.16500000000E+002,  0.00000000000E+000,  0.10000000000E+001
  0.94932500000E+005,  0.96048654547E+007,  0.16500000000E+002,  0.00000000000E+000,  0.10000000000E+001
  0.94933500000E+005,  0.10060610582E+008,  0.16500000000E+002,  0.00000000000E+000,  0.10000000000E+001
  0.94934500000E+005,  0.10497112777E+008,  0.16500000000E+002,  0.00000000000E+000,  0.10000000000E+001
  0.94935500000E+005,  0.10942626100E+008,  0.16500000000E+002,  0.00000000000E+000,  0.10000000000E+001
  0.94936500000E+005,  0.11378946574E+008,  0.16500000000E+002,  0.00000000000E+000,  0.10000000000E+001
  0.94937500000E+005,  0.11792440755E+008,  0.16500000000E+002,  0.00000000000E+000,  0.10000000000E+001
  0.94938500000E+005,  0.12180937826E+008,  0.16500000000E+002,  0.00000000000E+000,  0.10000000000E+001
  0.94939500000E+005,  0.12523040868E+008,  0.16500000000E+002,  0.00000000000E+000,  0.10000000000E+001
  0.94940500000E+005,  0.12780971025E+008,  0.16500000000E+002,  0.00000000000E+000,  0.10000000000E+001
  0.94941500000E+005,  0.12994383875E+008,  0.16500000000E+002,  0.00000000000E+000,  0.10000000000E+001
  0.94942500000E+005,  0.13151970813E+008,  0.16500000000E+002,  0.00000000000E+000,  0.10000000000E+001
  0.94943500000E+005,  0.13246804097E+008,  0.16500000000E+002,  0.00000000000E+000,  0.10000000000E+001
  0.94944500000E+005,  0.13297865222E+008,  0.16500000000E+002,  0.00000000000E+000,  0.10000000000E+001
  0.94945500000E+005,  0.13309214328E+008,  0.16500000000E+002,  0.00000000000E+000,  0.10000000000E+001
  0.94946500000E+005,  0.13410559209E+008,  0.16500000000E+002,  0.00000000000E+000,  0.10000000000E+001
  0.94947500000E+005,  0.13477452281E+008,  0.16500000000E+002,  0.00000000000E+000,  0.10000000000E+001
  0.94948500000E+005,  0.13481929045E+008,  0.16500000000E+002,  0.00000000000E+000,  0.10000000000E+001
  0.94949500000E+005,  0.13403492781E+008,  0.16500000000E+002,  0.00000000000E+000,  0.10000000000E+001
  0.94950500000E+005,  0.13307340719E+008,  0.16500000000E+002,  0.00000000000E+000,  0.10000000000E+001
  0.94951500000E+005,  0.13197815923E+008,  0.16500000000E+002,  0.00000000000E+000,  0.10000000000E+001
  0.94952500000E+005,  0.13090171219E+008,  0.16500000000E+002,  0.00000000000E+000,  0.10000000000E+001
  0.94953500000E+005,  0.12966677590E+008,  0.16500000000E+002,  0.00000000000E+000,  0.10000000000E+001
  0.94954500000E+005,  0.12848593794E+008,  0.16500000000E+002,  0.00000000000E+000,  0.10000000000E+001
  0.94955500000E+005,  0.12693736240E+008,  0.16500000000E+002,  0.00000000000E+000,  0.10000000000E+001
  0.94956500000E+005,  0.12538678008E+008,  0.16500000000E+002,  0.00000000000E+000,  0.10000000000E+001
  0.94957500000E+005,  0.12395666822E+008,  0.16500000000E+002,  0.00000000000E+000,  0.10000000000E+001
  0.94958500000E+005,  0.12267843231E+008,  0.16500000000E+002,  0.00000000000E+000,  0.10000000000E+001
  0.94959500000E+005,  0.12161756144E+008,  0.16500000000E+002,  0.00000000000E+000,  0.10000000000E+001
  0.94960500000E+005,  0.12067848248E+008,  0.16500000000E+002,  0.00000000000E+000,  0.10000000000E+001
  0.94961500000E+005,  0.11979240626E+008,  0.16500000000E+002,  0.00000000000E+000,  0.10000000000E+001
  0.94962500000E+005,  0.11888827648E+008,  0.16500000000E+002,  0.00000000000E+000,  0.10000000000E+001
  0.94963500000E+005,  0.11794246260E+008,  0.16500000000E+002,  0.00000000000E+000,  0.10000000000E+001
  0.94964500000E+005,  0.11696753685E+008,  0.16500000000E+002,  0.00000000000E+000,  0.10000000000E+001
  0.94965500000E+005,  0.11599664302E+008,  0.16500000000E+002,  0.00000000000E+000,  0.10000000000E+001
  0.94966500000E+005,  0.11504032977E+008,  0.16500000000E+002,  0.00000000000E+000,  0.10000000000E+001
  0.94967500000E+005,  0.11413222135E+008,  0.16500000000E+002,  0.00000000000E+000,  0.10000000000E+001
  0.94968500000E+005,  0.11330162761E+008,  0.16500000000E+002,  0.00000000000E+000,  0.10000000000E+001
  0.94969500000E+005,  0.11255877592E+008,  0.16500000000E+002,  0.00000000000E+000,  0.10000000000E+001
  0.94970500000E+005,  0.11189063595E+008,  0.16500000000E+002,  0.00000000000E+000,  0.10000000000E+001
  0.94971500000E+005,  0.11129006816E+008,  0.16500000000E+002,  0.00000000000E+000,  0.10000000000E+001
  0.94972500000E+005,  0.11075146339E+008,  0.16500000000E+002,  0.00000000000E+000,  0.10000000000E+001
  0.94973500000E+005,  0.11025684860E+008,  0.16500000000E+002,  0.00000000000E+000,  0.10000000000E+001
  0.94974500000E+005,  0.10980436569E+008,  0.16500000000E+002,  0.00000000000E+000,  0.10000000000E+001
  0.94975500000E+005,  0.10939972002E+008,  0.16500000000E+002,  0.00000000000E+000,  0.10000000000E+001
  0.94976500000E+005,  0.10904802689E+008,  0.16500000000E+002,  0.00000000000E+000,  0.10000000000E+001
  0.94977500000E+005,  0.10873181810E+008,  0.16500000000E+002,  0.00000000000E+000,  0.10000000000E+001
  0.94978500000E+005,  0.10844011347E+008,  0.16500000000E+002,  0.00000000000E+000,  0.10000000000E+001
  0.94979500000E+005,  0.10815962353E+008,  0.16500000000E+002,  0.00000000000E+000,  0.10000000000E+001
  0.94980500000E+005,  0.10788551794E+008,  0.16500000000E+002,  0.00000000000E+000,  0.10000000000E+001
  0.94981500000E+005,  0.10760475037E+008,  0.16500000000E+002,  0.00000000000E+000,  0.10000000000E+001
  0.94982500000E+005,  0.10731142929E+008,  0.16500000000E+002,  0.00000000000E+000,  0.10000000000E+001
  0.94983500000E+005,  0.10700616556E+008,  0.16500000000E+002,  0.00000000000E+000,  0.10000000000E+001
  0.94984500000E+005,  0.10669137196E+008,  0.16500000000E+002,  0.00000000000E+000,  0.10000000000E+001
  0.94985500000E+005,  0.10637394015E+008,  0.16500000000E+002,  0.00000000000E+000,  0.10000000000E+001
  0.94986500000E+005,  0.10603840515E+008,  0.16500000000E+002,  0.00000000000E+000,  0.10000000000E+001
  0.94987500000E+005,  0.10568089713E+008,  0.16500000000E+002,  0.00000000000E+000,  0.10000000000E+001
  0.94988500000E+005,  0.10530207239E+008,  0.16500000000E+002,  0.00000000000E+000,  0.10000000000E+001
  0.94989500000E+005,  0.10487709213E+008,  0.16500000000E+002,  0.00000000000E+000,  0.10000000000E+001
  0.94990500000E+005,  0.10435048456E+008,  0.16500000000E+002,  0.00000000000E+000,  0.10000000000E+001
  0.94991500000E+005,  0.10361722236E+008,  0.16500000000E+002,  0.00000000000E+000,  0.10000000000E+001
  0.94992500000E+005,  0.10294278578E+008,  0.16500000000E+002,  0.00000000000E+000,  0.10000000000E+001
  0.94993500000E+005,  0.10241528530E+008,  0.16500000000E+002,  0.00000000000E+000,  0.10000000000E+001
  0.94994500000E+005,  0.10214993264E+008,  0.16500000000E+002,  0.00000000000E+000,  0.10000000000E+001
  0.94995500000E+005,  0.10202421302E+008,  0.16500000000E+002,  0.00000000000E+000,  0.10000000000E+001
  0.94996500000E+005,  0.10168897279E+008,  0.16500000000E+002,  0.00000000000E+000,  0.10000000000E+001
  0.94997500000E+005,  0.10128172906E+008,  0.16500000000E+002,  0.00000000000E+000,  0.10000000000E+001
  0.94998500000E+005,  0.10085749654E+008,  0.16500000000E+002,  0.00000000000E+000,  0.10000000000E+001
  0.94999500000E+005,  0.10039308028E+008,  0.16500000000E+002,  0.00000000000E+000,  0.10000000000E+001
  0.95000500000E+005,  0.99918397666E+007,  0.16500000000E+002,  0.00000000000E+000,  0.10000000000E+001
  0.95001500000E+005,  0.99480576309E+007,  0.16500000000E+002,  0.00000000000E+000,  0.10000000000E+001
  0.95002500000E+005,  0.99167509025E+007,  0.16500000000E+002,  0.00000000000E+000,  0.10000000000E+001
  0.95003500000E+005,  0.98993277700E+007,  0.16500000000E+002,  0.00000000000E+000,  0.10000000000E+001
  0.95004500000E+005,  0.98900985352E+007,  0.16500000000E+002,  0.00000000000E+000,  0.10000000000E+001
  0.95005500000E+005,  0.98782972376E+007,  0.16500000000E+002,  0.00000000000E+000,  0.10000000000E+001
  0.95006500000E+005,  0.98591800597E+007,  0.16500000000E+002,  0.00000000000E+000,  0.10000000000E+001
  0.95007500000E+005,  0.98360014123E+007,  0.16500000000E+002,  0.00000000000E+000,  0.10000000000E+001
  0.95008500000E+005,  0.98146476779E+007,  0.16500000000E+002,  0.00000000000E+000,  0.10000000000E+001
  0.95009500000E+005,  0.97982660258E+007,  0.16500000000E+002,  0.00000000000E+000,  0.10000000000E+001
  0.95010500000E+005,  0.97884674104E+007,  0.16500000000E+002,  0.00000000000E+000,  0.10000000000E+001
  0.95011500000E+005,  0.97857487254E+007,  0.16500000000E+002,  0.00000000000E+000,  0.10000000000E+001
  0.95012500000E+005,  0.97878159148E+007,  0.16500000000E+002,  0.00000000000E+000,  0.10000000000E+001
  0.95013500000E+005,  0.97920129380E+007,  0.16500000000E+002,  0.00000000000E+000,  0.10000000000E+001
  0.95014500000E+005,  0.97963390191E+007,  0.16500000000E+002,  0.00000000000E+000,  0.10000000000E+001
  0.95015500000E+005,  0.97984971886E+007,  0.16500000000E+002,  0.00000000000E+000,  0.10000000000E+001
  0.95016500000E+005,  0.97958732862E+007,  0.16500000000E+002,  0.00000000000E+000,  0.10000000000E+001
  0.95017500000E+005,  0.97867666890E+007,  0.16500000000E+002,  0.00000000000E+000,  0.10000000000E+001
  0.95018500000E+005,  0.97718627822E+007,  0.16500000000E+002,  0.00000000000E+000,  0.10000000000E+001
  0.95019500000E+005,  0.97523070962E+007,  0.16500000000E+002,  0.00000000000E+000,  0.10000000000E+001
  0.95020500000E+005,  0.97286789879E+007,  0.16500000000E+002,  0.00000000000E+000,  0.10000000000E+001
  0.95021500000E+005,  0.97103957875E+007,  0.16500000000E+002,  0.00000000000E+000,  0.10000000000E+001
  0.95022500000E+005,  0.96904078570E+007,  0.16500000000E+002,  0.00000000000E+000,  0.10000000000E+001
  0.95023500000E+005,  0.96698438843E+007,  0.16500000000E+002,  0.00000000000E+000,  0.10000000000E+001
  0.95024500000E+005,  0.96473189441E+007,  0.16500000000E+002,  0.00000000000E+000,  0.10000000000E+001
  0.95025500000E+005,  0.96363437070E+007,  0.16500000000E+002,  0.00000000000E+000,  0.10000000000E+001
  0.95026500000E+005,  0.96321528887E+007,  0.16500000000E+002,  0.00000000000E+000,  0.10000000000E+001
  0.95027500000E+005,  0.96317960328E+007,  0.16500000000E+002,  0.00000000000E+000,  0.10000000000E+001
  0.95028500000E+005,  0.96346780194E+007,  0.16500000000E+002,  0.00000000000E+000,  0.10000000000E+001
  0.95029500000E+005,  0.96395677472E+007,  0.16500000000E+002,  0.00000000000E+000,  0.10000000000E+001
  0.95030500000E+005,  0.96453449996E+007,  0.16500000000E+002,  0.00000000000E+000,  0.10000000000E+001
  0.95031500000E+005,  0.96513896590E+007,  0.16500000000E+002,  0.00000000000E+000,  0.10000000000E+001
  0.95032500000E+005,  0.96573152751E+007,  0.16500000000E+002,  0.00000000000E+000,  0.10000000000E+001
  0.95033500000E+005,  0.96629758061E+007,  0.16500000000E+002,  0.00000000000E+000,  0.10000000000E+001
  0.95034500000E+005,  0.96684420165E+007,  0.16500000000E+002,  0.00000000000E+000,  0.10000000000E+001
  0.95035500000E+005,  0.96735960921E+007,  0.16500000000E+002,  0.00000000000E+000,  0.10000000000E+001
  0.95036500000E+005,  0.96783717001E+007,  0.16500000000E+002,  0.00000000000E+000,  0.10000000000E+001
  0.95037500000E+005,  0.96828739886E+007,  0.16500000000E+002,  0.00000000000E+000,  0.10000000000E+001
  0.95038500000E+005,  0.96871146882E+007,  0.16500000000E+002,  0.00000000000E+000,  0.10000000000E+001
  0.95039500000E+005,  0.96910143850E+007,  0.16500000000E+002,  0.00000000000E+000,  0.10000000000E+001
  0.95040500000E+005,  0.96947231099E+007,  0.16500000000E+002,  0.00000000000E+000,  0.10000000000E+001
  0.95041500000E+005,  0.96982918902E+007,  0.16500000000E+002,  0.00000000000E+000,  0.10000000000E+001
  0.95042500000E+005,  0.97017557806E+007,  0.16500000000E+002,  0.00000000000E+000,  0.10000000000E+001
  0.95043500000E+005,  0.97051004153E+007,  0.16500000000E+002,  0.00000000000E+000,  0.10000000000E+001
  0.95044500000E+005,  0.97083230200E+007,  0.16500000000E+002,  0.00000000000E+000,  0.10000000000E+001
  0.95045500000E+005,  0.97114126860E+007,  0.16500000000E+002,  0.00000000000E+000,  0.10000000000E+001
  0.95046500000E+005,  0.97144453658E+007,  0.16500000000E+002,  0.00000000000E+000,  0.10000000000E+001
  0.95047500000E+005,  0.97174219311E+007,  0.16500000000E+002,  0.00000000000E+000,  0.10000000000E+001
  0.95048500000E+005,  0.97204275560E+007,  0.16500000000E+002,  0.00000000000E+000,  0.10000000000E+001
  0.95049500000E+005,  0.97233561957E+007,  0.16500000000E+002,  0.00000000000E+000,  0.10000000000E+001
  0.95050500000E+005,  0.97262215799E+007,  0.16500000000E+002,  0.00000000000E+000,  0.10000000000E+001
  0.95051500000E+005,  0.97289254055E+007,  0.16500000000E+002,  0.00000000000E+000,  0.10000000000E+001
  0.95052500000E+005,  0.97314245041E+007,  0.16500000000E+002,  0.00000000000E+000,  0.10000000000E+001
  0.95053500000E+005,  0.97336036868E+007,  0.16500000000E+002,  0.00000000000E+000,  0.10000000000E+001
  0.95054500000E+005,  0.97354327222E+007,  0.16500000000E+002,  0.00000000000E+000,  0.10000000000E+001
  0.95055500000E+005,  0.97368637068E+007,  0.16500000000E+002,  0.00000000000E+000,  0.10000000000E+001
  0.95056500000E+005,  0.97377981389E+007,  0.16500000000E+002,  0.00000000000E+000,  0.10000000000E+001
  0.95057500000E+005,  0.97382234550E+007,  0.16500000000E+002,  0.00000000000E+000,  0.10000000000E+001
  0.95058500000E+005,  0.97381370576E+007,  0.16500000000E+002,  0.00000000000E+000,  0.10000000000E+001
  0.95059500000E+005,  0.97375531469E+007,  0.16500000000E+002,  0.00000000000E+000,  0.10000000000E+001
  0.95060500000E+005,  0.97364784788E+007,  0.16500000000E+002,  0.00000000000E+000,  0.10000000000E+001
  0.95061500000E+005,  0.97349121756E+007,  0.16500000000E+002,  0.00000000000E+000,  0.10000000000E+001
  0.95062500000E+005,  0.97329317649E+007,  0.16500000000E+002,  0.00000000000E+000,  0.10000000000E+001
  0.95063500000E+005,  0.97305775852E+007,  0.16500000000E+002,  0.00000000000E+000,  0.10000000000E+001
  0.95064500000E+005,  0.97278432091E+007,  0.16500000000E+002,  0.00000000000E+000,  0.10000000000E+001
  0.95065500000E+005,  0.97247916558E+007,  0.16500000000E+002,  0.00000000000E+000,  0.10000000000E+001
  0.95066500000E+005,  0.97214480135E+007,  0.16500000000E+002,  0.00000000000E+000,  0.10000000000E+001
