"           TIME(S)","              PRES","              TEMP","             SAT_G","             SAT_L"
  0.94900000000E+005,  0.18190561985E+007,  0.16500000000E+002,  0.00000000000E+000,  0.10000000000E+001
  0.94902500000E+005,  0.28394887846E+007,  0.16500000000E+002,  0.00000000000E+000,  0.10000000000E+001
  0.94905000000E+005,  0.38469064261E+007,  0.16500000000E+002,  0.00000000000E+000,  0.10000000000E+001
  0.94907500000E+005,  0.48335716007E+007,  0.16500000000E+002,  0.00000000000E+000,  0.10000000000E+001
  0.94910000000E+005,  0.57856858655E+007,  0.16500000000E+002,  0.00000000000E+000,  0.10000000000E+001
  0.94912500000E+005,  0.66703981247E+007,  0.16500000000E+002,  0.00000000000E+000,  0.10000000000E+001
  0.94915000000E+005,  0.74108037913E+007,  0.16500000000E+002,  0.00000000000E+000,  0.10000000000E+001
  0.94917500000E+005,  0.82614943352E+007,  0.16500000000E+002,  0.00000000000E+000,  0.10000000000E+001
  0.94920000000E+005,  0.83066086885E+007,  0.16500000000E+002,  0.00000000000E+000,  0.10000000000E+001
  0.94922500000E+005,  0.82076629120E+007,  0.16500000000E+002,  0.00000000000E+000,  0.10000000000E+001
  0.94925000000E+005,  0.84605406652E+007,  0.16500000000E+002,  0.00000000000E+000,  0.10000000000E+001
  0.94927500000E+005,  0.86248869623E+007,  0.16500000000E+002,  0.00000000000E+000,  0.10000000000E+001
  0.94930000000E+005,  0.86562578020E+007,  0.16500000000E+002,  0.00000000000E+000,  0.10000000000E+001
  0.94932500000E+005,  0.91490916768E+007,  0.16500000000E+002,  0.00000000000E+000,  0.10000000000E+001
  0.94935000000E+005,  0.96106287870E+007,  0.16500000000E+002,  0.00000000000E+000,  0.10000000000E+001
  0.94937500000E+005,  0.93766762222E+007,  0.16500000000E+002,  0.00000000000E+000,  0.10000000000E+001
  0.94940000000E+005,  0.90941679009E+007,  0.16500000000E+002,  0.00000000000E+000,  0.10000000000E+001
  0.94942500000E+005,  0.87360482378E+007,  0.16500000000E+002,  0.00000000000E+000,  0.10000000000E+001
  0.94945000000E+005,  0.84617480515E+007,  0.16500000000E+002,  0.00000000000E+000,  0.10000000000E+001
  0.94947500000E+005,  0.84156552633E+007,  0.16500000000E+002,  0.00000000000E+000,  0.10000000000E+001
  0.94950000000E+005,  0.82646110248E+007,  0.16500000000E+002,  0.00000000000E+000,  0.10000000000E+001
  0.94952500000E+005,  0.81091199191E+007,  0.16500000000E+002,  0.00000000000E+000,  0.10000000000E+001
  0.94955000000E+005,  0.80565162590E+007,  0.16500000000E+002,  0.00000000000E+000,  0.10000000000E+001
  0.94957500000E+005,  0.80094933322E+007,  0.16500000000E+002,  0.00000000000E+000,  0.10000000000E+001
  0.94960000000E+005,  0.79825804873E+007,  0.16500000000E+002,  0.00000000000E+000,  0.10000000000E+001
  0.94962500000E+005,  0.79306933035E+007,  0.16500000000E+002,  0.00000000000E+000,  0.10000000000E+001
  0.94965000000E+005,  0.78402060914E+007,  0.16500000000E+002,  0.00000000000E+000,  0.10000000000E+001
  0.94967500000E+005,  0.77469701359E+007,  0.16500000000E+002,  0.00000000000E+000,  0.10000000000E+001
  0.94970000000E+005,  0.76952085417E+007,  0.16500000000E+002,  0.00000000000E+000,  0.10000000000E+001
  0.94972500000E+005,  0.76657811045E+007,  0.16500000000E+002,  0.00000000000E+000,  0.10000000000E+001
  0.94975000000E+005,  0.76338307187E+007,  0.16500000000E+002,  0.00000000000E+000,  0.10000000000E+001
  0.94977500000E+005,  0.76070031299E+007,  0.16500000000E+002,  0.00000000000E+000,  0.10000000000E+001
  0.94980000000E+005,  0.75795936962E+007,  0.16500000000E+002,  0.00000000000E+000,  0.10000000000E+001
  0.94982500000E+005,  0.75552140195E+007,  0.16500000000E+002,  0.00000000000E+000,  0.10000000000E+001
  0.94985000000E+005,  0.75234813519E+007,  0.16500000000E+002,  0.00000000000E+000,  0.10000000000E+001
  0.94987500000E+005,  0.74925982556E+007,  0.16500000000E+002,  0.00000000000E+000,  0.10000000000E+001
  0.94990000000E+005,  0.74663150037E+007,  0.16500000000E+002,  0.00000000000E+000,  0.10000000000E+001
  0.94992500000E+005,  0.74443799961E+007,  0.16500000000E+002,  0.00000000000E+000,  0.10000000000E+001
  0.94995000000E+005,  0.74479600113E+007,  0.16500000000E+002,  0.00000000000E+000,  0.10000000000E+001
  0.94997500000E+005,  0.74096866920E+007,  0.16500000000E+002,  0.00000000000E+000,  0.10000000000E+001
  0.95000000000E+005,  0.73785942641E+007,  0.16500000000E+002,  0.00000000000E+000,  0.10000000000E+001
  0.95002000000E+005,  0.73535944070E+007,  0.16500000000E+002,  0.00000000000E+000,  0.10000000000E+001
  0.95012000000E+005,  0.75570524434E+007,  0.16500000000E+002,  0.00000000000E+000,  0.10000000000E+001
  0.95022000000E+005,  0.75012652950E+007,  0.16500000000E+002,  0.00000000000E+000,  0.10000000000E+001
  0.95032000000E+005,  0.73966253803E+007,  0.16500000000E+002,  0.00000000000E+000,  0.10000000000E+001
  0.95042000000E+005,  0.73467903645E+007,  0.16500000000E+002,  0.00000000000E+000,  0.10000000000E+001
  0.95052000000E+005,  0.72949073875E+007,  0.16500000000E+002,  0.00000000000E+000,  0.10000000000E+001
  0.95062000000E+005,  0.72347456055E+007,  0.16500000000E+002,  0.00000000000E+000,  0.10000000000E+001
  0.95072000000E+005,  0.72503741726E+007,  0.16500000000E+002,  0.00000000000E+000,  0.10000000000E+001
  0.95082000000E+005,  0.72714008360E+007,  0.16500000000E+002,  0.00000000000E+000,  0.10000000000E+001
  0.95092000000E+005,  0.72970732443E+007,  0.16500000000E+002,  0.00000000000E+000,  0.10000000000E+001
  0.95102000000E+005,  0.73190041200E+007,  0.16500000000E+002,  0.00000000000E+000,  0.10000000000E+001
  0.95112000000E+005,  0.73231552487E+007,  0.16500000000E+002,  0.00000000000E+000,  0.10000000000E+001
  0.95122000000E+005,  0.73058508198E+007,  0.16500000000E+002,  0.00000000000E+000,  0.10000000000E+001
  0.95128100000E+005,  0.72487121200E+007,  0.16500000000E+002,  0.00000000000E+000,  0.10000000000E+001
  0.95138100000E+005,  0.72303771038E+007,  0.16500000000E+002,  0.00000000000E+000,  0.10000000000E+001
  0.95148100000E+005,  0.72259107841E+007,  0.16500000000E+002,  0.00000000000E+000,  0.10000000000E+001
  0.95158100000E+005,  0.72265508916E+007,  0.16500000000E+002,  0.00000000000E+000,  0.10000000000E+001
  0.95168100000E+005,  0.72135483302E+007,  0.16500000000E+002,  0.00000000000E+000,  0.10000000000E+001
  0.95178100000E+005,  0.72186903207E+007,  0.16500000000E+002,  0.00000000000E+000,  0.10000000000E+001
  0.95188100000E+005,  0.72397443783E+007,  0.16500000000E+002,  0.00000000000E+000,  0.10000000000E+001
  0.95198100000E+005,  0.72736625524E+007,  0.16500000000E+002,  0.00000000000E+000,  0.10000000000E+001
  0.95208100000E+005,  0.72980499916E+007,  0.16500000000E+002,  0.00000000000E+000,  0.10000000000E+001
  0.95218100000E+005,  0.73047293622E+007,  0.16500000000E+002,  0.00000000000E+000,  0.10000000000E+001
  0.95228100000E+005,  0.73019692497E+007,  0.16500000000E+002,  0.00000000000E+000,  0.10000000000E+001
  0.95238100000E+005,  0.72951975359E+007,  0.16500000000E+002,  0.00000000000E+000,  0.10000000000E+001
  0.95248100000E+005,  0.73094691122E+007,  0.16500000000E+002,  0.00000000000E+000,  0.10000000000E+001
  0.95258100000E+005,  0.72979309123E+007,  0.16500000000E+002,  0.00000000000E+000,  0.10000000000E+001
  0.95268100000E+005,  0.72726575091E+007,  0.16500000000E+002,  0.00000000000E+000,  0.10000000000E+001
  0.95278100000E+005,  0.72504564618E+007,  0.16500000000E+002,  0.00000000000E+000,  0.10000000000E+001
  0.95288100000E+005,  0.72383112667E+007,  0.16500000000E+002,  0.00000000000E+000,  0.10000000000E+001
  0.95298100000E+005,  0.72287736524E+007,  0.16500000000E+002,  0.00000000000E+000,  0.10000000000E+001
  0.95308100000E+005,  0.72192954058E+007,  0.16500000000E+002,  0.00000000000E+000,  0.10000000000E+001
  0.95318100000E+005,  0.72105193397E+007,  0.16500000000E+002,  0.00000000000E+000,  0.10000000000E+001
  0.95328100000E+005,  0.72026154906E+007,  0.16500000000E+002,  0.00000000000E+000,  0.10000000000E+001
  0.95338100000E+005,  0.71932331133E+007,  0.16500000000E+002,  0.00000000000E+000,  0.10000000000E+001
  0.95348100000E+005,  0.71815766866E+007,  0.16500000000E+002,  0.00000000000E+000,  0.10000000000E+001
  0.95358100000E+005,  0.71702888957E+007,  0.16500000000E+002,  0.00000000000E+000,  0.10000000000E+001
  0.95368100000E+005,  0.71589620760E+007,  0.16500000000E+002,  0.00000000000E+000,  0.10000000000E+001
  0.95378100000E+005,  0.71491911441E+007,  0.16500000000E+002,  0.00000000000E+000,  0.10000000000E+001
  0.95388100000E+005,  0.71459133144E+007,  0.16500000000E+002,  0.00000000000E+000,  0.10000000000E+001
  0.95398100000E+005,  0.71485836574E+007,  0.16500000000E+002,  0.00000000000E+000,  0.10000000000E+001
  0.95398200000E+005,  0.71549225315E+007,  0.16500000000E+002,  0.00000000000E+000,  0.10000000000E+001
  0.95408200000E+005,  0.71619800949E+007,  0.16500000000E+002,  0.00000000000E+000,  0.10000000000E+001
  0.95418200000E+005,  0.71717282295E+007,  0.16500000000E+002,  0.00000000000E+000,  0.10000000000E+001
  0.95428200000E+005,  0.71632948067E+007,  0.16500000000E+002,  0.00000000000E+000,  0.10000000000E+001
  0.95438200000E+005,  0.71489153486E+007,  0.16500000000E+002,  0.00000000000E+000,  0.10000000000E+001
  0.95448200000E+005,  0.71339420129E+007,  0.16500000000E+002,  0.00000000000E+000,  0.10000000000E+001
  0.95458200000E+005,  0.71197173762E+007,  0.16500000000E+002,  0.00000000000E+000,  0.10000000000E+001
  0.95468200000E+005,  0.71042043907E+007,  0.16500000000E+002,  0.00000000000E+000,  0.10000000000E+001
  0.95478200000E+005,  0.70906603412E+007,  0.16500000000E+002,  0.00000000000E+000,  0.10000000000E+001
  0.95488200000E+005,  0.70791953288E+007,  0.16500000000E+002,  0.00000000000E+000,  0.10000000000E+001
  0.95498200000E+005,  0.70699101521E+007,  0.16500000000E+002,  0.00000000000E+000,  0.10000000000E+001
  0.95508200000E+005,  0.70616355216E+007,  0.16500000000E+002,  0.00000000000E+000,  0.10000000000E+001
  0.95518200000E+005,  0.70530630885E+007,  0.16500000000E+002,  0.00000000000E+000,  0.10000000000E+001
  0.95528200000E+005,  0.70436650957E+007,  0.16500000000E+002,  0.00000000000E+000,  0.10000000000E+001
  0.95538200000E+005,  0.70339475759E+007,  0.16500000000E+002,  0.00000000000E+000,  0.10000000000E+001
  0.95548200000E+005,  0.70246171376E+007,  0.16500000000E+002,  0.00000000000E+000,  0.10000000000E+001
  0.95558200000E+005,  0.70147491868E+007,  0.16500000000E+002,  0.00000000000E+000,  0.10000000000E+001
  0.95568200000E+005,  0.70057943378E+007,  0.16500000000E+002,  0.00000000000E+000,  0.10000000000E+001
  0.95578200000E+005,  0.69970378844E+007,  0.16500000000E+002,  0.00000000000E+000,  0.10000000000E+001
  0.95588200000E+005,  0.69861316806E+007,  0.16500000000E+002,  0.00000000000E+000,  0.10000000000E+001
  0.95598200000E+005,  0.69763579995E+007,  0.16500000000E+002,  0.00000000000E+000,  0.10000000000E+001
  0.95608200000E+005,  0.69687518850E+007,  0.16500000000E+002,  0.00000000000E+000,  0.10000000000E+001
  0.95618200000E+005,  0.69622077845E+007,  0.16500000000E+002,  0.00000000000E+000,  0.10000000000E+001
  0.95628200000E+005,  0.69552870673E+007,  0.16500000000E+002,  0.00000000000E+000,  0.10000000000E+001
  0.95638200000E+005,  0.69461522685E+007,  0.16500000000E+002,  0.00000000000E+000,  0.10000000000E+001
  0.95648200000E+005,  0.69369388490E+007,  0.16500000000E+002,  0.00000000000E+000,  0.10000000000E+001
  0.95658200000E+005,  0.69278807664E+007,  0.16500000000E+002,  0.00000000000E+000,  0.10000000000E+001
  0.95668200000E+005,  0.69209049923E+007,  0.16500000000E+002,  0.00000000000E+000,  0.10000000000E+001
  0.95668300000E+005,  0.69185358906E+007,  0.16500000000E+002,  0.00000000000E+000,  0.10000000000E+001
  0.95678300000E+005,  0.69144281688E+007,  0.16500000000E+002,  0.00000000000E+000,  0.10000000000E+001
  0.95688300000E+005,  0.69097447336E+007,  0.16500000000E+002,  0.00000000000E+000,  0.10000000000E+001
  0.95698300000E+005,  0.69058646856E+007,  0.16500000000E+002,  0.00000000000E+000,  0.10000000000E+001
  0.95708300000E+005,  0.68998934431E+007,  0.16500000000E+002,  0.00000000000E+000,  0.10000000000E+001
  0.95718300000E+005,  0.68936661272E+007,  0.16500000000E+002,  0.00000000000E+000,  0.10000000000E+001
  0.95728300000E+005,  0.68884072025E+007,  0.16500000000E+002,  0.00000000000E+000,  0.10000000000E+001
  0.95738300000E+005,  0.68835541124E+007,  0.16500000000E+002,  0.00000000000E+000,  0.10000000000E+001
  0.95748300000E+005,  0.68786404332E+007,  0.16500000000E+002,  0.00000000000E+000,  0.10000000000E+001
