"           TIME(S)","              PRES","              TEMP","             SAT_G","             SAT_L"
  0.94860000000E+005,  0.99599004592E+006,  0.16500000000E+002,  0.00000000000E+000,  0.10000000000E+001
  0.94864000000E+005,  0.99599004592E+006,  0.16500000000E+002,  0.00000000000E+000,  0.10000000000E+001
  0.94868000000E+005,  0.99599004592E+006,  0.16500000000E+002,  0.00000000000E+000,  0.10000000000E+001
  0.94872000000E+005,  0.99599004592E+006,  0.16500000000E+002,  0.00000000000E+000,  0.10000000000E+001
  0.94876000000E+005,  0.99599004592E+006,  0.16500000000E+002,  0.00000000000E+000,  0.10000000000E+001
  0.94880000000E+005,  0.99599004592E+006,  0.16500000000E+002,  0.00000000000E+000,  0.10000000000E+001
  0.94884000000E+005,  0.13090562444E+007,  0.16500000000E+002,  0.00000000000E+000,  0.10000000000E+001
  0.94888000000E+005,  0.18158307797E+007,  0.16500000000E+002,  0.00000000000E+000,  0.10000000000E+001
  0.94892000000E+005,  0.23126039937E+007,  0.16500000000E+002,  0.00000000000E+000,  0.10000000000E+001
  0.94896000000E+005,  0.28000933269E+007,  0.16500000000E+002,  0.00000000000E+000,  0.10000000000E+001
  0.94900000000E+005,  0.32788071897E+007,  0.16500000000E+002,  0.00000000000E+000,  0.10000000000E+001
  0.94904000000E+005,  0.37490957903E+007,  0.16500000000E+002,  0.00000000000E+000,  0.10000000000E+001
  0.94908000000E+005,  0.42111164933E+007,  0.16500000000E+002,  0.00000000000E+000,  0.10000000000E+001
  0.94912000000E+005,  0.46610421263E+007,  0.16500000000E+002,  0.00000000000E+000,  0.10000000000E+001
  0.94916000000E+005,  0.51418039209E+007,  0.16500000000E+002,  0.00000000000E+000,  0.10000000000E+001
  0.94920000000E+005,  0.56439809547E+007,  0.16500000000E+002,  0.00000000000E+000,  0.10000000000E+001
  0.94924000000E+005,  0.59929171832E+007,  0.16500000000E+002,  0.00000000000E+000,  0.10000000000E+001
  0.94928000000E+005,  0.65405098568E+007,  0.16500000000E+002,  0.00000000000E+000,  0.10000000000E+001
  0.94932000000E+005,  0.74562698563E+007,  0.16500000000E+002,  0.00000000000E+000,  0.10000000000E+001
  0.94936000000E+005,  0.88425903127E+007,  0.16500000000E+002,  0.00000000000E+000,  0.10000000000E+001
  0.94940000000E+005,  0.91098310338E+007,  0.16500000000E+002,  0.00000000000E+000,  0.10000000000E+001
  0.94944000000E+005,  0.88626613417E+007,  0.16500000000E+002,  0.00000000000E+000,  0.10000000000E+001
  0.94948000000E+005,  0.87041420830E+007,  0.16500000000E+002,  0.00000000000E+000,  0.10000000000E+001
  0.94952000000E+005,  0.85779302516E+007,  0.16500000000E+002,  0.00000000000E+000,  0.10000000000E+001
  0.94956000000E+005,  0.84127875820E+007,  0.16500000000E+002,  0.00000000000E+000,  0.10000000000E+001
  0.94960000000E+005,  0.82567704643E+007,  0.16500000000E+002,  0.00000000000E+000,  0.10000000000E+001
  0.94962000000E+005,  0.81479409485E+007,  0.16500000000E+002,  0.00000000000E+000,  0.10000000000E+001
  0.94972000000E+005,  0.83811158765E+007,  0.16500000000E+002,  0.00000000000E+000,  0.10000000000E+001
  0.95022000000E+005,  0.10321303059E+008,  0.16500000000E+002,  0.00000000000E+000,  0.10000000000E+001
  0.95102000000E+005,  0.97146462940E+007,  0.16500000000E+002,  0.00000000000E+000,  0.10000000000E+001
  0.95128100000E+005,  0.83309931995E+007,  0.16500000000E+002,  0.00000000000E+000,  0.10000000000E+001
  0.95208100000E+005,  0.84446081668E+007,  0.16500000000E+002,  0.00000000000E+000,  0.10000000000E+001
  0.95288100000E+005,  0.83623717365E+007,  0.16500000000E+002,  0.00000000000E+000,  0.10000000000E+001
  0.95368100000E+005,  0.83050834578E+007,  0.16500000000E+002,  0.00000000000E+000,  0.10000000000E+001
  0.95398200000E+005,  0.81280663651E+007,  0.16500000000E+002,  0.00000000000E+000,  0.10000000000E+001
  0.95478200000E+005,  0.82038715108E+007,  0.16500000000E+002,  0.00000000000E+000,  0.10000000000E+001
  0.95558200000E+005,  0.81210607726E+007,  0.16500000000E+002,  0.00000000000E+000,  0.10000000000E+001
  0.95638200000E+005,  0.80271167493E+007,  0.16500000000E+002,  0.00000000000E+000,  0.10000000000E+001
  0.95668300000E+005,  0.79430512357E+007,  0.16500000000E+002,  0.00000000000E+000,  0.10000000000E+001
