"           TIME(S)","              PRES","              TEMP","             SAT_G","             SAT_L"
  0.94860000000E+005,  0.99952876315E+006,  0.16500000000E+002,  0.00000000000E+000,  0.10000000000E+001
  0.94870000000E+005,  0.99952876310E+006,  0.16500000000E+002,  0.00000000000E+000,  0.10000000000E+001
  0.94872000000E+005,  0.99952876305E+006,  0.16500000000E+002,  0.00000000000E+000,  0.10000000000E+001
  0.94874500000E+005,  0.99952876303E+006,  0.16500000000E+002,  0.00000000000E+000,  0.10000000000E+001
  0.94877000000E+005,  0.99952876302E+006,  0.16500000000E+002,  0.00000000000E+000,  0.10000000000E+001
  0.94879500000E+005,  0.99952876302E+006,  0.16500000000E+002,  0.00000000000E+000,  0.10000000000E+001
  0.94882000000E+005,  0.11804346670E+007,  0.16500000000E+002,  0.00000000000E+000,  0.10000000000E+001
  0.94884500000E+005,  0.22066768980E+007,  0.16500000000E+002,  0.00000000000E+000,  0.10000000000E+001
  0.94887000000E+005,  0.32234771379E+007,  0.16500000000E+002,  0.00000000000E+000,  0.10000000000E+001
  0.94889500000E+005,  0.42263593003E+007,  0.16500000000E+002,  0.00000000000E+000,  0.10000000000E+001
  0.94892000000E+005,  0.52075878425E+007,  0.16500000000E+002,  0.00000000000E+000,  0.10000000000E+001
  0.94894500000E+005,  0.61522638102E+007,  0.16500000000E+002,  0.00000000000E+000,  0.10000000000E+001
  0.94897000000E+005,  0.70064556346E+007,  0.16500000000E+002,  0.00000000000E+000,  0.10000000000E+001
  0.94899500000E+005,  0.76417686645E+007,  0.16500000000E+002,  0.00000000000E+000,  0.10000000000E+001
  0.94902000000E+005,  0.79576409082E+007,  0.16500000000E+002,  0.00000000000E+000,  0.10000000000E+001
  0.94904500000E+005,  0.79782841068E+007,  0.16500000000E+002,  0.00000000000E+000,  0.10000000000E+001
  0.94907000000E+005,  0.80025680355E+007,  0.16500000000E+002,  0.00000000000E+000,  0.10000000000E+001
  0.94909500000E+005,  0.80968808590E+007,  0.16500000000E+002,  0.00000000000E+000,  0.10000000000E+001
  0.94912000000E+005,  0.79949282679E+007,  0.16500000000E+002,  0.00000000000E+000,  0.10000000000E+001
  0.94914500000E+005,  0.77326967852E+007,  0.16500000000E+002,  0.00000000000E+000,  0.10000000000E+001
  0.94917000000E+005,  0.78113921498E+007,  0.16500000000E+002,  0.00000000000E+000,  0.10000000000E+001
  0.94919500000E+005,  0.76981688670E+007,  0.16500000000E+002,  0.00000000000E+000,  0.10000000000E+001
  0.94922000000E+005,  0.75446107876E+007,  0.16500000000E+002,  0.00000000000E+000,  0.10000000000E+001
  0.94924500000E+005,  0.74706567980E+007,  0.16500000000E+002,  0.00000000000E+000,  0.10000000000E+001
  0.94927000000E+005,  0.75146678951E+007,  0.16500000000E+002,  0.00000000000E+000,  0.10000000000E+001
  0.94929500000E+005,  0.77344633871E+007,  0.16500000000E+002,  0.00000000000E+000,  0.10000000000E+001
  0.94932000000E+005,  0.82044834825E+007,  0.16500000000E+002,  0.00000000000E+000,  0.10000000000E+001
  0.94934500000E+005,  0.86748459013E+007,  0.16500000000E+002,  0.00000000000E+000,  0.10000000000E+001
  0.94937000000E+005,  0.86161956896E+007,  0.16500000000E+002,  0.00000000000E+000,  0.10000000000E+001
  0.94939500000E+005,  0.84278665119E+007,  0.16500000000E+002,  0.00000000000E+000,  0.10000000000E+001
  0.94942000000E+005,  0.81712400180E+007,  0.16500000000E+002,  0.00000000000E+000,  0.10000000000E+001
  0.94944500000E+005,  0.79485046247E+007,  0.16500000000E+002,  0.00000000000E+000,  0.10000000000E+001
  0.94947000000E+005,  0.78809525012E+007,  0.16500000000E+002,  0.00000000000E+000,  0.10000000000E+001
  0.94949500000E+005,  0.78418577709E+007,  0.16500000000E+002,  0.00000000000E+000,  0.10000000000E+001
  0.94952000000E+005,  0.78006201710E+007,  0.16500000000E+002,  0.00000000000E+000,  0.10000000000E+001
  0.94954500000E+005,  0.78471231469E+007,  0.16500000000E+002,  0.00000000000E+000,  0.10000000000E+001
  0.94957000000E+005,  0.78509551830E+007,  0.16500000000E+002,  0.00000000000E+000,  0.10000000000E+001
  0.94959500000E+005,  0.77947603636E+007,  0.16500000000E+002,  0.00000000000E+000,  0.10000000000E+001
  0.94962000000E+005,  0.77138140002E+007,  0.16500000000E+002,  0.00000000000E+000,  0.10000000000E+001
