"           TIME(S)","              PRES","              TEMP","             SAT_G","             SAT_L"
  0.94878500000E+005,  0.97428499536E+006,  0.16500000000E+002,  0.00000000000E+000,  0.10000000000E+001
  0.94881000000E+005,  0.97428499533E+006,  0.16500000000E+002,  0.00000000000E+000,  0.10000000000E+001
  0.94891000000E+005,  0.97428499523E+006,  0.16500000000E+002,  0.00000000000E+000,  0.10000000000E+001
  0.94901000000E+005,  0.97428499513E+006,  0.16500000000E+002,  0.00000000000E+000,  0.10000000000E+001
  0.94911000000E+005,  0.97428499502E+006,  0.16500000000E+002,  0.00000000000E+000,  0.10000000000E+001
  0.94921000000E+005,  0.97428499492E+006,  0.16500000000E+002,  0.00000000000E+000,  0.10000000000E+001
  0.94931000000E+005,  0.97428499481E+006,  0.16500000000E+002,  0.00000000000E+000,  0.10000000000E+001
  0.94941000000E+005,  0.97428499471E+006,  0.16500000000E+002,  0.00000000000E+000,  0.10000000000E+001
  0.94951000000E+005,  0.97428499461E+006,  0.16500000000E+002,  0.00000000000E+000,  0.10000000000E+001
  0.94961000000E+005,  0.97428499450E+006,  0.16500000000E+002,  0.00000000000E+000,  0.10000000000E+001
  0.94971000000E+005,  0.97428499440E+006,  0.16500000000E+002,  0.00000000000E+000,  0.10000000000E+001
  0.94981000000E+005,  0.97428499430E+006,  0.16500000000E+002,  0.00000000000E+000,  0.10000000000E+001
  0.94991000000E+005,  0.97428499419E+006,  0.16500000000E+002,  0.00000000000E+000,  0.10000000000E+001
  0.95001000000E+005,  0.97428499409E+006,  0.16500000000E+002,  0.00000000000E+000,  0.10000000000E+001
  0.95011000000E+005,  0.97428499399E+006,  0.16500000000E+002,  0.00000000000E+000,  0.10000000000E+001
  0.95021000000E+005,  0.97428499388E+006,  0.16500000000E+002,  0.00000000000E+000,  0.10000000000E+001
  0.95031000000E+005,  0.97428499378E+006,  0.16500000000E+002,  0.00000000000E+000,  0.10000000000E+001
  0.95041000000E+005,  0.97428499368E+006,  0.16500000000E+002,  0.00000000000E+000,  0.10000000000E+001
  0.95051000000E+005,  0.97428499357E+006,  0.16500000000E+002,  0.00000000000E+000,  0.10000000000E+001
  0.95061000000E+005,  0.97428499347E+006,  0.16500000000E+002,  0.00000000000E+000,  0.10000000000E+001
  0.95071000000E+005,  0.97428499337E+006,  0.16500000000E+002,  0.00000000000E+000,  0.10000000000E+001
  0.95081000000E+005,  0.97428499327E+006,  0.16500000000E+002,  0.00000000000E+000,  0.10000000000E+001
  0.95091000000E+005,  0.97428499316E+006,  0.16500000000E+002,  0.00000000000E+000,  0.10000000000E+001
  0.95101000000E+005,  0.97428499306E+006,  0.16500000000E+002,  0.00000000000E+000,  0.10000000000E+001
  0.95111000000E+005,  0.97428499296E+006,  0.16500000000E+002,  0.00000000000E+000,  0.10000000000E+001
  0.95121000000E+005,  0.97428499285E+006,  0.16500000000E+002,  0.00000000000E+000,  0.10000000000E+001
  0.95131000000E+005,  0.97428499275E+006,  0.16500000000E+002,  0.00000000000E+000,  0.10000000000E+001
  0.95141000000E+005,  0.97428499265E+006,  0.16500000000E+002,  0.00000000000E+000,  0.10000000000E+001
  0.95151000000E+005,  0.97428499255E+006,  0.16500000000E+002,  0.00000000000E+000,  0.10000000000E+001
  0.95161000000E+005,  0.97428499244E+006,  0.16500000000E+002,  0.00000000000E+000,  0.10000000000E+001
  0.95171000000E+005,  0.97428499234E+006,  0.16500000000E+002,  0.00000000000E+000,  0.10000000000E+001
  0.95181000000E+005,  0.97428499224E+006,  0.16500000000E+002,  0.00000000000E+000,  0.10000000000E+001
  0.95191000000E+005,  0.97428499213E+006,  0.16500000000E+002,  0.00000000000E+000,  0.10000000000E+001
  0.95201000000E+005,  0.97428499203E+006,  0.16500000000E+002,  0.00000000000E+000,  0.10000000000E+001
  0.95201500000E+005,  0.97428499202E+006,  0.16500000000E+002,  0.00000000000E+000,  0.10000000000E+001
  0.95204000000E+005,  0.97428499200E+006,  0.16500000000E+002,  0.00000000000E+000,  0.10000000000E+001
  0.95216500000E+005,  0.97428499187E+006,  0.16500000000E+002,  0.00000000000E+000,  0.10000000000E+001
  0.95276500000E+005,  0.97428499125E+006,  0.16500000000E+002,  0.00000000000E+000,  0.10000000000E+001
  0.95336500000E+005,  0.97428499063E+006,  0.16500000000E+002,  0.00000000000E+000,  0.10000000000E+001
  0.95396500000E+005,  0.97428499001E+006,  0.16500000000E+002,  0.00000000000E+000,  0.10000000000E+001
  0.95456500000E+005,  0.97428498939E+006,  0.16500000000E+002,  0.00000000000E+000,  0.10000000000E+001
  0.95516500000E+005,  0.97428498877E+006,  0.16500000000E+002,  0.00000000000E+000,  0.10000000000E+001
  0.95576500000E+005,  0.97428498815E+006,  0.16500000000E+002,  0.00000000000E+000,  0.10000000000E+001
  0.95636500000E+005,  0.97428498753E+006,  0.16500000000E+002,  0.00000000000E+000,  0.10000000000E+001
  0.95696500000E+005,  0.97428498691E+006,  0.16500000000E+002,  0.00000000000E+000,  0.10000000000E+001
  0.95756500000E+005,  0.97428498628E+006,  0.16500000000E+002,  0.00000000000E+000,  0.10000000000E+001
  0.95816500000E+005,  0.97428498565E+006,  0.16500000000E+002,  0.00000000000E+000,  0.10000000000E+001
  0.95876500000E+005,  0.97428498503E+006,  0.16500000000E+002,  0.00000000000E+000,  0.10000000000E+001
  0.95936500000E+005,  0.97428498440E+006,  0.16500000000E+002,  0.00000000000E+000,  0.10000000000E+001
  0.95996500000E+005,  0.97428498377E+006,  0.16500000000E+002,  0.00000000000E+000,  0.10000000000E+001
  0.96056500000E+005,  0.97428498313E+006,  0.16500000000E+002,  0.00000000000E+000,  0.10000000000E+001
  0.96116500000E+005,  0.97428498250E+006,  0.16500000000E+002,  0.00000000000E+000,  0.10000000000E+001
  0.96176500000E+005,  0.97428498186E+006,  0.16500000000E+002,  0.00000000000E+000,  0.10000000000E+001
  0.96194400000E+005,  0.97428498167E+006,  0.16500000000E+002,  0.00000000000E+000,  0.10000000000E+001
  0.96254400000E+005,  0.97428498103E+006,  0.16500000000E+002,  0.00000000000E+000,  0.10000000000E+001
  0.96314400000E+005,  0.97428498039E+006,  0.16500000000E+002,  0.00000000000E+000,  0.10000000000E+001
  0.96374400000E+005,  0.97428497975E+006,  0.16500000000E+002,  0.00000000000E+000,  0.10000000000E+001
  0.96434400000E+005,  0.97428497910E+006,  0.16500000000E+002,  0.00000000000E+000,  0.10000000000E+001
  0.96494400000E+005,  0.97428497845E+006,  0.16500000000E+002,  0.00000000000E+000,  0.10000000000E+001
  0.96554400000E+005,  0.97428497779E+006,  0.16500000000E+002,  0.00000000000E+000,  0.10000000000E+001
  0.96614400000E+005,  0.97428497713E+006,  0.16500000000E+002,  0.00000000000E+000,  0.10000000000E+001
  0.96674400000E+005,  0.97428497643E+006,  0.16500000000E+002,  0.00000000000E+000,  0.10000000000E+001
  0.96734400000E+005,  0.97428497556E+006,  0.16500000000E+002,  0.00000000000E+000,  0.10000000000E+001
  0.96794400000E+005,  0.97428497413E+006,  0.16500000000E+002,  0.00000000000E+000,  0.10000000000E+001
  0.96854400000E+005,  0.97428497129E+006,  0.16500000000E+002,  0.00000000000E+000,  0.10000000000E+001
  0.96914400000E+005,  0.97428496561E+006,  0.16500000000E+002,  0.00000000000E+000,  0.10000000000E+001
  0.96974400000E+005,  0.97428495483E+006,  0.16500000000E+002,  0.00000000000E+000,  0.10000000000E+001
  0.97034400000E+005,  0.97428493572E+006,  0.16500000000E+002,  0.00000000000E+000,  0.10000000000E+001
  0.97094400000E+005,  0.97428490384E+006,  0.16500000000E+002,  0.00000000000E+000,  0.10000000000E+001
  0.97154400000E+005,  0.97428485307E+006,  0.16500000000E+002,  0.00000000000E+000,  0.10000000000E+001
  0.97214400000E+005,  0.97428477573E+006,  0.16500000000E+002,  0.00000000000E+000,  0.10000000000E+001
  0.97274400000E+005,  0.97428466269E+006,  0.16500000000E+002,  0.00000000000E+000,  0.10000000000E+001
  0.97334400000E+005,  0.97428450341E+006,  0.16500000000E+002,  0.00000000000E+000,  0.10000000000E+001
  0.97394400000E+005,  0.97428428631E+006,  0.16500000000E+002,  0.00000000000E+000,  0.10000000000E+001
  0.97454400000E+005,  0.97428399848E+006,  0.16500000000E+002,  0.00000000000E+000,  0.10000000000E+001
  0.97510800000E+005,  0.97428336816E+006,  0.16500000000E+002,  0.00000000000E+000,  0.10000000000E+001
  0.97570800000E+005,  0.97428165592E+006,  0.16500000000E+002,  0.00000000000E+000,  0.10000000000E+001
  0.97630800000E+005,  0.97423644132E+006,  0.16500000000E+002,  0.00000000000E+000,  0.10000000000E+001
  0.97690800000E+005,  0.97414058006E+006,  0.16500000000E+002,  0.00000000000E+000,  0.10000000000E+001
