"           TIME(S)","              PRES","              TEMP","             SAT_G","             SAT_L"
  0.94900500000E+005,  0.99774467411E+006,  0.16500000000E+002,  0.00000000000E+000,  0.10000000000E+001
  0.94903000000E+005,  0.99980742515E+006,  0.16500000000E+002,  0.00000000000E+000,  0.10000000000E+001
  0.94913000000E+005,  0.10346958362E+007,  0.16500000000E+002,  0.00000000000E+000,  0.10000000000E+001
  0.94923000000E+005,  0.10986198743E+007,  0.16500000000E+002,  0.00000000000E+000,  0.10000000000E+001
  0.94933000000E+005,  0.12130896555E+007,  0.16500000000E+002,  0.00000000000E+000,  0.10000000000E+001
  0.94943000000E+005,  0.13853124517E+007,  0.16500000000E+002,  0.00000000000E+000,  0.10000000000E+001
  0.94953000000E+005,  0.15207007670E+007,  0.16500000000E+002,  0.00000000000E+000,  0.10000000000E+001
  0.94963000000E+005,  0.16178517322E+007,  0.16500000000E+002,  0.00000000000E+000,  0.10000000000E+001
  0.94973000000E+005,  0.16988871700E+007,  0.16500000000E+002,  0.00000000000E+000,  0.10000000000E+001
  0.94983000000E+005,  0.17705897088E+007,  0.16500000000E+002,  0.00000000000E+000,  0.10000000000E+001
  0.94993000000E+005,  0.18373116100E+007,  0.16500000000E+002,  0.00000000000E+000,  0.10000000000E+001
  0.95003000000E+005,  0.19016449312E+007,  0.16500000000E+002,  0.00000000000E+000,  0.10000000000E+001
  0.95013000000E+005,  0.19639427962E+007,  0.16500000000E+002,  0.00000000000E+000,  0.10000000000E+001
  0.95023000000E+005,  0.20246519778E+007,  0.16500000000E+002,  0.00000000000E+000,  0.10000000000E+001
  0.95033000000E+005,  0.20834931840E+007,  0.16500000000E+002,  0.00000000000E+000,  0.10000000000E+001
  0.95043000000E+005,  0.21406137932E+007,  0.16500000000E+002,  0.00000000000E+000,  0.10000000000E+001
  0.95053000000E+005,  0.21960087282E+007,  0.16500000000E+002,  0.00000000000E+000,  0.10000000000E+001
  0.95063000000E+005,  0.22497615782E+007,  0.16500000000E+002,  0.00000000000E+000,  0.10000000000E+001
  0.95073000000E+005,  0.23020079005E+007,  0.16500000000E+002,  0.00000000000E+000,  0.10000000000E+001
  0.95083000000E+005,  0.23528216578E+007,  0.16500000000E+002,  0.00000000000E+000,  0.10000000000E+001
  0.95093000000E+005,  0.24022361421E+007,  0.16500000000E+002,  0.00000000000E+000,  0.10000000000E+001
  0.95103000000E+005,  0.24502507912E+007,  0.16500000000E+002,  0.00000000000E+000,  0.10000000000E+001
  0.95113000000E+005,  0.24968100668E+007,  0.16500000000E+002,  0.00000000000E+000,  0.10000000000E+001
  0.95123000000E+005,  0.25419488811E+007,  0.16500000000E+002,  0.00000000000E+000,  0.10000000000E+001
  0.95133000000E+005,  0.25856777369E+007,  0.16500000000E+002,  0.00000000000E+000,  0.10000000000E+001
  0.95143000000E+005,  0.26280985637E+007,  0.16500000000E+002,  0.00000000000E+000,  0.10000000000E+001
  0.95153000000E+005,  0.26694005664E+007,  0.16500000000E+002,  0.00000000000E+000,  0.10000000000E+001
  0.95163000000E+005,  0.27095979312E+007,  0.16500000000E+002,  0.00000000000E+000,  0.10000000000E+001
  0.95173000000E+005,  0.27487877167E+007,  0.16500000000E+002,  0.00000000000E+000,  0.10000000000E+001
  0.95183000000E+005,  0.27870935164E+007,  0.16500000000E+002,  0.00000000000E+000,  0.10000000000E+001
  0.95193000000E+005,  0.28244647166E+007,  0.16500000000E+002,  0.00000000000E+000,  0.10000000000E+001
  0.95203000000E+005,  0.28608225259E+007,  0.16500000000E+002,  0.00000000000E+000,  0.10000000000E+001
  0.95203500000E+005,  0.28626349661E+007,  0.16500000000E+002,  0.00000000000E+000,  0.10000000000E+001
  0.95206000000E+005,  0.28715982036E+007,  0.16500000000E+002,  0.00000000000E+000,  0.10000000000E+001
  0.95218500000E+005,  0.29151064794E+007,  0.16500000000E+002,  0.00000000000E+000,  0.10000000000E+001
  0.95278500000E+005,  0.31185997989E+007,  0.16500000000E+002,  0.00000000000E+000,  0.10000000000E+001
  0.95338500000E+005,  0.33023577423E+007,  0.16500000000E+002,  0.00000000000E+000,  0.10000000000E+001
  0.95398500000E+005,  0.34591634687E+007,  0.16500000000E+002,  0.00000000000E+000,  0.10000000000E+001
  0.95458500000E+005,  0.35916337635E+007,  0.16500000000E+002,  0.00000000000E+000,  0.10000000000E+001
  0.95518500000E+005,  0.37057104987E+007,  0.16500000000E+002,  0.00000000000E+000,  0.10000000000E+001
  0.95578500000E+005,  0.38041232726E+007,  0.16500000000E+002,  0.00000000000E+000,  0.10000000000E+001
  0.95638500000E+005,  0.38902058365E+007,  0.16500000000E+002,  0.00000000000E+000,  0.10000000000E+001
  0.95698500000E+005,  0.39669224618E+007,  0.16500000000E+002,  0.00000000000E+000,  0.10000000000E+001
  0.95758500000E+005,  0.40358728193E+007,  0.16500000000E+002,  0.00000000000E+000,  0.10000000000E+001
  0.95818500000E+005,  0.40984548315E+007,  0.16500000000E+002,  0.00000000000E+000,  0.10000000000E+001
  0.95878500000E+005,  0.41554584476E+007,  0.16500000000E+002,  0.00000000000E+000,  0.10000000000E+001
  0.95938500000E+005,  0.42077645164E+007,  0.16500000000E+002,  0.00000000000E+000,  0.10000000000E+001
  0.95998500000E+005,  0.42572736420E+007,  0.16500000000E+002,  0.00000000000E+000,  0.10000000000E+001
  0.96058500000E+005,  0.43041936906E+007,  0.16500000000E+002,  0.00000000000E+000,  0.10000000000E+001
  0.96118500000E+005,  0.43496143375E+007,  0.16500000000E+002,  0.00000000000E+000,  0.10000000000E+001
  0.96178500000E+005,  0.43927230257E+007,  0.16500000000E+002,  0.00000000000E+000,  0.10000000000E+001
  0.96194400000E+005,  0.44033956667E+007,  0.16500000000E+002,  0.00000000000E+000,  0.10000000000E+001
  0.96254400000E+005,  0.44430860875E+007,  0.16500000000E+002,  0.00000000000E+000,  0.10000000000E+001
  0.96314400000E+005,  0.44821116634E+007,  0.16500000000E+002,  0.00000000000E+000,  0.10000000000E+001
  0.96374400000E+005,  0.45201045712E+007,  0.16500000000E+002,  0.00000000000E+000,  0.10000000000E+001
  0.96434400000E+005,  0.45564898085E+007,  0.16500000000E+002,  0.00000000000E+000,  0.10000000000E+001
  0.96494400000E+005,  0.45915396136E+007,  0.16500000000E+002,  0.00000000000E+000,  0.10000000000E+001
  0.96554400000E+005,  0.46252771036E+007,  0.16500000000E+002,  0.00000000000E+000,  0.10000000000E+001
  0.96614400000E+005,  0.46571531319E+007,  0.16500000000E+002,  0.00000000000E+000,  0.10000000000E+001
  0.96674400000E+005,  0.46865963525E+007,  0.16500000000E+002,  0.00000000000E+000,  0.10000000000E+001
  0.96734400000E+005,  0.47134972484E+007,  0.16500000000E+002,  0.00000000000E+000,  0.10000000000E+001
  0.96794400000E+005,  0.47384015357E+007,  0.16500000000E+002,  0.00000000000E+000,  0.10000000000E+001
  0.96854400000E+005,  0.47618408417E+007,  0.16500000000E+002,  0.00000000000E+000,  0.10000000000E+001
  0.96914400000E+005,  0.47841384544E+007,  0.16500000000E+002,  0.00000000000E+000,  0.10000000000E+001
  0.96974400000E+005,  0.48054489235E+007,  0.16500000000E+002,  0.00000000000E+000,  0.10000000000E+001
  0.97034400000E+005,  0.48257041378E+007,  0.16500000000E+002,  0.00000000000E+000,  0.10000000000E+001
  0.97094400000E+005,  0.48446434178E+007,  0.16500000000E+002,  0.00000000000E+000,  0.10000000000E+001
  0.97154400000E+005,  0.48621287141E+007,  0.16500000000E+002,  0.00000000000E+000,  0.10000000000E+001
  0.97214400000E+005,  0.48780994715E+007,  0.16500000000E+002,  0.00000000000E+000,  0.10000000000E+001
  0.97274400000E+005,  0.48925356847E+007,  0.16500000000E+002,  0.00000000000E+000,  0.10000000000E+001
  0.97334400000E+005,  0.49056725134E+007,  0.16500000000E+002,  0.00000000000E+000,  0.10000000000E+001
  0.97394400000E+005,  0.49176939114E+007,  0.16500000000E+002,  0.00000000000E+000,  0.10000000000E+001
  0.97454400000E+005,  0.49285382040E+007,  0.16500000000E+002,  0.00000000000E+000,  0.10000000000E+001
  0.97510800000E+005,  0.49377112581E+007,  0.16500000000E+002,  0.00000000000E+000,  0.10000000000E+001
  0.97570800000E+005,  0.49465341927E+007,  0.16500000000E+002,  0.00000000000E+000,  0.10000000000E+001
  0.97630800000E+005,  0.49543675099E+007,  0.16500000000E+002,  0.00000000000E+000,  0.10000000000E+001
  0.97690800000E+005,  0.49612860891E+007,  0.16500000000E+002,  0.00000000000E+000,  0.10000000000E+001
  0.97750800000E+005,  0.49675312023E+007,  0.16500000000E+002,  0.00000000000E+000,  0.10000000000E+001
  0.97810800000E+005,  0.49731334063E+007,  0.16500000000E+002,  0.00000000000E+000,  0.10000000000E+001
  0.97870800000E+005,  0.49780307562E+007,  0.16500000000E+002,  0.00000000000E+000,  0.10000000000E+001
  0.97930800000E+005,  0.49821554050E+007,  0.16500000000E+002,  0.00000000000E+000,  0.10000000000E+001
  0.97990800000E+005,  0.49855554543E+007,  0.16500000000E+002,  0.00000000000E+000,  0.10000000000E+001
  0.98050800000E+005,  0.49883601128E+007,  0.16500000000E+002,  0.00000000000E+000,  0.10000000000E+001
  0.98110800000E+005,  0.49906603319E+007,  0.16500000000E+002,  0.00000000000E+000,  0.10000000000E+001
  0.98170800000E+005,  0.49925284292E+007,  0.16500000000E+002,  0.00000000000E+000,  0.10000000000E+001
  0.98230800000E+005,  0.49941023312E+007,  0.16500000000E+002,  0.00000000000E+000,  0.10000000000E+001
  0.98290800000E+005,  0.49955136343E+007,  0.16500000000E+002,  0.00000000000E+000,  0.10000000000E+001
  0.98350800000E+005,  0.49967991153E+007,  0.16500000000E+002,  0.00000000000E+000,  0.10000000000E+001
  0.98410800000E+005,  0.49979161723E+007,  0.16500000000E+002,  0.00000000000E+000,  0.10000000000E+001
  0.98470800000E+005,  0.49988138311E+007,  0.16500000000E+002,  0.00000000000E+000,  0.10000000000E+001
  0.98530800000E+005,  0.49994410070E+007,  0.16500000000E+002,  0.00000000000E+000,  0.10000000000E+001
  0.98590800000E+005,  0.49998278327E+007,  0.16500000000E+002,  0.00000000000E+000,  0.10000000000E+001
  0.98650800000E+005,  0.50000728649E+007,  0.16500000000E+002,  0.00000000000E+000,  0.10000000000E+001
  0.98710800000E+005,  0.50002900326E+007,  0.16500000000E+002,  0.00000000000E+000,  0.10000000000E+001
  0.98770800000E+005,  0.50005400878E+007,  0.16500000000E+002,  0.00000000000E+000,  0.10000000000E+001
  0.98827200000E+005,  0.50008145335E+007,  0.16500000000E+002,  0.00000000000E+000,  0.10000000000E+001
  0.98887200000E+005,  0.50011888978E+007,  0.16500000000E+002,  0.00000000000E+000,  0.10000000000E+001
  0.98947200000E+005,  0.50016379318E+007,  0.16500000000E+002,  0.00000000000E+000,  0.10000000000E+001
  0.99007200000E+005,  0.50021785433E+007,  0.16500000000E+002,  0.00000000000E+000,  0.10000000000E+001
  0.99067200000E+005,  0.50028206180E+007,  0.16500000000E+002,  0.00000000000E+000,  0.10000000000E+001
  0.99127200000E+005,  0.50035680995E+007,  0.16500000000E+002,  0.00000000000E+000,  0.10000000000E+001
  0.99187200000E+005,  0.50044124514E+007,  0.16500000000E+002,  0.00000000000E+000,  0.10000000000E+001
  0.99247200000E+005,  0.50053403234E+007,  0.16500000000E+002,  0.00000000000E+000,  0.10000000000E+001
  0.99307200000E+005,  0.50063282803E+007,  0.16500000000E+002,  0.00000000000E+000,  0.10000000000E+001
  0.99367200000E+005,  0.50073497395E+007,  0.16500000000E+002,  0.00000000000E+000,  0.10000000000E+001
  0.99427200000E+005,  0.50083800440E+007,  0.16500000000E+002,  0.00000000000E+000,  0.10000000000E+001
  0.99487200000E+005,  0.50093895067E+007,  0.16500000000E+002,  0.00000000000E+000,  0.10000000000E+001
  0.99547200000E+005,  0.50103546094E+007,  0.16500000000E+002,  0.00000000000E+000,  0.10000000000E+001
  0.99607200000E+005,  0.50112672976E+007,  0.16500000000E+002,  0.00000000000E+000,  0.10000000000E+001
  0.99667200000E+005,  0.50121150215E+007,  0.16500000000E+002,  0.00000000000E+000,  0.10000000000E+001
  0.99727200000E+005,  0.50128873867E+007,  0.16500000000E+002,  0.00000000000E+000,  0.10000000000E+001
  0.99787200000E+005,  0.50135749452E+007,  0.16500000000E+002,  0.00000000000E+000,  0.10000000000E+001
  0.99847200000E+005,  0.50134475094E+007,  0.16500000000E+002,  0.00000000000E+000,  0.10000000000E+001
  0.99907200000E+005,  0.50110531757E+007,  0.16500000000E+002,  0.00000000000E+000,  0.10000000000E+001
  0.99967200000E+005,  0.50083661220E+007,  0.16500000000E+002,  0.00000000000E+000,  0.10000000000E+001
  0.10002720000E+006,  0.50056474828E+007,  0.16500000000E+002,  0.00000000000E+000,  0.10000000000E+001
  0.10008720000E+006,  0.50029885326E+007,  0.16500000000E+002,  0.00000000000E+000,  0.10000000000E+001
  0.10014300000E+006,  0.50005915813E+007,  0.16500000000E+002,  0.00000000000E+000,  0.10000000000E+001
  0.10020300000E+006,  0.49981195973E+007,  0.16500000000E+002,  0.00000000000E+000,  0.10000000000E+001
  0.10026300000E+006,  0.49957480551E+007,  0.16500000000E+002,  0.00000000000E+000,  0.10000000000E+001
  0.10032300000E+006,  0.49934758291E+007,  0.16500000000E+002,  0.00000000000E+000,  0.10000000000E+001
  0.10038300000E+006,  0.49912989983E+007,  0.16500000000E+002,  0.00000000000E+000,  0.10000000000E+001
  0.10044300000E+006,  0.49892140872E+007,  0.16500000000E+002,  0.00000000000E+000,  0.10000000000E+001
  0.10050300000E+006,  0.49872185523E+007,  0.16500000000E+002,  0.00000000000E+000,  0.10000000000E+001
  0.10056300000E+006,  0.49853101520E+007,  0.16500000000E+002,  0.00000000000E+000,  0.10000000000E+001
  0.10062300000E+006,  0.49834872523E+007,  0.16500000000E+002,  0.00000000000E+000,  0.10000000000E+001
  0.10068300000E+006,  0.49817456354E+007,  0.16500000000E+002,  0.00000000000E+000,  0.10000000000E+001
  0.10074300000E+006,  0.49800799978E+007,  0.16500000000E+002,  0.00000000000E+000,  0.10000000000E+001
  0.10080300000E+006,  0.49784812095E+007,  0.16500000000E+002,  0.00000000000E+000,  0.10000000000E+001
  0.10086300000E+006,  0.49769416896E+007,  0.16500000000E+002,  0.00000000000E+000,  0.10000000000E+001
  0.10092300000E+006,  0.49754520239E+007,  0.16500000000E+002,  0.00000000000E+000,  0.10000000000E+001
  0.10098300000E+006,  0.49740007503E+007,  0.16500000000E+002,  0.00000000000E+000,  0.10000000000E+001
  0.10104300000E+006,  0.49725795643E+007,  0.16500000000E+002,  0.00000000000E+000,  0.10000000000E+001
  0.10110300000E+006,  0.49711800916E+007,  0.16500000000E+002,  0.00000000000E+000,  0.10000000000E+001
  0.10116300000E+006,  0.49697934027E+007,  0.16500000000E+002,  0.00000000000E+000,  0.10000000000E+001
  0.10122300000E+006,  0.49684083452E+007,  0.16500000000E+002,  0.00000000000E+000,  0.10000000000E+001
  0.10128300000E+006,  0.49670169663E+007,  0.16500000000E+002,  0.00000000000E+000,  0.10000000000E+001
  0.10134300000E+006,  0.49656117445E+007,  0.16500000000E+002,  0.00000000000E+000,  0.10000000000E+001
  0.10140300000E+006,  0.49641851478E+007,  0.16500000000E+002,  0.00000000000E+000,  0.10000000000E+001
  0.10146000000E+006,  0.49627996808E+007,  0.16500000000E+002,  0.00000000000E+000,  0.10000000000E+001
  0.10152000000E+006,  0.49613131433E+007,  0.16500000000E+002,  0.00000000000E+000,  0.10000000000E+001
  0.10158000000E+006,  0.49597870801E+007,  0.16500000000E+002,  0.00000000000E+000,  0.10000000000E+001
  0.10164000000E+006,  0.49582208394E+007,  0.16500000000E+002,  0.00000000000E+000,  0.10000000000E+001
  0.10170000000E+006,  0.49566166802E+007,  0.16500000000E+002,  0.00000000000E+000,  0.10000000000E+001
  0.10176000000E+006,  0.49549716174E+007,  0.16500000000E+002,  0.00000000000E+000,  0.10000000000E+001
  0.10182000000E+006,  0.49532867230E+007,  0.16500000000E+002,  0.00000000000E+000,  0.10000000000E+001
  0.10188000000E+006,  0.49515635889E+007,  0.16500000000E+002,  0.00000000000E+000,  0.10000000000E+001
  0.10194000000E+006,  0.49498033609E+007,  0.16500000000E+002,  0.00000000000E+000,  0.10000000000E+001
  0.10200000000E+006,  0.49480041564E+007,  0.16500000000E+002,  0.00000000000E+000,  0.10000000000E+001
  0.10206000000E+006,  0.49489282256E+007,  0.16500000000E+002,  0.00000000000E+000,  0.10000000000E+001
  0.10212000000E+006,  0.49499516016E+007,  0.16500000000E+002,  0.00000000000E+000,  0.10000000000E+001
  0.10218000000E+006,  0.49508427069E+007,  0.16500000000E+002,  0.00000000000E+000,  0.10000000000E+001
  0.10224000000E+006,  0.49515230339E+007,  0.16500000000E+002,  0.00000000000E+000,  0.10000000000E+001
  0.10230000000E+006,  0.49519704637E+007,  0.16500000000E+002,  0.00000000000E+000,  0.10000000000E+001
  0.10236000000E+006,  0.49521840314E+007,  0.16500000000E+002,  0.00000000000E+000,  0.10000000000E+001
  0.10242000000E+006,  0.49521738455E+007,  0.16500000000E+002,  0.00000000000E+000,  0.10000000000E+001
  0.10248000000E+006,  0.49519539113E+007,  0.16500000000E+002,  0.00000000000E+000,  0.10000000000E+001
  0.10254000000E+006,  0.49515389982E+007,  0.16500000000E+002,  0.00000000000E+000,  0.10000000000E+001
  0.10260000000E+006,  0.49509417480E+007,  0.16500000000E+002,  0.00000000000E+000,  0.10000000000E+001
  0.10266000000E+006,  0.49501767022E+007,  0.16500000000E+002,  0.00000000000E+000,  0.10000000000E+001
  0.10272000000E+006,  0.49492543387E+007,  0.16500000000E+002,  0.00000000000E+000,  0.10000000000E+001
  0.10277600000E+006,  0.49482572458E+007,  0.16500000000E+002,  0.00000000000E+000,  0.10000000000E+001
  0.10283600000E+006,  0.49470624706E+007,  0.16500000000E+002,  0.00000000000E+000,  0.10000000000E+001
  0.10289600000E+006,  0.49457379897E+007,  0.16500000000E+002,  0.00000000000E+000,  0.10000000000E+001
  0.10295600000E+006,  0.49442984314E+007,  0.16500000000E+002,  0.00000000000E+000,  0.10000000000E+001
  0.10301600000E+006,  0.49427478768E+007,  0.16500000000E+002,  0.00000000000E+000,  0.10000000000E+001
  0.10307600000E+006,  0.49410957087E+007,  0.16500000000E+002,  0.00000000000E+000,  0.10000000000E+001
  0.10313600000E+006,  0.49393531824E+007,  0.16500000000E+002,  0.00000000000E+000,  0.10000000000E+001
  0.10319600000E+006,  0.49375292169E+007,  0.16500000000E+002,  0.00000000000E+000,  0.10000000000E+001
  0.10325600000E+006,  0.49356327822E+007,  0.16500000000E+002,  0.00000000000E+000,  0.10000000000E+001
  0.10331600000E+006,  0.49336749205E+007,  0.16500000000E+002,  0.00000000000E+000,  0.10000000000E+001
  0.10337600000E+006,  0.49316591098E+007,  0.16500000000E+002,  0.00000000000E+000,  0.10000000000E+001
  0.10343600000E+006,  0.49295929910E+007,  0.16500000000E+002,  0.00000000000E+000,  0.10000000000E+001
  0.10349600000E+006,  0.49274810888E+007,  0.16500000000E+002,  0.00000000000E+000,  0.10000000000E+001
  0.10355600000E+006,  0.49253265485E+007,  0.16500000000E+002,  0.00000000000E+000,  0.10000000000E+001
  0.10361600000E+006,  0.49231318323E+007,  0.16500000000E+002,  0.00000000000E+000,  0.10000000000E+001
  0.10367600000E+006,  0.49209001145E+007,  0.16500000000E+002,  0.00000000000E+000,  0.10000000000E+001
  0.10373600000E+006,  0.49186330877E+007,  0.16500000000E+002,  0.00000000000E+000,  0.10000000000E+001
  0.10379600000E+006,  0.49163334368E+007,  0.16500000000E+002,  0.00000000000E+000,  0.10000000000E+001
  0.10385600000E+006,  0.49140029101E+007,  0.16500000000E+002,  0.00000000000E+000,  0.10000000000E+001
  0.10391600000E+006,  0.49116423075E+007,  0.16500000000E+002,  0.00000000000E+000,  0.10000000000E+001
  0.10397600000E+006,  0.49092506754E+007,  0.16500000000E+002,  0.00000000000E+000,  0.10000000000E+001
  0.10403600000E+006,  0.49068305650E+007,  0.16500000000E+002,  0.00000000000E+000,  0.10000000000E+001
  0.10409200000E+006,  0.49045386985E+007,  0.16500000000E+002,  0.00000000000E+000,  0.10000000000E+001
  0.10415200000E+006,  0.49020620161E+007,  0.16500000000E+002,  0.00000000000E+000,  0.10000000000E+001
  0.10421200000E+006,  0.48995548342E+007,  0.16500000000E+002,  0.00000000000E+000,  0.10000000000E+001
  0.10427200000E+006,  0.48970185960E+007,  0.16500000000E+002,  0.00000000000E+000,  0.10000000000E+001
  0.10433200000E+006,  0.48944539869E+007,  0.16500000000E+002,  0.00000000000E+000,  0.10000000000E+001
  0.10439200000E+006,  0.48918608918E+007,  0.16500000000E+002,  0.00000000000E+000,  0.10000000000E+001
