"           TIME(S)","              PRES","              TEMP","             SAT_G","             SAT_L"
  0.94878500000E+005,  0.99767546402E+006,  0.16500000000E+002,  0.00000000000E+000,  0.10000000000E+001
  0.94881000000E+005,  0.99767546401E+006,  0.16500000000E+002,  0.00000000000E+000,  0.10000000000E+001
  0.94891000000E+005,  0.10080452208E+007,  0.16500000000E+002,  0.00000000000E+000,  0.10000000000E+001
  0.94901000000E+005,  0.10291627649E+007,  0.16500000000E+002,  0.00000000000E+000,  0.10000000000E+001
  0.94911000000E+005,  0.10607527465E+007,  0.16500000000E+002,  0.00000000000E+000,  0.10000000000E+001
  0.94921000000E+005,  0.11040372176E+007,  0.16500000000E+002,  0.00000000000E+000,  0.10000000000E+001
  0.94931000000E+005,  0.11634028562E+007,  0.16500000000E+002,  0.00000000000E+000,  0.10000000000E+001
  0.94941000000E+005,  0.12604203912E+007,  0.16500000000E+002,  0.00000000000E+000,  0.10000000000E+001
  0.94951000000E+005,  0.13823666937E+007,  0.16500000000E+002,  0.00000000000E+000,  0.10000000000E+001
  0.94961000000E+005,  0.15052837775E+007,  0.16500000000E+002,  0.00000000000E+000,  0.10000000000E+001
  0.94971000000E+005,  0.16042298622E+007,  0.16500000000E+002,  0.00000000000E+000,  0.10000000000E+001
  0.94981000000E+005,  0.16782732661E+007,  0.16500000000E+002,  0.00000000000E+000,  0.10000000000E+001
  0.94991000000E+005,  0.17385826614E+007,  0.16500000000E+002,  0.00000000000E+000,  0.10000000000E+001
  0.95001000000E+005,  0.17933779656E+007,  0.16500000000E+002,  0.00000000000E+000,  0.10000000000E+001
  0.95011000000E+005,  0.18448541906E+007,  0.16500000000E+002,  0.00000000000E+000,  0.10000000000E+001
  0.95021000000E+005,  0.18928946040E+007,  0.16500000000E+002,  0.00000000000E+000,  0.10000000000E+001
  0.95031000000E+005,  0.19372372851E+007,  0.16500000000E+002,  0.00000000000E+000,  0.10000000000E+001
  0.95041000000E+005,  0.19790834339E+007,  0.16500000000E+002,  0.00000000000E+000,  0.10000000000E+001
  0.95051000000E+005,  0.20190598908E+007,  0.16500000000E+002,  0.00000000000E+000,  0.10000000000E+001
  0.95061000000E+005,  0.20573581331E+007,  0.16500000000E+002,  0.00000000000E+000,  0.10000000000E+001
  0.95071000000E+005,  0.20942002712E+007,  0.16500000000E+002,  0.00000000000E+000,  0.10000000000E+001
  0.95081000000E+005,  0.21298418307E+007,  0.16500000000E+002,  0.00000000000E+000,  0.10000000000E+001
  0.95091000000E+005,  0.21644152329E+007,  0.16500000000E+002,  0.00000000000E+000,  0.10000000000E+001
  0.95101000000E+005,  0.21979285606E+007,  0.16500000000E+002,  0.00000000000E+000,  0.10000000000E+001
  0.95111000000E+005,  0.22303849871E+007,  0.16500000000E+002,  0.00000000000E+000,  0.10000000000E+001
  0.95121000000E+005,  0.22618503933E+007,  0.16500000000E+002,  0.00000000000E+000,  0.10000000000E+001
  0.95131000000E+005,  0.22924682458E+007,  0.16500000000E+002,  0.00000000000E+000,  0.10000000000E+001
  0.95141000000E+005,  0.23223737444E+007,  0.16500000000E+002,  0.00000000000E+000,  0.10000000000E+001
  0.95151000000E+005,  0.23516218183E+007,  0.16500000000E+002,  0.00000000000E+000,  0.10000000000E+001
  0.95161000000E+005,  0.23802240051E+007,  0.16500000000E+002,  0.00000000000E+000,  0.10000000000E+001
  0.95171000000E+005,  0.24082724020E+007,  0.16500000000E+002,  0.00000000000E+000,  0.10000000000E+001
  0.95181000000E+005,  0.24358467180E+007,  0.16500000000E+002,  0.00000000000E+000,  0.10000000000E+001
  0.95191000000E+005,  0.24629706647E+007,  0.16500000000E+002,  0.00000000000E+000,  0.10000000000E+001
  0.95201000000E+005,  0.24896590767E+007,  0.16500000000E+002,  0.00000000000E+000,  0.10000000000E+001
  0.95201500000E+005,  0.24909885882E+007,  0.16500000000E+002,  0.00000000000E+000,  0.10000000000E+001
  0.95204000000E+005,  0.24975809293E+007,  0.16500000000E+002,  0.00000000000E+000,  0.10000000000E+001
  0.95216500000E+005,  0.25303447152E+007,  0.16500000000E+002,  0.00000000000E+000,  0.10000000000E+001
  0.95276500000E+005,  0.27011390648E+007,  0.16500000000E+002,  0.00000000000E+000,  0.10000000000E+001
  0.95336500000E+005,  0.28488039930E+007,  0.16500000000E+002,  0.00000000000E+000,  0.10000000000E+001
  0.95396500000E+005,  0.29750101672E+007,  0.16500000000E+002,  0.00000000000E+000,  0.10000000000E+001
  0.95456500000E+005,  0.30858200506E+007,  0.16500000000E+002,  0.00000000000E+000,  0.10000000000E+001
  0.95516500000E+005,  0.31858984257E+007,  0.16500000000E+002,  0.00000000000E+000,  0.10000000000E+001
  0.95576500000E+005,  0.32762068414E+007,  0.16500000000E+002,  0.00000000000E+000,  0.10000000000E+001
  0.95636500000E+005,  0.33566395123E+007,  0.16500000000E+002,  0.00000000000E+000,  0.10000000000E+001
  0.95696500000E+005,  0.34292288519E+007,  0.16500000000E+002,  0.00000000000E+000,  0.10000000000E+001
  0.95756500000E+005,  0.34957178172E+007,  0.16500000000E+002,  0.00000000000E+000,  0.10000000000E+001
  0.95816500000E+005,  0.35567849771E+007,  0.16500000000E+002,  0.00000000000E+000,  0.10000000000E+001
  0.95876500000E+005,  0.36130499022E+007,  0.16500000000E+002,  0.00000000000E+000,  0.10000000000E+001
  0.95936500000E+005,  0.36652340629E+007,  0.16500000000E+002,  0.00000000000E+000,  0.10000000000E+001
  0.95996500000E+005,  0.37141833499E+007,  0.16500000000E+002,  0.00000000000E+000,  0.10000000000E+001
  0.96056500000E+005,  0.37591362983E+007,  0.16500000000E+002,  0.00000000000E+000,  0.10000000000E+001
  0.96116500000E+005,  0.38016121890E+007,  0.16500000000E+002,  0.00000000000E+000,  0.10000000000E+001
  0.96176500000E+005,  0.38418539718E+007,  0.16500000000E+002,  0.00000000000E+000,  0.10000000000E+001
  0.96194400000E+005,  0.38528515930E+007,  0.16500000000E+002,  0.00000000000E+000,  0.10000000000E+001
  0.96254400000E+005,  0.38921251050E+007,  0.16500000000E+002,  0.00000000000E+000,  0.10000000000E+001
  0.96314400000E+005,  0.39287069333E+007,  0.16500000000E+002,  0.00000000000E+000,  0.10000000000E+001
  0.96374400000E+005,  0.39643782380E+007,  0.16500000000E+002,  0.00000000000E+000,  0.10000000000E+001
  0.96434400000E+005,  0.39980836970E+007,  0.16500000000E+002,  0.00000000000E+000,  0.10000000000E+001
  0.96494400000E+005,  0.40302531303E+007,  0.16500000000E+002,  0.00000000000E+000,  0.10000000000E+001
  0.96554400000E+005,  0.40615626767E+007,  0.16500000000E+002,  0.00000000000E+000,  0.10000000000E+001
  0.96614400000E+005,  0.40924164204E+007,  0.16500000000E+002,  0.00000000000E+000,  0.10000000000E+001
  0.96674400000E+005,  0.41231148955E+007,  0.16500000000E+002,  0.00000000000E+000,  0.10000000000E+001
  0.96734400000E+005,  0.41538602150E+007,  0.16500000000E+002,  0.00000000000E+000,  0.10000000000E+001
  0.96794400000E+005,  0.41846628901E+007,  0.16500000000E+002,  0.00000000000E+000,  0.10000000000E+001
  0.96854400000E+005,  0.42150044768E+007,  0.16500000000E+002,  0.00000000000E+000,  0.10000000000E+001
