"           TIME(S)","              PRES","              TEMP","             SAT_G","             SAT_L"
  0.94878500000E+005,  0.98086335659E+006,  0.16500000000E+002,  0.00000000000E+000,  0.10000000000E+001
  0.94881000000E+005,  0.98086335650E+006,  0.16500000000E+002,  0.00000000000E+000,  0.10000000000E+001
  0.94891000000E+005,  0.98086335614E+006,  0.16500000000E+002,  0.00000000000E+000,  0.10000000000E+001
  0.94901000000E+005,  0.98086335578E+006,  0.16500000000E+002,  0.00000000000E+000,  0.10000000000E+001
  0.94911000000E+005,  0.98086335542E+006,  0.16500000000E+002,  0.00000000000E+000,  0.10000000000E+001
  0.94921000000E+005,  0.98086335506E+006,  0.16500000000E+002,  0.00000000000E+000,  0.10000000000E+001
  0.94931000000E+005,  0.98086335471E+006,  0.16500000000E+002,  0.00000000000E+000,  0.10000000000E+001
  0.94941000000E+005,  0.98086335435E+006,  0.16500000000E+002,  0.00000000000E+000,  0.10000000000E+001
  0.94951000000E+005,  0.98086335400E+006,  0.16500000000E+002,  0.00000000000E+000,  0.10000000000E+001
  0.94961000000E+005,  0.98086335365E+006,  0.16500000000E+002,  0.00000000000E+000,  0.10000000000E+001
  0.94971000000E+005,  0.98086335331E+006,  0.16500000000E+002,  0.00000000000E+000,  0.10000000000E+001
  0.94981000000E+005,  0.98086335296E+006,  0.16500000000E+002,  0.00000000000E+000,  0.10000000000E+001
  0.94991000000E+005,  0.98086335262E+006,  0.16500000000E+002,  0.00000000000E+000,  0.10000000000E+001
  0.95001000000E+005,  0.98086335228E+006,  0.16500000000E+002,  0.00000000000E+000,  0.10000000000E+001
  0.95011000000E+005,  0.98086335195E+006,  0.16500000000E+002,  0.00000000000E+000,  0.10000000000E+001
  0.95021000000E+005,  0.98086335161E+006,  0.16500000000E+002,  0.00000000000E+000,  0.10000000000E+001
  0.95031000000E+005,  0.98086335128E+006,  0.16500000000E+002,  0.00000000000E+000,  0.10000000000E+001
  0.95041000000E+005,  0.98086335095E+006,  0.16500000000E+002,  0.00000000000E+000,  0.10000000000E+001
  0.95051000000E+005,  0.98086335062E+006,  0.16500000000E+002,  0.00000000000E+000,  0.10000000000E+001
  0.95061000000E+005,  0.98086335029E+006,  0.16500000000E+002,  0.00000000000E+000,  0.10000000000E+001
  0.95071000000E+005,  0.98086334997E+006,  0.16500000000E+002,  0.00000000000E+000,  0.10000000000E+001
  0.95081000000E+005,  0.98086334964E+006,  0.16500000000E+002,  0.00000000000E+000,  0.10000000000E+001
  0.95091000000E+005,  0.98086334932E+006,  0.16500000000E+002,  0.00000000000E+000,  0.10000000000E+001
  0.95101000000E+005,  0.98086334900E+006,  0.16500000000E+002,  0.00000000000E+000,  0.10000000000E+001
  0.95111000000E+005,  0.98086334868E+006,  0.16500000000E+002,  0.00000000000E+000,  0.10000000000E+001
  0.95121000000E+005,  0.98086334837E+006,  0.16500000000E+002,  0.00000000000E+000,  0.10000000000E+001
  0.95131000000E+005,  0.98086334806E+006,  0.16500000000E+002,  0.00000000000E+000,  0.10000000000E+001
  0.95141000000E+005,  0.98086334775E+006,  0.16500000000E+002,  0.00000000000E+000,  0.10000000000E+001
  0.95151000000E+005,  0.98086334744E+006,  0.16500000000E+002,  0.00000000000E+000,  0.10000000000E+001
  0.95161000000E+005,  0.98086334713E+006,  0.16500000000E+002,  0.00000000000E+000,  0.10000000000E+001
  0.95171000000E+005,  0.98086334682E+006,  0.16500000000E+002,  0.00000000000E+000,  0.10000000000E+001
  0.95181000000E+005,  0.98086334652E+006,  0.16500000000E+002,  0.00000000000E+000,  0.10000000000E+001
  0.95191000000E+005,  0.98086334622E+006,  0.16500000000E+002,  0.00000000000E+000,  0.10000000000E+001
  0.95201000000E+005,  0.98086334592E+006,  0.16500000000E+002,  0.00000000000E+000,  0.10000000000E+001
  0.95201500000E+005,  0.98086334590E+006,  0.16500000000E+002,  0.00000000000E+000,  0.10000000000E+001
  0.95204000000E+005,  0.98086334583E+006,  0.16500000000E+002,  0.00000000000E+000,  0.10000000000E+001
  0.95216500000E+005,  0.98086334546E+006,  0.16500000000E+002,  0.00000000000E+000,  0.10000000000E+001
  0.95276500000E+005,  0.98086334374E+006,  0.16500000000E+002,  0.00000000000E+000,  0.10000000000E+001
  0.95336500000E+005,  0.98086334208E+006,  0.16500000000E+002,  0.00000000000E+000,  0.10000000000E+001
  0.95396500000E+005,  0.98086334047E+006,  0.16500000000E+002,  0.00000000000E+000,  0.10000000000E+001
  0.95456500000E+005,  0.98086333893E+006,  0.16500000000E+002,  0.00000000000E+000,  0.10000000000E+001
  0.95516500000E+005,  0.98086333743E+006,  0.16500000000E+002,  0.00000000000E+000,  0.10000000000E+001
  0.95576500000E+005,  0.98086333599E+006,  0.16500000000E+002,  0.00000000000E+000,  0.10000000000E+001
  0.95636500000E+005,  0.98086333460E+006,  0.16500000000E+002,  0.00000000000E+000,  0.10000000000E+001
  0.95696500000E+005,  0.98086333325E+006,  0.16500000000E+002,  0.00000000000E+000,  0.10000000000E+001
  0.95756500000E+005,  0.98086333195E+006,  0.16500000000E+002,  0.00000000000E+000,  0.10000000000E+001
  0.95816500000E+005,  0.98086333069E+006,  0.16500000000E+002,  0.00000000000E+000,  0.10000000000E+001
  0.95876500000E+005,  0.98086332947E+006,  0.16500000000E+002,  0.00000000000E+000,  0.10000000000E+001
  0.95936500000E+005,  0.98086332830E+006,  0.16500000000E+002,  0.00000000000E+000,  0.10000000000E+001
  0.95996500000E+005,  0.98086332716E+006,  0.16500000000E+002,  0.00000000000E+000,  0.10000000000E+001
  0.96056500000E+005,  0.98086332606E+006,  0.16500000000E+002,  0.00000000000E+000,  0.10000000000E+001
  0.96116500000E+005,  0.98086332500E+006,  0.16500000000E+002,  0.00000000000E+000,  0.10000000000E+001
  0.96176500000E+005,  0.98086332397E+006,  0.16500000000E+002,  0.00000000000E+000,  0.10000000000E+001
  0.96236500000E+005,  0.98086332298E+006,  0.16500000000E+002,  0.00000000000E+000,  0.10000000000E+001
  0.96296500000E+005,  0.98086332202E+006,  0.16500000000E+002,  0.00000000000E+000,  0.10000000000E+001
  0.96356500000E+005,  0.98086332109E+006,  0.16500000000E+002,  0.00000000000E+000,  0.10000000000E+001
  0.96416500000E+005,  0.98086332019E+006,  0.16500000000E+002,  0.00000000000E+000,  0.10000000000E+001
  0.96476500000E+005,  0.98086331931E+006,  0.16500000000E+002,  0.00000000000E+000,  0.10000000000E+001
  0.96536500000E+005,  0.98086331847E+006,  0.16500000000E+002,  0.00000000000E+000,  0.10000000000E+001
  0.96596500000E+005,  0.98086331765E+006,  0.16500000000E+002,  0.00000000000E+000,  0.10000000000E+001
  0.96656500000E+005,  0.98086331687E+006,  0.16500000000E+002,  0.00000000000E+000,  0.10000000000E+001
  0.96716500000E+005,  0.98086331610E+006,  0.16500000000E+002,  0.00000000000E+000,  0.10000000000E+001
  0.96776500000E+005,  0.98086331536E+006,  0.16500000000E+002,  0.00000000000E+000,  0.10000000000E+001
  0.96836500000E+005,  0.98086331465E+006,  0.16500000000E+002,  0.00000000000E+000,  0.10000000000E+001
  0.96896500000E+005,  0.98086331395E+006,  0.16500000000E+002,  0.00000000000E+000,  0.10000000000E+001
  0.96956500000E+005,  0.98086331328E+006,  0.16500000000E+002,  0.00000000000E+000,  0.10000000000E+001
  0.97016500000E+005,  0.98086331263E+006,  0.16500000000E+002,  0.00000000000E+000,  0.10000000000E+001
  0.97076500000E+005,  0.98086331200E+006,  0.16500000000E+002,  0.00000000000E+000,  0.10000000000E+001
  0.97136500000E+005,  0.98086331139E+006,  0.16500000000E+002,  0.00000000000E+000,  0.10000000000E+001
  0.97196500000E+005,  0.98086331080E+006,  0.16500000000E+002,  0.00000000000E+000,  0.10000000000E+001
  0.97256500000E+005,  0.98086331023E+006,  0.16500000000E+002,  0.00000000000E+000,  0.10000000000E+001
  0.97316500000E+005,  0.98086330968E+006,  0.16500000000E+002,  0.00000000000E+000,  0.10000000000E+001
  0.97376500000E+005,  0.98086330914E+006,  0.16500000000E+002,  0.00000000000E+000,  0.10000000000E+001
  0.97436500000E+005,  0.98086330863E+006,  0.16500000000E+002,  0.00000000000E+000,  0.10000000000E+001
  0.97496500000E+005,  0.98086330812E+006,  0.16500000000E+002,  0.00000000000E+000,  0.10000000000E+001
  0.97556500000E+005,  0.98086330764E+006,  0.16500000000E+002,  0.00000000000E+000,  0.10000000000E+001
  0.97616500000E+005,  0.98086330717E+006,  0.16500000000E+002,  0.00000000000E+000,  0.10000000000E+001
  0.97676500000E+005,  0.98086330671E+006,  0.16500000000E+002,  0.00000000000E+000,  0.10000000000E+001
  0.97736500000E+005,  0.98086330627E+006,  0.16500000000E+002,  0.00000000000E+000,  0.10000000000E+001
  0.97796500000E+005,  0.98086330584E+006,  0.16500000000E+002,  0.00000000000E+000,  0.10000000000E+001
  0.97856500000E+005,  0.98086330542E+006,  0.16500000000E+002,  0.00000000000E+000,  0.10000000000E+001
  0.97916500000E+005,  0.98086330502E+006,  0.16500000000E+002,  0.00000000000E+000,  0.10000000000E+001
  0.97976500000E+005,  0.98086330463E+006,  0.16500000000E+002,  0.00000000000E+000,  0.10000000000E+001
  0.98036500000E+005,  0.98086330426E+006,  0.16500000000E+002,  0.00000000000E+000,  0.10000000000E+001
  0.98096500000E+005,  0.98086330389E+006,  0.16500000000E+002,  0.00000000000E+000,  0.10000000000E+001
  0.98156500000E+005,  0.98086330354E+006,  0.16500000000E+002,  0.00000000000E+000,  0.10000000000E+001
  0.98216500000E+005,  0.98086330319E+006,  0.16500000000E+002,  0.00000000000E+000,  0.10000000000E+001
  0.98276500000E+005,  0.98086330286E+006,  0.16500000000E+002,  0.00000000000E+000,  0.10000000000E+001
  0.98336500000E+005,  0.98086330254E+006,  0.16500000000E+002,  0.00000000000E+000,  0.10000000000E+001
  0.98396500000E+005,  0.98086330223E+006,  0.16500000000E+002,  0.00000000000E+000,  0.10000000000E+001
  0.98456500000E+005,  0.98086330193E+006,  0.16500000000E+002,  0.00000000000E+000,  0.10000000000E+001
  0.98516500000E+005,  0.98086330163E+006,  0.16500000000E+002,  0.00000000000E+000,  0.10000000000E+001
  0.98576500000E+005,  0.98086330135E+006,  0.16500000000E+002,  0.00000000000E+000,  0.10000000000E+001
  0.98636500000E+005,  0.98086330108E+006,  0.16500000000E+002,  0.00000000000E+000,  0.10000000000E+001
  0.98696500000E+005,  0.98086330081E+006,  0.16500000000E+002,  0.00000000000E+000,  0.10000000000E+001
  0.98756500000E+005,  0.98086330055E+006,  0.16500000000E+002,  0.00000000000E+000,  0.10000000000E+001
  0.98816500000E+005,  0.98086330030E+006,  0.16500000000E+002,  0.00000000000E+000,  0.10000000000E+001
  0.98876500000E+005,  0.98086330006E+006,  0.16500000000E+002,  0.00000000000E+000,  0.10000000000E+001
  0.98936500000E+005,  0.98086329983E+006,  0.16500000000E+002,  0.00000000000E+000,  0.10000000000E+001
  0.98996500000E+005,  0.98086329960E+006,  0.16500000000E+002,  0.00000000000E+000,  0.10000000000E+001
  0.99056500000E+005,  0.98086329938E+006,  0.16500000000E+002,  0.00000000000E+000,  0.10000000000E+001
  0.99116500000E+005,  0.98086329917E+006,  0.16500000000E+002,  0.00000000000E+000,  0.10000000000E+001
  0.99176500000E+005,  0.98086329896E+006,  0.16500000000E+002,  0.00000000000E+000,  0.10000000000E+001
  0.99236500000E+005,  0.98086329876E+006,  0.16500000000E+002,  0.00000000000E+000,  0.10000000000E+001
  0.99296500000E+005,  0.98086329857E+006,  0.16500000000E+002,  0.00000000000E+000,  0.10000000000E+001
  0.99356500000E+005,  0.98086329838E+006,  0.16500000000E+002,  0.00000000000E+000,  0.10000000000E+001
  0.99416500000E+005,  0.98086329820E+006,  0.16500000000E+002,  0.00000000000E+000,  0.10000000000E+001
  0.99476500000E+005,  0.98086329803E+006,  0.16500000000E+002,  0.00000000000E+000,  0.10000000000E+001
  0.99536500000E+005,  0.98086329786E+006,  0.16500000000E+002,  0.00000000000E+000,  0.10000000000E+001
  0.99596500000E+005,  0.98086329769E+006,  0.16500000000E+002,  0.00000000000E+000,  0.10000000000E+001
  0.99656500000E+005,  0.98086329753E+006,  0.16500000000E+002,  0.00000000000E+000,  0.10000000000E+001
  0.99716500000E+005,  0.98086329738E+006,  0.16500000000E+002,  0.00000000000E+000,  0.10000000000E+001
  0.99776500000E+005,  0.98086329723E+006,  0.16500000000E+002,  0.00000000000E+000,  0.10000000000E+001
  0.99836500000E+005,  0.98086329708E+006,  0.16500000000E+002,  0.00000000000E+000,  0.10000000000E+001
  0.99896500000E+005,  0.98086329694E+006,  0.16500000000E+002,  0.00000000000E+000,  0.10000000000E+001
  0.99956500000E+005,  0.98086329680E+006,  0.16500000000E+002,  0.00000000000E+000,  0.10000000000E+001
  0.10001650000E+006,  0.98086329667E+006,  0.16500000000E+002,  0.00000000000E+000,  0.10000000000E+001
  0.10007650000E+006,  0.98086329654E+006,  0.16500000000E+002,  0.00000000000E+000,  0.10000000000E+001
  0.10013650000E+006,  0.98086329642E+006,  0.16500000000E+002,  0.00000000000E+000,  0.10000000000E+001
  0.10019650000E+006,  0.98086329630E+006,  0.16500000000E+002,  0.00000000000E+000,  0.10000000000E+001
  0.10025650000E+006,  0.98086329618E+006,  0.16500000000E+002,  0.00000000000E+000,  0.10000000000E+001
  0.10031650000E+006,  0.98086329607E+006,  0.16500000000E+002,  0.00000000000E+000,  0.10000000000E+001
  0.10037650000E+006,  0.98086329596E+006,  0.16500000000E+002,  0.00000000000E+000,  0.10000000000E+001
  0.10043650000E+006,  0.98086329585E+006,  0.16500000000E+002,  0.00000000000E+000,  0.10000000000E+001
  0.10049650000E+006,  0.98086329575E+006,  0.16500000000E+002,  0.00000000000E+000,  0.10000000000E+001
  0.10055650000E+006,  0.98086329565E+006,  0.16500000000E+002,  0.00000000000E+000,  0.10000000000E+001
  0.10061650000E+006,  0.98086329555E+006,  0.16500000000E+002,  0.00000000000E+000,  0.10000000000E+001
  0.10067650000E+006,  0.98086329546E+006,  0.16500000000E+002,  0.00000000000E+000,  0.10000000000E+001
  0.10073650000E+006,  0.98086329537E+006,  0.16500000000E+002,  0.00000000000E+000,  0.10000000000E+001
  0.10079650000E+006,  0.98086329528E+006,  0.16500000000E+002,  0.00000000000E+000,  0.10000000000E+001
  0.10085650000E+006,  0.98086329519E+006,  0.16500000000E+002,  0.00000000000E+000,  0.10000000000E+001
  0.10091650000E+006,  0.98086329511E+006,  0.16500000000E+002,  0.00000000000E+000,  0.10000000000E+001
  0.10097650000E+006,  0.98086329503E+006,  0.16500000000E+002,  0.00000000000E+000,  0.10000000000E+001
  0.10103650000E+006,  0.98086329495E+006,  0.16500000000E+002,  0.00000000000E+000,  0.10000000000E+001
  0.10109650000E+006,  0.98086329487E+006,  0.16500000000E+002,  0.00000000000E+000,  0.10000000000E+001
  0.10115650000E+006,  0.98086329480E+006,  0.16500000000E+002,  0.00000000000E+000,  0.10000000000E+001
  0.10121650000E+006,  0.98086329473E+006,  0.16500000000E+002,  0.00000000000E+000,  0.10000000000E+001
  0.10127650000E+006,  0.98086329466E+006,  0.16500000000E+002,  0.00000000000E+000,  0.10000000000E+001
  0.10133650000E+006,  0.98086329459E+006,  0.16500000000E+002,  0.00000000000E+000,  0.10000000000E+001
  0.10139650000E+006,  0.98086329453E+006,  0.16500000000E+002,  0.00000000000E+000,  0.10000000000E+001
  0.10145650000E+006,  0.98086329446E+006,  0.16500000000E+002,  0.00000000000E+000,  0.10000000000E+001
  0.10151650000E+006,  0.98086329440E+006,  0.16500000000E+002,  0.00000000000E+000,  0.10000000000E+001
  0.10157650000E+006,  0.98086329434E+006,  0.16500000000E+002,  0.00000000000E+000,  0.10000000000E+001
  0.10163650000E+006,  0.98086329429E+006,  0.16500000000E+002,  0.00000000000E+000,  0.10000000000E+001
  0.10169650000E+006,  0.98086329423E+006,  0.16500000000E+002,  0.00000000000E+000,  0.10000000000E+001
  0.10175650000E+006,  0.98086329418E+006,  0.16500000000E+002,  0.00000000000E+000,  0.10000000000E+001
  0.10181650000E+006,  0.98086329412E+006,  0.16500000000E+002,  0.00000000000E+000,  0.10000000000E+001
  0.10187650000E+006,  0.98086329407E+006,  0.16500000000E+002,  0.00000000000E+000,  0.10000000000E+001
  0.10193650000E+006,  0.98086329402E+006,  0.16500000000E+002,  0.00000000000E+000,  0.10000000000E+001
  0.10199650000E+006,  0.98086329398E+006,  0.16500000000E+002,  0.00000000000E+000,  0.10000000000E+001
  0.10205650000E+006,  0.98086329393E+006,  0.16500000000E+002,  0.00000000000E+000,  0.10000000000E+001
  0.10211650000E+006,  0.98086329389E+006,  0.16500000000E+002,  0.00000000000E+000,  0.10000000000E+001
  0.10217650000E+006,  0.98086329384E+006,  0.16500000000E+002,  0.00000000000E+000,  0.10000000000E+001
  0.10223650000E+006,  0.98086329380E+006,  0.16500000000E+002,  0.00000000000E+000,  0.10000000000E+001
  0.10229650000E+006,  0.98086329376E+006,  0.16500000000E+002,  0.00000000000E+000,  0.10000000000E+001
  0.10235650000E+006,  0.98086329373E+006,  0.16500000000E+002,  0.00000000000E+000,  0.10000000000E+001
  0.10241650000E+006,  0.98086329369E+006,  0.16500000000E+002,  0.00000000000E+000,  0.10000000000E+001
  0.10247650000E+006,  0.98086329366E+006,  0.16500000000E+002,  0.00000000000E+000,  0.10000000000E+001
  0.10253650000E+006,  0.98086329363E+006,  0.16500000000E+002,  0.00000000000E+000,  0.10000000000E+001
  0.10259650000E+006,  0.98086329360E+006,  0.16500000000E+002,  0.00000000000E+000,  0.10000000000E+001
  0.10265650000E+006,  0.98086329357E+006,  0.16500000000E+002,  0.00000000000E+000,  0.10000000000E+001
  0.10271650000E+006,  0.98086329355E+006,  0.16500000000E+002,  0.00000000000E+000,  0.10000000000E+001
  0.10277650000E+006,  0.98086329353E+006,  0.16500000000E+002,  0.00000000000E+000,  0.10000000000E+001
  0.10283650000E+006,  0.98086329352E+006,  0.16500000000E+002,  0.00000000000E+000,  0.10000000000E+001
  0.10289650000E+006,  0.98086329351E+006,  0.16500000000E+002,  0.00000000000E+000,  0.10000000000E+001
  0.10295650000E+006,  0.98086329351E+006,  0.16500000000E+002,  0.00000000000E+000,  0.10000000000E+001
  0.10301650000E+006,  0.98086329351E+006,  0.16500000000E+002,  0.00000000000E+000,  0.10000000000E+001
  0.10307650000E+006,  0.98086329352E+006,  0.16500000000E+002,  0.00000000000E+000,  0.10000000000E+001
  0.10313650000E+006,  0.98086329354E+006,  0.16500000000E+002,  0.00000000000E+000,  0.10000000000E+001
  0.10319650000E+006,  0.98086329357E+006,  0.16500000000E+002,  0.00000000000E+000,  0.10000000000E+001
  0.10325650000E+006,  0.98086329362E+006,  0.16500000000E+002,  0.00000000000E+000,  0.10000000000E+001
  0.10331650000E+006,  0.98086329368E+006,  0.16500000000E+002,  0.00000000000E+000,  0.10000000000E+001
  0.10337650000E+006,  0.98086329375E+006,  0.16500000000E+002,  0.00000000000E+000,  0.10000000000E+001
  0.10343650000E+006,  0.98086329385E+006,  0.16500000000E+002,  0.00000000000E+000,  0.10000000000E+001
  0.10349650000E+006,  0.98086329397E+006,  0.16500000000E+002,  0.00000000000E+000,  0.10000000000E+001
  0.10355650000E+006,  0.98086329412E+006,  0.16500000000E+002,  0.00000000000E+000,  0.10000000000E+001
  0.10361650000E+006,  0.98086329430E+006,  0.16500000000E+002,  0.00000000000E+000,  0.10000000000E+001
  0.10367650000E+006,  0.98086329452E+006,  0.16500000000E+002,  0.00000000000E+000,  0.10000000000E+001
  0.10373650000E+006,  0.98086329479E+006,  0.16500000000E+002,  0.00000000000E+000,  0.10000000000E+001
  0.10379650000E+006,  0.98086329511E+006,  0.16500000000E+002,  0.00000000000E+000,  0.10000000000E+001
  0.10385650000E+006,  0.98086329549E+006,  0.16500000000E+002,  0.00000000000E+000,  0.10000000000E+001
  0.10391650000E+006,  0.98086329594E+006,  0.16500000000E+002,  0.00000000000E+000,  0.10000000000E+001
  0.10397650000E+006,  0.98086329647E+006,  0.16500000000E+002,  0.00000000000E+000,  0.10000000000E+001
  0.10403650000E+006,  0.98086329710E+006,  0.16500000000E+002,  0.00000000000E+000,  0.10000000000E+001
  0.10409650000E+006,  0.98086329784E+006,  0.16500000000E+002,  0.00000000000E+000,  0.10000000000E+001
  0.10415650000E+006,  0.98086329872E+006,  0.16500000000E+002,  0.00000000000E+000,  0.10000000000E+001
  0.10421650000E+006,  0.98086329974E+006,  0.16500000000E+002,  0.00000000000E+000,  0.10000000000E+001
  0.10427650000E+006,  0.98086330094E+006,  0.16500000000E+002,  0.00000000000E+000,  0.10000000000E+001
  0.10433650000E+006,  0.98086330234E+006,  0.16500000000E+002,  0.00000000000E+000,  0.10000000000E+001
