"           TIME(S)","              PRES","              TEMP","             SAT_G","             SAT_L"
  0.94878500000E+005,  0.10403449136E+007,  0.16500000000E+002,  0.00000000000E+000,  0.10000000000E+001
  0.94881000000E+005,  0.10403449136E+007,  0.16500000000E+002,  0.00000000000E+000,  0.10000000000E+001
  0.94893500000E+005,  0.10403449136E+007,  0.16500000000E+002,  0.00000000000E+000,  0.10000000000E+001
  0.94953500000E+005,  0.10403449135E+007,  0.16500000000E+002,  0.00000000000E+000,  0.10000000000E+001
  0.95013500000E+005,  0.10403449134E+007,  0.16500000000E+002,  0.00000000000E+000,  0.10000000000E+001
  0.95073500000E+005,  0.10403449132E+007,  0.16500000000E+002,  0.00000000000E+000,  0.10000000000E+001
  0.95133500000E+005,  0.10403449131E+007,  0.16500000000E+002,  0.00000000000E+000,  0.10000000000E+001
  0.95193500000E+005,  0.10403449130E+007,  0.16500000000E+002,  0.00000000000E+000,  0.10000000000E+001
  0.95253500000E+005,  0.10403449129E+007,  0.16500000000E+002,  0.00000000000E+000,  0.10000000000E+001
  0.95254000000E+005,  0.10403449129E+007,  0.16500000000E+002,  0.00000000000E+000,  0.10000000000E+001
  0.95256500000E+005,  0.10403449129E+007,  0.16500000000E+002,  0.00000000000E+000,  0.10000000000E+001
  0.95269000000E+005,  0.10403449129E+007,  0.16500000000E+002,  0.00000000000E+000,  0.10000000000E+001
  0.95331500000E+005,  0.10403449128E+007,  0.16500000000E+002,  0.00000000000E+000,  0.10000000000E+001
  0.95644000000E+005,  0.10403449122E+007,  0.16500000000E+002,  0.00000000000E+000,  0.10000000000E+001
  0.96244000000E+005,  0.10403449111E+007,  0.16500000000E+002,  0.00000000000E+000,  0.10000000000E+001
  0.96844000000E+005,  0.10403449101E+007,  0.16500000000E+002,  0.00000000000E+000,  0.10000000000E+001
  0.97444000000E+005,  0.10403449090E+007,  0.16500000000E+002,  0.00000000000E+000,  0.10000000000E+001
  0.98044000000E+005,  0.10403449080E+007,  0.16500000000E+002,  0.00000000000E+000,  0.10000000000E+001
  0.98644000000E+005,  0.10403449071E+007,  0.16500000000E+002,  0.00000000000E+000,  0.10000000000E+001
  0.99244000000E+005,  0.10403449061E+007,  0.16500000000E+002,  0.00000000000E+000,  0.10000000000E+001
  0.99844000000E+005,  0.10403449052E+007,  0.16500000000E+002,  0.00000000000E+000,  0.10000000000E+001
  0.10044400000E+006,  0.10403449044E+007,  0.16500000000E+002,  0.00000000000E+000,  0.10000000000E+001
  0.10104400000E+006,  0.10403449035E+007,  0.16500000000E+002,  0.00000000000E+000,  0.10000000000E+001
  0.10164400000E+006,  0.10403449027E+007,  0.16500000000E+002,  0.00000000000E+000,  0.10000000000E+001
  0.10224400000E+006,  0.10403449020E+007,  0.16500000000E+002,  0.00000000000E+000,  0.10000000000E+001
  0.10284400000E+006,  0.10403449013E+007,  0.16500000000E+002,  0.00000000000E+000,  0.10000000000E+001
  0.10344400000E+006,  0.10403449013E+007,  0.16500000000E+002,  0.00000000000E+000,  0.10000000000E+001
  0.10404400000E+006,  0.10403449067E+007,  0.16500000000E+002,  0.00000000000E+000,  0.10000000000E+001
  0.10464400000E+006,  0.10403449758E+007,  0.16500000000E+002,  0.00000000000E+000,  0.10000000000E+001
  0.10524400000E+006,  0.10403455238E+007,  0.16500000000E+002,  0.00000000000E+000,  0.10000000000E+001
  0.10584400000E+006,  0.10403481505E+007,  0.16500000000E+002,  0.00000000000E+000,  0.10000000000E+001
  0.10644400000E+006,  0.10403577692E+007,  0.16500000000E+002,  0.00000000000E+000,  0.10000000000E+001
  0.10704400000E+006,  0.10403942437E+007,  0.16500000000E+002,  0.00000000000E+000,  0.10000000000E+001
  0.10764400000E+006,  0.10406345277E+007,  0.16500000000E+002,  0.00000000000E+000,  0.10000000000E+001
  0.10824400000E+006,  0.10426497483E+007,  0.16500000000E+002,  0.00000000000E+000,  0.10000000000E+001
  0.10884400000E+006,  0.10702175262E+007,  0.16500000000E+002,  0.00000000000E+000,  0.10000000000E+001
  0.10944400000E+006,  0.11471792863E+007,  0.16500000000E+002,  0.00000000000E+000,  0.10000000000E+001
  0.11004400000E+006,  0.13050422193E+007,  0.16500000000E+002,  0.00000000000E+000,  0.10000000000E+001
  0.11064400000E+006,  0.18769473772E+007,  0.16500000000E+002,  0.00000000000E+000,  0.10000000000E+001
  0.11124400000E+006,  0.23926656159E+007,  0.16500000000E+002,  0.00000000000E+000,  0.10000000000E+001
  0.11184400000E+006,  0.27376789504E+007,  0.16500000000E+002,  0.00000000000E+000,  0.10000000000E+001
  0.11244400000E+006,  0.29394323449E+007,  0.16500000000E+002,  0.00000000000E+000,  0.10000000000E+001
  0.11304400000E+006,  0.30423616546E+007,  0.16500000000E+002,  0.00000000000E+000,  0.10000000000E+001
  0.11364400000E+006,  0.30857723625E+007,  0.16500000000E+002,  0.00000000000E+000,  0.10000000000E+001
  0.11424400000E+006,  0.31363362102E+007,  0.16500000000E+002,  0.00000000000E+000,  0.10000000000E+001
  0.11484400000E+006,  0.32228132173E+007,  0.16500000000E+002,  0.00000000000E+000,  0.10000000000E+001
  0.11544400000E+006,  0.32315220895E+007,  0.16500000000E+002,  0.00000000000E+000,  0.10000000000E+001
  0.11604400000E+006,  0.31946725596E+007,  0.16500000000E+002,  0.00000000000E+000,  0.10000000000E+001
  0.11627800000E+006,  0.31798370093E+007,  0.16500000000E+002,  0.00000000000E+000,  0.10000000000E+001
