"           TIME(S)","              PRES","              TEMP","             SAT_G","             SAT_L"
  0.94878500000E+005,  0.98086335659E+006,  0.16500000000E+002,  0.00000000000E+000,  0.10000000000E+001
  0.94881000000E+005,  0.98086335650E+006,  0.16500000000E+002,  0.00000000000E+000,  0.10000000000E+001
  0.94891000000E+005,  0.98086335614E+006,  0.16500000000E+002,  0.00000000000E+000,  0.10000000000E+001
  0.94901000000E+005,  0.98086335578E+006,  0.16500000000E+002,  0.00000000000E+000,  0.10000000000E+001
  0.94911000000E+005,  0.98086335542E+006,  0.16500000000E+002,  0.00000000000E+000,  0.10000000000E+001
  0.94921000000E+005,  0.98086335506E+006,  0.16500000000E+002,  0.00000000000E+000,  0.10000000000E+001
  0.94931000000E+005,  0.98086335471E+006,  0.16500000000E+002,  0.00000000000E+000,  0.10000000000E+001
  0.94941000000E+005,  0.98086335435E+006,  0.16500000000E+002,  0.00000000000E+000,  0.10000000000E+001
  0.94951000000E+005,  0.98086335400E+006,  0.16500000000E+002,  0.00000000000E+000,  0.10000000000E+001
  0.94961000000E+005,  0.98086335365E+006,  0.16500000000E+002,  0.00000000000E+000,  0.10000000000E+001
  0.94971000000E+005,  0.98086335331E+006,  0.16500000000E+002,  0.00000000000E+000,  0.10000000000E+001
  0.94981000000E+005,  0.98086335297E+006,  0.16500000000E+002,  0.00000000000E+000,  0.10000000000E+001
  0.94991000000E+005,  0.98086335262E+006,  0.16500000000E+002,  0.00000000000E+000,  0.10000000000E+001
  0.95001000000E+005,  0.98086335229E+006,  0.16500000000E+002,  0.00000000000E+000,  0.10000000000E+001
  0.95011000000E+005,  0.98086335195E+006,  0.16500000000E+002,  0.00000000000E+000,  0.10000000000E+001
  0.95021000000E+005,  0.98086335161E+006,  0.16500000000E+002,  0.00000000000E+000,  0.10000000000E+001
  0.95031000000E+005,  0.98086335128E+006,  0.16500000000E+002,  0.00000000000E+000,  0.10000000000E+001
  0.95041000000E+005,  0.98086335095E+006,  0.16500000000E+002,  0.00000000000E+000,  0.10000000000E+001
  0.95051000000E+005,  0.98086335062E+006,  0.16500000000E+002,  0.00000000000E+000,  0.10000000000E+001
  0.95061000000E+005,  0.98086335029E+006,  0.16500000000E+002,  0.00000000000E+000,  0.10000000000E+001
  0.95071000000E+005,  0.98086334997E+006,  0.16500000000E+002,  0.00000000000E+000,  0.10000000000E+001
  0.95081000000E+005,  0.98086334965E+006,  0.16500000000E+002,  0.00000000000E+000,  0.10000000000E+001
  0.95091000000E+005,  0.98086334933E+006,  0.16500000000E+002,  0.00000000000E+000,  0.10000000000E+001
  0.95101000000E+005,  0.98086334901E+006,  0.16500000000E+002,  0.00000000000E+000,  0.10000000000E+001
  0.95111000000E+005,  0.98086334869E+006,  0.16500000000E+002,  0.00000000000E+000,  0.10000000000E+001
  0.95121000000E+005,  0.98086334838E+006,  0.16500000000E+002,  0.00000000000E+000,  0.10000000000E+001
  0.95131000000E+005,  0.98086334807E+006,  0.16500000000E+002,  0.00000000000E+000,  0.10000000000E+001
  0.95141000000E+005,  0.98086334775E+006,  0.16500000000E+002,  0.00000000000E+000,  0.10000000000E+001
  0.95151000000E+005,  0.98086334745E+006,  0.16500000000E+002,  0.00000000000E+000,  0.10000000000E+001
  0.95161000000E+005,  0.98086334714E+006,  0.16500000000E+002,  0.00000000000E+000,  0.10000000000E+001
  0.95171000000E+005,  0.98086334683E+006,  0.16500000000E+002,  0.00000000000E+000,  0.10000000000E+001
  0.95181000000E+005,  0.98086334653E+006,  0.16500000000E+002,  0.00000000000E+000,  0.10000000000E+001
  0.95191000000E+005,  0.98086334623E+006,  0.16500000000E+002,  0.00000000000E+000,  0.10000000000E+001
  0.95201000000E+005,  0.98086334593E+006,  0.16500000000E+002,  0.00000000000E+000,  0.10000000000E+001
  0.95201500000E+005,  0.98086334592E+006,  0.16500000000E+002,  0.00000000000E+000,  0.10000000000E+001
  0.95204000000E+005,  0.98086334584E+006,  0.16500000000E+002,  0.00000000000E+000,  0.10000000000E+001
  0.95216500000E+005,  0.98086334547E+006,  0.16500000000E+002,  0.00000000000E+000,  0.10000000000E+001
  0.95279000000E+005,  0.98086334369E+006,  0.16500000000E+002,  0.00000000000E+000,  0.10000000000E+001
  0.95439000000E+005,  0.98086333953E+006,  0.16500000000E+002,  0.00000000000E+000,  0.10000000000E+001
  0.95599000000E+005,  0.98086333573E+006,  0.16500000000E+002,  0.00000000000E+000,  0.10000000000E+001
  0.95759000000E+005,  0.98086333226E+006,  0.16500000000E+002,  0.00000000000E+000,  0.10000000000E+001
  0.95919000000E+005,  0.98086332908E+006,  0.16500000000E+002,  0.00000000000E+000,  0.10000000000E+001
  0.96079000000E+005,  0.98086332618E+006,  0.16500000000E+002,  0.00000000000E+000,  0.10000000000E+001
  0.96239000000E+005,  0.98086332352E+006,  0.16500000000E+002,  0.00000000000E+000,  0.10000000000E+001
  0.96399000000E+005,  0.98086332108E+006,  0.16500000000E+002,  0.00000000000E+000,  0.10000000000E+001
  0.96559000000E+005,  0.98086331885E+006,  0.16500000000E+002,  0.00000000000E+000,  0.10000000000E+001
  0.96719000000E+005,  0.98086331680E+006,  0.16500000000E+002,  0.00000000000E+000,  0.10000000000E+001
  0.96879000000E+005,  0.98086331491E+006,  0.16500000000E+002,  0.00000000000E+000,  0.10000000000E+001
  0.97039000000E+005,  0.98086331319E+006,  0.16500000000E+002,  0.00000000000E+000,  0.10000000000E+001
  0.97199000000E+005,  0.98086331160E+006,  0.16500000000E+002,  0.00000000000E+000,  0.10000000000E+001
  0.97359000000E+005,  0.98086331015E+006,  0.16500000000E+002,  0.00000000000E+000,  0.10000000000E+001
  0.97519000000E+005,  0.98086330881E+006,  0.16500000000E+002,  0.00000000000E+000,  0.10000000000E+001
  0.97679000000E+005,  0.98086330758E+006,  0.16500000000E+002,  0.00000000000E+000,  0.10000000000E+001
  0.97839000000E+005,  0.98086330645E+006,  0.16500000000E+002,  0.00000000000E+000,  0.10000000000E+001
  0.97999000000E+005,  0.98086330541E+006,  0.16500000000E+002,  0.00000000000E+000,  0.10000000000E+001
  0.98159000000E+005,  0.98086330446E+006,  0.16500000000E+002,  0.00000000000E+000,  0.10000000000E+001
  0.98319000000E+005,  0.98086330359E+006,  0.16500000000E+002,  0.00000000000E+000,  0.10000000000E+001
  0.98479000000E+005,  0.98086330278E+006,  0.16500000000E+002,  0.00000000000E+000,  0.10000000000E+001
  0.98639000000E+005,  0.98086330204E+006,  0.16500000000E+002,  0.00000000000E+000,  0.10000000000E+001
  0.98799000000E+005,  0.98086330137E+006,  0.16500000000E+002,  0.00000000000E+000,  0.10000000000E+001
  0.98959000000E+005,  0.98086330074E+006,  0.16500000000E+002,  0.00000000000E+000,  0.10000000000E+001
  0.99119000000E+005,  0.98086330017E+006,  0.16500000000E+002,  0.00000000000E+000,  0.10000000000E+001
  0.99279000000E+005,  0.98086329965E+006,  0.16500000000E+002,  0.00000000000E+000,  0.10000000000E+001
  0.99439000000E+005,  0.98086329916E+006,  0.16500000000E+002,  0.00000000000E+000,  0.10000000000E+001
  0.99599000000E+005,  0.98086329872E+006,  0.16500000000E+002,  0.00000000000E+000,  0.10000000000E+001
  0.99759000000E+005,  0.98086329832E+006,  0.16500000000E+002,  0.00000000000E+000,  0.10000000000E+001
  0.99919000000E+005,  0.98086329795E+006,  0.16500000000E+002,  0.00000000000E+000,  0.10000000000E+001
  0.10007900000E+006,  0.98086329760E+006,  0.16500000000E+002,  0.00000000000E+000,  0.10000000000E+001
  0.10023900000E+006,  0.98086329729E+006,  0.16500000000E+002,  0.00000000000E+000,  0.10000000000E+001
  0.10039900000E+006,  0.98086329701E+006,  0.16500000000E+002,  0.00000000000E+000,  0.10000000000E+001
  0.10055900000E+006,  0.98086329675E+006,  0.16500000000E+002,  0.00000000000E+000,  0.10000000000E+001
  0.10071900000E+006,  0.98086329651E+006,  0.16500000000E+002,  0.00000000000E+000,  0.10000000000E+001
  0.10087900000E+006,  0.98086329629E+006,  0.16500000000E+002,  0.00000000000E+000,  0.10000000000E+001
  0.10103900000E+006,  0.98086329609E+006,  0.16500000000E+002,  0.00000000000E+000,  0.10000000000E+001
  0.10119900000E+006,  0.98086329591E+006,  0.16500000000E+002,  0.00000000000E+000,  0.10000000000E+001
  0.10135900000E+006,  0.98086329575E+006,  0.16500000000E+002,  0.00000000000E+000,  0.10000000000E+001
  0.10151900000E+006,  0.98086329560E+006,  0.16500000000E+002,  0.00000000000E+000,  0.10000000000E+001
  0.10167900000E+006,  0.98086329546E+006,  0.16500000000E+002,  0.00000000000E+000,  0.10000000000E+001
  0.10183900000E+006,  0.98086329534E+006,  0.16500000000E+002,  0.00000000000E+000,  0.10000000000E+001
  0.10199900000E+006,  0.98086329523E+006,  0.16500000000E+002,  0.00000000000E+000,  0.10000000000E+001
  0.10215900000E+006,  0.98086329514E+006,  0.16500000000E+002,  0.00000000000E+000,  0.10000000000E+001
  0.10231900000E+006,  0.98086329506E+006,  0.16500000000E+002,  0.00000000000E+000,  0.10000000000E+001
  0.10247900000E+006,  0.98086329499E+006,  0.16500000000E+002,  0.00000000000E+000,  0.10000000000E+001
  0.10263900000E+006,  0.98086329495E+006,  0.16500000000E+002,  0.00000000000E+000,  0.10000000000E+001
  0.10279900000E+006,  0.98086329493E+006,  0.16500000000E+002,  0.00000000000E+000,  0.10000000000E+001
  0.10295900000E+006,  0.98086329495E+006,  0.16500000000E+002,  0.00000000000E+000,  0.10000000000E+001
  0.10311900000E+006,  0.98086329502E+006,  0.16500000000E+002,  0.00000000000E+000,  0.10000000000E+001
  0.10327900000E+006,  0.98086329516E+006,  0.16500000000E+002,  0.00000000000E+000,  0.10000000000E+001
  0.10343900000E+006,  0.98086329541E+006,  0.16500000000E+002,  0.00000000000E+000,  0.10000000000E+001
  0.10359900000E+006,  0.98086329582E+006,  0.16500000000E+002,  0.00000000000E+000,  0.10000000000E+001
  0.10375900000E+006,  0.98086329644E+006,  0.16500000000E+002,  0.00000000000E+000,  0.10000000000E+001
  0.10391900000E+006,  0.98086329737E+006,  0.16500000000E+002,  0.00000000000E+000,  0.10000000000E+001
  0.10407900000E+006,  0.98086329873E+006,  0.16500000000E+002,  0.00000000000E+000,  0.10000000000E+001
  0.10423900000E+006,  0.98086330069E+006,  0.16500000000E+002,  0.00000000000E+000,  0.10000000000E+001
  0.10439900000E+006,  0.98086330347E+006,  0.16500000000E+002,  0.00000000000E+000,  0.10000000000E+001
  0.10455900000E+006,  0.98086330735E+006,  0.16500000000E+002,  0.00000000000E+000,  0.10000000000E+001
  0.10471900000E+006,  0.98086331272E+006,  0.16500000000E+002,  0.00000000000E+000,  0.10000000000E+001
  0.10487900000E+006,  0.98086332005E+006,  0.16500000000E+002,  0.00000000000E+000,  0.10000000000E+001
  0.10503900000E+006,  0.98086332996E+006,  0.16500000000E+002,  0.00000000000E+000,  0.10000000000E+001
  0.10519900000E+006,  0.98086334319E+006,  0.16500000000E+002,  0.00000000000E+000,  0.10000000000E+001
  0.10535900000E+006,  0.98086336069E+006,  0.16500000000E+002,  0.00000000000E+000,  0.10000000000E+001
  0.10551900000E+006,  0.98086338362E+006,  0.16500000000E+002,  0.00000000000E+000,  0.10000000000E+001
  0.10567900000E+006,  0.98086341336E+006,  0.16500000000E+002,  0.00000000000E+000,  0.10000000000E+001
  0.10583900000E+006,  0.98086345158E+006,  0.16500000000E+002,  0.00000000000E+000,  0.10000000000E+001
  0.10599900000E+006,  0.98086350029E+006,  0.16500000000E+002,  0.00000000000E+000,  0.10000000000E+001
  0.10615900000E+006,  0.98086356182E+006,  0.16500000000E+002,  0.00000000000E+000,  0.10000000000E+001
  0.10631900000E+006,  0.98086363894E+006,  0.16500000000E+002,  0.00000000000E+000,  0.10000000000E+001
  0.10647900000E+006,  0.98086373485E+006,  0.16500000000E+002,  0.00000000000E+000,  0.10000000000E+001
  0.10663900000E+006,  0.98086385326E+006,  0.16500000000E+002,  0.00000000000E+000,  0.10000000000E+001
  0.10679900000E+006,  0.98086399846E+006,  0.16500000000E+002,  0.00000000000E+000,  0.10000000000E+001
  0.10695900000E+006,  0.98086417533E+006,  0.16500000000E+002,  0.00000000000E+000,  0.10000000000E+001
  0.10711900000E+006,  0.98086438945E+006,  0.16500000000E+002,  0.00000000000E+000,  0.10000000000E+001
  0.10727900000E+006,  0.98086464720E+006,  0.16500000000E+002,  0.00000000000E+000,  0.10000000000E+001
  0.10743900000E+006,  0.98086495575E+006,  0.16500000000E+002,  0.00000000000E+000,  0.10000000000E+001
  0.10759900000E+006,  0.98086532327E+006,  0.16500000000E+002,  0.00000000000E+000,  0.10000000000E+001
  0.10775900000E+006,  0.98086575895E+006,  0.16500000000E+002,  0.00000000000E+000,  0.10000000000E+001
  0.10791900000E+006,  0.98086627316E+006,  0.16500000000E+002,  0.00000000000E+000,  0.10000000000E+001
  0.10807900000E+006,  0.98086687764E+006,  0.16500000000E+002,  0.00000000000E+000,  0.10000000000E+001
  0.10823900000E+006,  0.98086758567E+006,  0.16500000000E+002,  0.00000000000E+000,  0.10000000000E+001
  0.10839900000E+006,  0.98086841232E+006,  0.16500000000E+002,  0.00000000000E+000,  0.10000000000E+001
  0.10855900000E+006,  0.98086937473E+006,  0.16500000000E+002,  0.00000000000E+000,  0.10000000000E+001
  0.10871900000E+006,  0.98087049253E+006,  0.16500000000E+002,  0.00000000000E+000,  0.10000000000E+001
  0.10887900000E+006,  0.98087178819E+006,  0.16500000000E+002,  0.00000000000E+000,  0.10000000000E+001
  0.10903900000E+006,  0.98087328757E+006,  0.16500000000E+002,  0.00000000000E+000,  0.10000000000E+001
  0.10919900000E+006,  0.98087502046E+006,  0.16500000000E+002,  0.00000000000E+000,  0.10000000000E+001
  0.10935900000E+006,  0.98087702128E+006,  0.16500000000E+002,  0.00000000000E+000,  0.10000000000E+001
  0.10951900000E+006,  0.98087932989E+006,  0.16500000000E+002,  0.00000000000E+000,  0.10000000000E+001
  0.10967900000E+006,  0.98088199257E+006,  0.16500000000E+002,  0.00000000000E+000,  0.10000000000E+001
  0.10983900000E+006,  0.98088506312E+006,  0.16500000000E+002,  0.00000000000E+000,  0.10000000000E+001
  0.10999900000E+006,  0.98088860410E+006,  0.16500000000E+002,  0.00000000000E+000,  0.10000000000E+001
  0.11015900000E+006,  0.98089268819E+006,  0.16500000000E+002,  0.00000000000E+000,  0.10000000000E+001
  0.11031900000E+006,  0.98089740013E+006,  0.16500000000E+002,  0.00000000000E+000,  0.10000000000E+001
  0.11047900000E+006,  0.98090283922E+006,  0.16500000000E+002,  0.00000000000E+000,  0.10000000000E+001
  0.11063900000E+006,  0.98090912179E+006,  0.16500000000E+002,  0.00000000000E+000,  0.10000000000E+001
  0.11079900000E+006,  0.98091638374E+006,  0.16500000000E+002,  0.00000000000E+000,  0.10000000000E+001
  0.11095900000E+006,  0.98092478293E+006,  0.16500000000E+002,  0.00000000000E+000,  0.10000000000E+001
  0.11111900000E+006,  0.98093450132E+006,  0.16500000000E+002,  0.00000000000E+000,  0.10000000000E+001
  0.11127900000E+006,  0.98094574692E+006,  0.16500000000E+002,  0.00000000000E+000,  0.10000000000E+001
  0.11143900000E+006,  0.98095875541E+006,  0.16500000000E+002,  0.00000000000E+000,  0.10000000000E+001
  0.11159900000E+006,  0.98097379156E+006,  0.16500000000E+002,  0.00000000000E+000,  0.10000000000E+001
  0.11175900000E+006,  0.98099115026E+006,  0.16500000000E+002,  0.00000000000E+000,  0.10000000000E+001
  0.11191900000E+006,  0.98101115733E+006,  0.16500000000E+002,  0.00000000000E+000,  0.10000000000E+001
  0.11207900000E+006,  0.98103416988E+006,  0.16500000000E+002,  0.00000000000E+000,  0.10000000000E+001
  0.11223900000E+006,  0.98106057637E+006,  0.16500000000E+002,  0.00000000000E+000,  0.10000000000E+001
  0.11239900000E+006,  0.98109079630E+006,  0.16500000000E+002,  0.00000000000E+000,  0.10000000000E+001
  0.11255900000E+006,  0.98112527949E+006,  0.16500000000E+002,  0.00000000000E+000,  0.10000000000E+001
  0.11271900000E+006,  0.98116450496E+006,  0.16500000000E+002,  0.00000000000E+000,  0.10000000000E+001
  0.11287900000E+006,  0.98120897948E+006,  0.16500000000E+002,  0.00000000000E+000,  0.10000000000E+001
  0.11303900000E+006,  0.98125923576E+006,  0.16500000000E+002,  0.00000000000E+000,  0.10000000000E+001
  0.11319900000E+006,  0.98131583027E+006,  0.16500000000E+002,  0.00000000000E+000,  0.10000000000E+001
  0.11335900000E+006,  0.98137934082E+006,  0.16500000000E+002,  0.00000000000E+000,  0.10000000000E+001
  0.11351900000E+006,  0.98145036386E+006,  0.16500000000E+002,  0.00000000000E+000,  0.10000000000E+001
  0.11367900000E+006,  0.98152951158E+006,  0.16500000000E+002,  0.00000000000E+000,  0.10000000000E+001
  0.11383900000E+006,  0.98161740888E+006,  0.16500000000E+002,  0.00000000000E+000,  0.10000000000E+001
  0.11399900000E+006,  0.98171469016E+006,  0.16500000000E+002,  0.00000000000E+000,  0.10000000000E+001
  0.11415900000E+006,  0.98182199612E+006,  0.16500000000E+002,  0.00000000000E+000,  0.10000000000E+001
  0.11431900000E+006,  0.98193997046E+006,  0.16500000000E+002,  0.00000000000E+000,  0.10000000000E+001
  0.11447900000E+006,  0.98206925670E+006,  0.16500000000E+002,  0.00000000000E+000,  0.10000000000E+001
  0.11463900000E+006,  0.98221049494E+006,  0.16500000000E+002,  0.00000000000E+000,  0.10000000000E+001
  0.11479900000E+006,  0.98236431883E+006,  0.16500000000E+002,  0.00000000000E+000,  0.10000000000E+001
  0.11495900000E+006,  0.98253135257E+006,  0.16500000000E+002,  0.00000000000E+000,  0.10000000000E+001
  0.11511900000E+006,  0.98271220812E+006,  0.16500000000E+002,  0.00000000000E+000,  0.10000000000E+001
  0.11527900000E+006,  0.98290748254E+006,  0.16500000000E+002,  0.00000000000E+000,  0.10000000000E+001
  0.11543900000E+006,  0.98311775553E+006,  0.16500000000E+002,  0.00000000000E+000,  0.10000000000E+001
  0.11559900000E+006,  0.98334358720E+006,  0.16500000000E+002,  0.00000000000E+000,  0.10000000000E+001
  0.11575900000E+006,  0.98358551598E+006,  0.16500000000E+002,  0.00000000000E+000,  0.10000000000E+001
  0.11591900000E+006,  0.98384405680E+006,  0.16500000000E+002,  0.00000000000E+000,  0.10000000000E+001
  0.11607900000E+006,  0.98411969946E+006,  0.16500000000E+002,  0.00000000000E+000,  0.10000000000E+001
  0.11623900000E+006,  0.98441290723E+006,  0.16500000000E+002,  0.00000000000E+000,  0.10000000000E+001
  0.11639900000E+006,  0.98472411564E+006,  0.16500000000E+002,  0.00000000000E+000,  0.10000000000E+001
  0.11655900000E+006,  0.98505373148E+006,  0.16500000000E+002,  0.00000000000E+000,  0.10000000000E+001
  0.11671900000E+006,  0.98540213198E+006,  0.16500000000E+002,  0.00000000000E+000,  0.10000000000E+001
  0.11687900000E+006,  0.98576966428E+006,  0.16500000000E+002,  0.00000000000E+000,  0.10000000000E+001
  0.11703900000E+006,  0.98615664488E+006,  0.16500000000E+002,  0.00000000000E+000,  0.10000000000E+001
  0.11719900000E+006,  0.98656335952E+006,  0.16500000000E+002,  0.00000000000E+000,  0.10000000000E+001
  0.11735900000E+006,  0.98699006294E+006,  0.16500000000E+002,  0.00000000000E+000,  0.10000000000E+001
  0.11751900000E+006,  0.98743697904E+006,  0.16500000000E+002,  0.00000000000E+000,  0.10000000000E+001
  0.11767900000E+006,  0.98790430099E+006,  0.16500000000E+002,  0.00000000000E+000,  0.10000000000E+001
  0.11783900000E+006,  0.98839219157E+006,  0.16500000000E+002,  0.00000000000E+000,  0.10000000000E+001
  0.11799900000E+006,  0.98890078358E+006,  0.16500000000E+002,  0.00000000000E+000,  0.10000000000E+001
  0.11815900000E+006,  0.98943018036E+006,  0.16500000000E+002,  0.00000000000E+000,  0.10000000000E+001
  0.11831900000E+006,  0.98998045640E+006,  0.16500000000E+002,  0.00000000000E+000,  0.10000000000E+001
  0.11847900000E+006,  0.99055165801E+006,  0.16500000000E+002,  0.00000000000E+000,  0.10000000000E+001
  0.11863900000E+006,  0.99114380411E+006,  0.16500000000E+002,  0.00000000000E+000,  0.10000000000E+001
  0.11879900000E+006,  0.99175688705E+006,  0.16500000000E+002,  0.00000000000E+000,  0.10000000000E+001
  0.11895900000E+006,  0.99239087344E+006,  0.16500000000E+002,  0.00000000000E+000,  0.10000000000E+001
  0.11911900000E+006,  0.99304570510E+006,  0.16500000000E+002,  0.00000000000E+000,  0.10000000000E+001
  0.11927900000E+006,  0.99372130001E+006,  0.16500000000E+002,  0.00000000000E+000,  0.10000000000E+001
  0.11943900000E+006,  0.99441755325E+006,  0.16500000000E+002,  0.00000000000E+000,  0.10000000000E+001
