"           TIME(S)","              PRES","              TEMP","             SAT_G","             SAT_L"
  0.94860000000E+005,  0.49947449979E+006,  0.16500000000E+002,  0.00000000000E+000,  0.10000000000E+001
  0.94870000000E+005,  0.49947449979E+006,  0.16500000000E+002,  0.00000000000E+000,  0.10000000000E+001
  0.94872000000E+005,  0.49947449979E+006,  0.16500000000E+002,  0.00000000000E+000,  0.10000000000E+001
  0.94873000000E+005,  0.49947449979E+006,  0.16500000000E+002,  0.00000000000E+000,  0.10000000000E+001
  0.94874000000E+005,  0.49947449979E+006,  0.16500000000E+002,  0.00000000000E+000,  0.10000000000E+001
  0.94875000000E+005,  0.49947449979E+006,  0.16500000000E+002,  0.00000000000E+000,  0.10000000000E+001
  0.94876000000E+005,  0.49947449979E+006,  0.16500000000E+002,  0.00000000000E+000,  0.10000000000E+001
  0.94877000000E+005,  0.49947449979E+006,  0.16500000000E+002,  0.00000000000E+000,  0.10000000000E+001
  0.94878000000E+005,  0.49947449979E+006,  0.16500000000E+002,  0.00000000000E+000,  0.10000000000E+001
  0.94879000000E+005,  0.49947449979E+006,  0.16500000000E+002,  0.00000000000E+000,  0.10000000000E+001
  0.94880000000E+005,  0.49947449979E+006,  0.16500000000E+002,  0.00000000000E+000,  0.10000000000E+001
  0.94881000000E+005,  0.49947449979E+006,  0.16500000000E+002,  0.00000000000E+000,  0.10000000000E+001
  0.94882000000E+005,  0.55394622515E+006,  0.16500000000E+002,  0.00000000000E+000,  0.10000000000E+001
  0.94883000000E+005,  0.67766405727E+006,  0.16500000000E+002,  0.00000000000E+000,  0.10000000000E+001
  0.94884000000E+005,  0.80119532864E+006,  0.16500000000E+002,  0.00000000000E+000,  0.10000000000E+001
  0.94885000000E+005,  0.92454066365E+006,  0.16500000000E+002,  0.00000000000E+000,  0.10000000000E+001
  0.94886000000E+005,  0.10476978692E+007,  0.16500000000E+002,  0.00000000000E+000,  0.10000000000E+001
  0.94887000000E+005,  0.11706638066E+007,  0.16500000000E+002,  0.00000000000E+000,  0.10000000000E+001
  0.94888000000E+005,  0.12934347577E+007,  0.16500000000E+002,  0.00000000000E+000,  0.10000000000E+001
  0.94889000000E+005,  0.14160061222E+007,  0.16500000000E+002,  0.00000000000E+000,  0.10000000000E+001
  0.94890000000E+005,  0.15383727518E+007,  0.16500000000E+002,  0.00000000000E+000,  0.10000000000E+001
  0.94891000000E+005,  0.16605291008E+007,  0.16500000000E+002,  0.00000000000E+000,  0.10000000000E+001
  0.94892000000E+005,  0.17824688258E+007,  0.16500000000E+002,  0.00000000000E+000,  0.10000000000E+001
  0.94893000000E+005,  0.19041849414E+007,  0.16500000000E+002,  0.00000000000E+000,  0.10000000000E+001
  0.94894000000E+005,  0.20256702503E+007,  0.16500000000E+002,  0.00000000000E+000,  0.10000000000E+001
  0.94895000000E+005,  0.21469166465E+007,  0.16500000000E+002,  0.00000000000E+000,  0.10000000000E+001
  0.94896000000E+005,  0.22679154816E+007,  0.16500000000E+002,  0.00000000000E+000,  0.10000000000E+001
  0.94897000000E+005,  0.23886574477E+007,  0.16500000000E+002,  0.00000000000E+000,  0.10000000000E+001
  0.94898000000E+005,  0.25091321271E+007,  0.16500000000E+002,  0.00000000000E+000,  0.10000000000E+001
  0.94899000000E+005,  0.26293287130E+007,  0.16500000000E+002,  0.00000000000E+000,  0.10000000000E+001
  0.94900000000E+005,  0.27492352786E+007,  0.16500000000E+002,  0.00000000000E+000,  0.10000000000E+001
  0.94901000000E+005,  0.28688387925E+007,  0.16500000000E+002,  0.00000000000E+000,  0.10000000000E+001
  0.94902000000E+005,  0.29881251959E+007,  0.16500000000E+002,  0.00000000000E+000,  0.10000000000E+001
  0.94903000000E+005,  0.31070795048E+007,  0.16500000000E+002,  0.00000000000E+000,  0.10000000000E+001
  0.94904000000E+005,  0.32256847892E+007,  0.16500000000E+002,  0.00000000000E+000,  0.10000000000E+001
  0.94905000000E+005,  0.33439232298E+007,  0.16500000000E+002,  0.00000000000E+000,  0.10000000000E+001
  0.94906000000E+005,  0.34617760444E+007,  0.16500000000E+002,  0.00000000000E+000,  0.10000000000E+001
  0.94907000000E+005,  0.35792206956E+007,  0.16500000000E+002,  0.00000000000E+000,  0.10000000000E+001
  0.94908000000E+005,  0.36962335301E+007,  0.16500000000E+002,  0.00000000000E+000,  0.10000000000E+001
  0.94909000000E+005,  0.38127882655E+007,  0.16500000000E+002,  0.00000000000E+000,  0.10000000000E+001
  0.94910000000E+005,  0.39288564935E+007,  0.16500000000E+002,  0.00000000000E+000,  0.10000000000E+001
  0.94911000000E+005,  0.40444066452E+007,  0.16500000000E+002,  0.00000000000E+000,  0.10000000000E+001
  0.94912000000E+005,  0.41594024936E+007,  0.16500000000E+002,  0.00000000000E+000,  0.10000000000E+001
  0.94913000000E+005,  0.42741944278E+007,  0.16500000000E+002,  0.00000000000E+000,  0.10000000000E+001
  0.94914000000E+005,  0.43885104846E+007,  0.16500000000E+002,  0.00000000000E+000,  0.10000000000E+001
  0.94915000000E+005,  0.45022289095E+007,  0.16500000000E+002,  0.00000000000E+000,  0.10000000000E+001
  0.94916000000E+005,  0.46698567284E+007,  0.16500000000E+002,  0.00000000000E+000,  0.10000000000E+001
  0.94917000000E+005,  0.48564597695E+007,  0.16500000000E+002,  0.00000000000E+000,  0.10000000000E+001
  0.94918000000E+005,  0.49789805370E+007,  0.16500000000E+002,  0.00000000000E+000,  0.10000000000E+001
  0.94919000000E+005,  0.50997308324E+007,  0.16500000000E+002,  0.00000000000E+000,  0.10000000000E+001
  0.94920000000E+005,  0.52181684296E+007,  0.16500000000E+002,  0.00000000000E+000,  0.10000000000E+001
  0.94921000000E+005,  0.53274717952E+007,  0.16500000000E+002,  0.00000000000E+000,  0.10000000000E+001
  0.94922000000E+005,  0.54201032277E+007,  0.16500000000E+002,  0.00000000000E+000,  0.10000000000E+001
  0.94923000000E+005,  0.55012474508E+007,  0.16500000000E+002,  0.00000000000E+000,  0.10000000000E+001
  0.94924000000E+005,  0.56195393101E+007,  0.16500000000E+002,  0.00000000000E+000,  0.10000000000E+001
  0.94925000000E+005,  0.57712931124E+007,  0.16500000000E+002,  0.00000000000E+000,  0.10000000000E+001
  0.94926000000E+005,  0.58984440163E+007,  0.16500000000E+002,  0.00000000000E+000,  0.10000000000E+001
  0.94927000000E+005,  0.60517561471E+007,  0.16500000000E+002,  0.00000000000E+000,  0.10000000000E+001
  0.94928000000E+005,  0.62366678563E+007,  0.16500000000E+002,  0.00000000000E+000,  0.10000000000E+001
  0.94929000000E+005,  0.64207008473E+007,  0.16500000000E+002,  0.00000000000E+000,  0.10000000000E+001
  0.94930000000E+005,  0.66387209039E+007,  0.16500000000E+002,  0.00000000000E+000,  0.10000000000E+001
  0.94931000000E+005,  0.69141073560E+007,  0.16500000000E+002,  0.00000000000E+000,  0.10000000000E+001
  0.94932000000E+005,  0.72352309117E+007,  0.16500000000E+002,  0.00000000000E+000,  0.10000000000E+001
  0.94933000000E+005,  0.75813841449E+007,  0.16500000000E+002,  0.00000000000E+000,  0.10000000000E+001
  0.94934000000E+005,  0.79077687149E+007,  0.16500000000E+002,  0.00000000000E+000,  0.10000000000E+001
  0.94935000000E+005,  0.81911287159E+007,  0.16500000000E+002,  0.00000000000E+000,  0.10000000000E+001
  0.94936000000E+005,  0.84307477409E+007,  0.16500000000E+002,  0.00000000000E+000,  0.10000000000E+001
  0.94937000000E+005,  0.86093142538E+007,  0.16500000000E+002,  0.00000000000E+000,  0.10000000000E+001
  0.94938000000E+005,  0.86877955231E+007,  0.16500000000E+002,  0.00000000000E+000,  0.10000000000E+001
  0.94939000000E+005,  0.86565715885E+007,  0.16500000000E+002,  0.00000000000E+000,  0.10000000000E+001
  0.94940000000E+005,  0.85724790659E+007,  0.16500000000E+002,  0.00000000000E+000,  0.10000000000E+001
  0.94941000000E+005,  0.84933244128E+007,  0.16500000000E+002,  0.00000000000E+000,  0.10000000000E+001
  0.94942000000E+005,  0.84301382981E+007,  0.16500000000E+002,  0.00000000000E+000,  0.10000000000E+001
  0.94943000000E+005,  0.83626915692E+007,  0.16500000000E+002,  0.00000000000E+000,  0.10000000000E+001
  0.94944000000E+005,  0.82724761831E+007,  0.16500000000E+002,  0.00000000000E+000,  0.10000000000E+001
  0.94945000000E+005,  0.82308503009E+007,  0.16500000000E+002,  0.00000000000E+000,  0.10000000000E+001
  0.94946000000E+005,  0.82384680996E+007,  0.16500000000E+002,  0.00000000000E+000,  0.10000000000E+001
  0.94947000000E+005,  0.82954683980E+007,  0.16500000000E+002,  0.00000000000E+000,  0.10000000000E+001
  0.94948000000E+005,  0.83277266857E+007,  0.16500000000E+002,  0.00000000000E+000,  0.10000000000E+001
  0.94949000000E+005,  0.82855635409E+007,  0.16500000000E+002,  0.00000000000E+000,  0.10000000000E+001
  0.94950000000E+005,  0.81973207895E+007,  0.16500000000E+002,  0.00000000000E+000,  0.10000000000E+001
  0.94951000000E+005,  0.81359894808E+007,  0.16500000000E+002,  0.00000000000E+000,  0.10000000000E+001
  0.94952000000E+005,  0.80774234209E+007,  0.16500000000E+002,  0.00000000000E+000,  0.10000000000E+001
  0.94953000000E+005,  0.79938254615E+007,  0.16500000000E+002,  0.00000000000E+000,  0.10000000000E+001
  0.94954000000E+005,  0.78919585831E+007,  0.16500000000E+002,  0.00000000000E+000,  0.10000000000E+001
  0.94955000000E+005,  0.77979988120E+007,  0.16500000000E+002,  0.00000000000E+000,  0.10000000000E+001
  0.94956000000E+005,  0.77232429987E+007,  0.16500000000E+002,  0.00000000000E+000,  0.10000000000E+001
  0.94957000000E+005,  0.76689878977E+007,  0.16500000000E+002,  0.00000000000E+000,  0.10000000000E+001
  0.94958000000E+005,  0.76352382168E+007,  0.16500000000E+002,  0.00000000000E+000,  0.10000000000E+001
  0.94959000000E+005,  0.76124345414E+007,  0.16500000000E+002,  0.00000000000E+000,  0.10000000000E+001
  0.94960000000E+005,  0.75850391365E+007,  0.16500000000E+002,  0.00000000000E+000,  0.10000000000E+001
  0.94961000000E+005,  0.75629186573E+007,  0.16500000000E+002,  0.00000000000E+000,  0.10000000000E+001
  0.94962000000E+005,  0.75396947946E+007,  0.16500000000E+002,  0.00000000000E+000,  0.10000000000E+001
  0.94963000000E+005,  0.75061881222E+007,  0.16500000000E+002,  0.00000000000E+000,  0.10000000000E+001
  0.94964000000E+005,  0.74814251923E+007,  0.16500000000E+002,  0.00000000000E+000,  0.10000000000E+001
  0.94965000000E+005,  0.74584954031E+007,  0.16500000000E+002,  0.00000000000E+000,  0.10000000000E+001
  0.94966000000E+005,  0.74386082698E+007,  0.16500000000E+002,  0.00000000000E+000,  0.10000000000E+001
  0.94967000000E+005,  0.74244912822E+007,  0.16500000000E+002,  0.00000000000E+000,  0.10000000000E+001
  0.94968000000E+005,  0.74143303708E+007,  0.16500000000E+002,  0.00000000000E+000,  0.10000000000E+001
  0.94969000000E+005,  0.74063082499E+007,  0.16500000000E+002,  0.00000000000E+000,  0.10000000000E+001
  0.94970000000E+005,  0.74008008330E+007,  0.16500000000E+002,  0.00000000000E+000,  0.10000000000E+001
  0.94971000000E+005,  0.73948273441E+007,  0.16500000000E+002,  0.00000000000E+000,  0.10000000000E+001
  0.94972000000E+005,  0.73882696373E+007,  0.16500000000E+002,  0.00000000000E+000,  0.10000000000E+001
  0.94973000000E+005,  0.73769100499E+007,  0.16500000000E+002,  0.00000000000E+000,  0.10000000000E+001
  0.94974000000E+005,  0.73594069799E+007,  0.16500000000E+002,  0.00000000000E+000,  0.10000000000E+001
  0.94975000000E+005,  0.73385006925E+007,  0.16500000000E+002,  0.00000000000E+000,  0.10000000000E+001
  0.94976000000E+005,  0.73133203627E+007,  0.16500000000E+002,  0.00000000000E+000,  0.10000000000E+001
  0.94977000000E+005,  0.72869638202E+007,  0.16500000000E+002,  0.00000000000E+000,  0.10000000000E+001
  0.94978000000E+005,  0.72645305416E+007,  0.16500000000E+002,  0.00000000000E+000,  0.10000000000E+001
  0.94979000000E+005,  0.72471965045E+007,  0.16500000000E+002,  0.00000000000E+000,  0.10000000000E+001
  0.94980000000E+005,  0.72352190786E+007,  0.16500000000E+002,  0.00000000000E+000,  0.10000000000E+001
  0.94981000000E+005,  0.72273271063E+007,  0.16500000000E+002,  0.00000000000E+000,  0.10000000000E+001
  0.94982000000E+005,  0.72216956444E+007,  0.16500000000E+002,  0.00000000000E+000,  0.10000000000E+001
  0.94983000000E+005,  0.72163742986E+007,  0.16500000000E+002,  0.00000000000E+000,  0.10000000000E+001
  0.94984000000E+005,  0.72075132304E+007,  0.16500000000E+002,  0.00000000000E+000,  0.10000000000E+001
  0.94985000000E+005,  0.71954092777E+007,  0.16500000000E+002,  0.00000000000E+000,  0.10000000000E+001
  0.94986000000E+005,  0.71794009016E+007,  0.16500000000E+002,  0.00000000000E+000,  0.10000000000E+001
  0.94987000000E+005,  0.71639398665E+007,  0.16500000000E+002,  0.00000000000E+000,  0.10000000000E+001
  0.94988000000E+005,  0.71475752440E+007,  0.16500000000E+002,  0.00000000000E+000,  0.10000000000E+001
  0.94989000000E+005,  0.71304819344E+007,  0.16500000000E+002,  0.00000000000E+000,  0.10000000000E+001
  0.94990000000E+005,  0.71136583787E+007,  0.16500000000E+002,  0.00000000000E+000,  0.10000000000E+001
  0.94991000000E+005,  0.70959845358E+007,  0.16500000000E+002,  0.00000000000E+000,  0.10000000000E+001
  0.94992000000E+005,  0.70806331935E+007,  0.16500000000E+002,  0.00000000000E+000,  0.10000000000E+001
  0.94993000000E+005,  0.70715911751E+007,  0.16500000000E+002,  0.00000000000E+000,  0.10000000000E+001
  0.94994000000E+005,  0.70712564595E+007,  0.16500000000E+002,  0.00000000000E+000,  0.10000000000E+001
  0.94995000000E+005,  0.70727963035E+007,  0.16500000000E+002,  0.00000000000E+000,  0.10000000000E+001
  0.94996000000E+005,  0.70673268613E+007,  0.16500000000E+002,  0.00000000000E+000,  0.10000000000E+001
  0.94997000000E+005,  0.70579380138E+007,  0.16500000000E+002,  0.00000000000E+000,  0.10000000000E+001
  0.94998000000E+005,  0.70527170801E+007,  0.16500000000E+002,  0.00000000000E+000,  0.10000000000E+001
  0.94999000000E+005,  0.70496448745E+007,  0.16500000000E+002,  0.00000000000E+000,  0.10000000000E+001
  0.95000000000E+005,  0.70456996214E+007,  0.16500000000E+002,  0.00000000000E+000,  0.10000000000E+001
  0.95001000000E+005,  0.70414862127E+007,  0.16500000000E+002,  0.00000000000E+000,  0.10000000000E+001
  0.95002000000E+005,  0.70370705437E+007,  0.16500000000E+002,  0.00000000000E+000,  0.10000000000E+001
  0.95003000000E+005,  0.70330867955E+007,  0.16500000000E+002,  0.00000000000E+000,  0.10000000000E+001
  0.95004000000E+005,  0.70296886041E+007,  0.16500000000E+002,  0.00000000000E+000,  0.10000000000E+001
  0.95005000000E+005,  0.70269669398E+007,  0.16500000000E+002,  0.00000000000E+000,  0.10000000000E+001
  0.95006000000E+005,  0.70248854167E+007,  0.16500000000E+002,  0.00000000000E+000,  0.10000000000E+001
  0.95007000000E+005,  0.70224978101E+007,  0.16500000000E+002,  0.00000000000E+000,  0.10000000000E+001
  0.95008000000E+005,  0.70206653349E+007,  0.16500000000E+002,  0.00000000000E+000,  0.10000000000E+001
  0.95009000000E+005,  0.70190984127E+007,  0.16500000000E+002,  0.00000000000E+000,  0.10000000000E+001
  0.95010000000E+005,  0.70164982759E+007,  0.16500000000E+002,  0.00000000000E+000,  0.10000000000E+001
  0.95011000000E+005,  0.70136751108E+007,  0.16500000000E+002,  0.00000000000E+000,  0.10000000000E+001
  0.95012000000E+005,  0.70098847665E+007,  0.16500000000E+002,  0.00000000000E+000,  0.10000000000E+001
  0.95013000000E+005,  0.70062269322E+007,  0.16500000000E+002,  0.00000000000E+000,  0.10000000000E+001
  0.95014000000E+005,  0.70024363138E+007,  0.16500000000E+002,  0.00000000000E+000,  0.10000000000E+001
  0.95015000000E+005,  0.69986662032E+007,  0.16500000000E+002,  0.00000000000E+000,  0.10000000000E+001
  0.95016000000E+005,  0.69933622580E+007,  0.16500000000E+002,  0.00000000000E+000,  0.10000000000E+001
  0.95017000000E+005,  0.69873512842E+007,  0.16500000000E+002,  0.00000000000E+000,  0.10000000000E+001
  0.95018000000E+005,  0.69811776233E+007,  0.16500000000E+002,  0.00000000000E+000,  0.10000000000E+001
  0.95019000000E+005,  0.69744726641E+007,  0.16500000000E+002,  0.00000000000E+000,  0.10000000000E+001
  0.95020000000E+005,  0.69673588219E+007,  0.16500000000E+002,  0.00000000000E+000,  0.10000000000E+001
  0.95021000000E+005,  0.69618940029E+007,  0.16500000000E+002,  0.00000000000E+000,  0.10000000000E+001
  0.95022000000E+005,  0.69577208900E+007,  0.16500000000E+002,  0.00000000000E+000,  0.10000000000E+001
  0.95023000000E+005,  0.69499729773E+007,  0.16500000000E+002,  0.00000000000E+000,  0.10000000000E+001
  0.95024000000E+005,  0.69362252784E+007,  0.16500000000E+002,  0.00000000000E+000,  0.10000000000E+001
  0.95025000000E+005,  0.69216542477E+007,  0.16500000000E+002,  0.00000000000E+000,  0.10000000000E+001
  0.95026000000E+005,  0.69103335389E+007,  0.16500000000E+002,  0.00000000000E+000,  0.10000000000E+001
  0.95027000000E+005,  0.69002735702E+007,  0.16500000000E+002,  0.00000000000E+000,  0.10000000000E+001
  0.95028000000E+005,  0.68916033859E+007,  0.16500000000E+002,  0.00000000000E+000,  0.10000000000E+001
  0.95029000000E+005,  0.68838643221E+007,  0.16500000000E+002,  0.00000000000E+000,  0.10000000000E+001
  0.95030000000E+005,  0.68766418977E+007,  0.16500000000E+002,  0.00000000000E+000,  0.10000000000E+001
  0.95031000000E+005,  0.68689006818E+007,  0.16500000000E+002,  0.00000000000E+000,  0.10000000000E+001
  0.95032000000E+005,  0.68617321111E+007,  0.16500000000E+002,  0.00000000000E+000,  0.10000000000E+001
  0.95033000000E+005,  0.68554673638E+007,  0.16500000000E+002,  0.00000000000E+000,  0.10000000000E+001
  0.95034000000E+005,  0.68500365595E+007,  0.16500000000E+002,  0.00000000000E+000,  0.10000000000E+001
  0.95035000000E+005,  0.68456002838E+007,  0.16500000000E+002,  0.00000000000E+000,  0.10000000000E+001
  0.95036000000E+005,  0.68419089303E+007,  0.16500000000E+002,  0.00000000000E+000,  0.10000000000E+001
  0.95037000000E+005,  0.68386802758E+007,  0.16500000000E+002,  0.00000000000E+000,  0.10000000000E+001
  0.95038000000E+005,  0.68352088842E+007,  0.16500000000E+002,  0.00000000000E+000,  0.10000000000E+001
  0.95039000000E+005,  0.68314480270E+007,  0.16500000000E+002,  0.00000000000E+000,  0.10000000000E+001
  0.95040000000E+005,  0.68292782122E+007,  0.16500000000E+002,  0.00000000000E+000,  0.10000000000E+001
  0.95041000000E+005,  0.68268520726E+007,  0.16500000000E+002,  0.00000000000E+000,  0.10000000000E+001
  0.95042000000E+005,  0.68252384727E+007,  0.16500000000E+002,  0.00000000000E+000,  0.10000000000E+001
  0.95043000000E+005,  0.68235236189E+007,  0.16500000000E+002,  0.00000000000E+000,  0.10000000000E+001
  0.95044000000E+005,  0.68223616944E+007,  0.16500000000E+002,  0.00000000000E+000,  0.10000000000E+001
  0.95045000000E+005,  0.68219643445E+007,  0.16500000000E+002,  0.00000000000E+000,  0.10000000000E+001
  0.95046000000E+005,  0.68222998515E+007,  0.16500000000E+002,  0.00000000000E+000,  0.10000000000E+001
  0.95047000000E+005,  0.68230393911E+007,  0.16500000000E+002,  0.00000000000E+000,  0.10000000000E+001
  0.95048000000E+005,  0.68240239827E+007,  0.16500000000E+002,  0.00000000000E+000,  0.10000000000E+001
  0.95049000000E+005,  0.68245682256E+007,  0.16500000000E+002,  0.00000000000E+000,  0.10000000000E+001
  0.95050000000E+005,  0.68241489761E+007,  0.16500000000E+002,  0.00000000000E+000,  0.10000000000E+001
  0.95051000000E+005,  0.68227173493E+007,  0.16500000000E+002,  0.00000000000E+000,  0.10000000000E+001
  0.95052000000E+005,  0.68211810742E+007,  0.16500000000E+002,  0.00000000000E+000,  0.10000000000E+001
  0.95053000000E+005,  0.68177380805E+007,  0.16500000000E+002,  0.00000000000E+000,  0.10000000000E+001
  0.95054000000E+005,  0.68112178580E+007,  0.16500000000E+002,  0.00000000000E+000,  0.10000000000E+001
  0.95055000000E+005,  0.68035532568E+007,  0.16500000000E+002,  0.00000000000E+000,  0.10000000000E+001
  0.95056000000E+005,  0.67954593493E+007,  0.16500000000E+002,  0.00000000000E+000,  0.10000000000E+001
  0.95057000000E+005,  0.67876344875E+007,  0.16500000000E+002,  0.00000000000E+000,  0.10000000000E+001
  0.95058000000E+005,  0.67806991291E+007,  0.16500000000E+002,  0.00000000000E+000,  0.10000000000E+001
