"           TIME(S)","              PRES","              TEMP","             SAT_G","             SAT_L"
  0.94878500000E+005,  0.99758108430E+006,  0.16500000000E+002,  0.00000000000E+000,  0.10000000000E+001
  0.94879500000E+005,  0.99758108430E+006,  0.16500000000E+002,  0.00000000000E+000,  0.10000000000E+001
  0.94880500000E+005,  0.99758108430E+006,  0.16500000000E+002,  0.00000000000E+000,  0.10000000000E+001
  0.94881500000E+005,  0.99758108430E+006,  0.16500000000E+002,  0.00000000000E+000,  0.10000000000E+001
  0.94882500000E+005,  0.15485306187E+007,  0.16500000000E+002,  0.00000000000E+000,  0.10000000000E+001
  0.94883500000E+005,  0.20787863423E+007,  0.16500000000E+002,  0.00000000000E+000,  0.10000000000E+001
  0.94884500000E+005,  0.25944857175E+007,  0.16500000000E+002,  0.00000000000E+000,  0.10000000000E+001
  0.94885500000E+005,  0.30972045019E+007,  0.16500000000E+002,  0.00000000000E+000,  0.10000000000E+001
  0.94886500000E+005,  0.35846620991E+007,  0.16500000000E+002,  0.00000000000E+000,  0.10000000000E+001
  0.94887500000E+005,  0.40541268964E+007,  0.16500000000E+002,  0.00000000000E+000,  0.10000000000E+001
  0.94888500000E+005,  0.45024345393E+007,  0.16500000000E+002,  0.00000000000E+000,  0.10000000000E+001
  0.94889500000E+005,  0.49259916824E+007,  0.16500000000E+002,  0.00000000000E+000,  0.10000000000E+001
  0.94890500000E+005,  0.53207950297E+007,  0.16500000000E+002,  0.00000000000E+000,  0.10000000000E+001
  0.94891500000E+005,  0.56825066681E+007,  0.16500000000E+002,  0.00000000000E+000,  0.10000000000E+001
  0.94892500000E+005,  0.60065903172E+007,  0.16500000000E+002,  0.00000000000E+000,  0.10000000000E+001
  0.94893500000E+005,  0.62843901434E+007,  0.16500000000E+002,  0.00000000000E+000,  0.10000000000E+001
  0.94894500000E+005,  0.65197825466E+007,  0.16500000000E+002,  0.00000000000E+000,  0.10000000000E+001
  0.94895500000E+005,  0.66933002156E+007,  0.16500000000E+002,  0.00000000000E+000,  0.10000000000E+001
  0.94896500000E+005,  0.68287004170E+007,  0.16500000000E+002,  0.00000000000E+000,  0.10000000000E+001
  0.94897500000E+005,  0.69160699643E+007,  0.16500000000E+002,  0.00000000000E+000,  0.10000000000E+001
  0.94898500000E+005,  0.69632329369E+007,  0.16500000000E+002,  0.00000000000E+000,  0.10000000000E+001
  0.94899500000E+005,  0.69836978420E+007,  0.16500000000E+002,  0.00000000000E+000,  0.10000000000E+001
  0.94900500000E+005,  0.69947739094E+007,  0.16500000000E+002,  0.00000000000E+000,  0.10000000000E+001
  0.94901500000E+005,  0.70095259244E+007,  0.16500000000E+002,  0.00000000000E+000,  0.10000000000E+001
  0.94902500000E+005,  0.70346586694E+007,  0.16500000000E+002,  0.00000000000E+000,  0.10000000000E+001
  0.94903500000E+005,  0.70682122433E+007,  0.16500000000E+002,  0.00000000000E+000,  0.10000000000E+001
  0.94904500000E+005,  0.71028518093E+007,  0.16500000000E+002,  0.00000000000E+000,  0.10000000000E+001
  0.94905500000E+005,  0.71336344894E+007,  0.16500000000E+002,  0.00000000000E+000,  0.10000000000E+001
  0.94906500000E+005,  0.71587269431E+007,  0.16500000000E+002,  0.00000000000E+000,  0.10000000000E+001
  0.94907500000E+005,  0.71770205987E+007,  0.16500000000E+002,  0.00000000000E+000,  0.10000000000E+001
  0.94908500000E+005,  0.71895887958E+007,  0.16500000000E+002,  0.00000000000E+000,  0.10000000000E+001
  0.94909500000E+005,  0.71967408555E+007,  0.16500000000E+002,  0.00000000000E+000,  0.10000000000E+001
  0.94910500000E+005,  0.71995182948E+007,  0.16500000000E+002,  0.00000000000E+000,  0.10000000000E+001
  0.94911500000E+005,  0.71987324363E+007,  0.16500000000E+002,  0.00000000000E+000,  0.10000000000E+001
  0.94912500000E+005,  0.71952098651E+007,  0.16500000000E+002,  0.00000000000E+000,  0.10000000000E+001
  0.94913500000E+005,  0.71919128605E+007,  0.16500000000E+002,  0.00000000000E+000,  0.10000000000E+001
  0.94914500000E+005,  0.71820451170E+007,  0.16500000000E+002,  0.00000000000E+000,  0.10000000000E+001
  0.94915500000E+005,  0.71744425958E+007,  0.16500000000E+002,  0.00000000000E+000,  0.10000000000E+001
  0.94916500000E+005,  0.74694457097E+007,  0.16500000000E+002,  0.00000000000E+000,  0.10000000000E+001
  0.94917500000E+005,  0.73644222287E+007,  0.16500000000E+002,  0.00000000000E+000,  0.10000000000E+001
  0.94918500000E+005,  0.73080960239E+007,  0.16500000000E+002,  0.00000000000E+000,  0.10000000000E+001
  0.94919500000E+005,  0.72660997138E+007,  0.16500000000E+002,  0.00000000000E+000,  0.10000000000E+001
  0.94920500000E+005,  0.72303911014E+007,  0.16500000000E+002,  0.00000000000E+000,  0.10000000000E+001
  0.94921500000E+005,  0.71700132759E+007,  0.16500000000E+002,  0.00000000000E+000,  0.10000000000E+001
  0.94922500000E+005,  0.70990650198E+007,  0.16500000000E+002,  0.00000000000E+000,  0.10000000000E+001
  0.94923500000E+005,  0.70373134831E+007,  0.16500000000E+002,  0.00000000000E+000,  0.10000000000E+001
  0.94924500000E+005,  0.72004200445E+007,  0.16500000000E+002,  0.00000000000E+000,  0.10000000000E+001
  0.94925500000E+005,  0.72092455322E+007,  0.16500000000E+002,  0.00000000000E+000,  0.10000000000E+001
  0.94926500000E+005,  0.72143279029E+007,  0.16500000000E+002,  0.00000000000E+000,  0.10000000000E+001
  0.94927500000E+005,  0.73491061212E+007,  0.16500000000E+002,  0.00000000000E+000,  0.10000000000E+001
  0.94928500000E+005,  0.74107633448E+007,  0.16500000000E+002,  0.00000000000E+000,  0.10000000000E+001
  0.94929500000E+005,  0.74683031480E+007,  0.16500000000E+002,  0.00000000000E+000,  0.10000000000E+001
  0.94930500000E+005,  0.76224931433E+007,  0.16500000000E+002,  0.00000000000E+000,  0.10000000000E+001
  0.94931500000E+005,  0.77983494690E+007,  0.16500000000E+002,  0.00000000000E+000,  0.10000000000E+001
  0.94932500000E+005,  0.79875363464E+007,  0.16500000000E+002,  0.00000000000E+000,  0.10000000000E+001
  0.94933500000E+005,  0.81395284367E+007,  0.16500000000E+002,  0.00000000000E+000,  0.10000000000E+001
  0.94934500000E+005,  0.81866855334E+007,  0.16500000000E+002,  0.00000000000E+000,  0.10000000000E+001
  0.94935500000E+005,  0.81798220321E+007,  0.16500000000E+002,  0.00000000000E+000,  0.10000000000E+001
  0.94936500000E+005,  0.81477917662E+007,  0.16500000000E+002,  0.00000000000E+000,  0.10000000000E+001
  0.94937500000E+005,  0.81138873641E+007,  0.16500000000E+002,  0.00000000000E+000,  0.10000000000E+001
  0.94938500000E+005,  0.80874148948E+007,  0.16500000000E+002,  0.00000000000E+000,  0.10000000000E+001
  0.94939500000E+005,  0.80672046930E+007,  0.16500000000E+002,  0.00000000000E+000,  0.10000000000E+001
  0.94940500000E+005,  0.80458298324E+007,  0.16500000000E+002,  0.00000000000E+000,  0.10000000000E+001
  0.94941500000E+005,  0.80279520357E+007,  0.16500000000E+002,  0.00000000000E+000,  0.10000000000E+001
  0.94942500000E+005,  0.79940058041E+007,  0.16500000000E+002,  0.00000000000E+000,  0.10000000000E+001
  0.94943500000E+005,  0.79522475295E+007,  0.16500000000E+002,  0.00000000000E+000,  0.10000000000E+001
  0.94944500000E+005,  0.79193400759E+007,  0.16500000000E+002,  0.00000000000E+000,  0.10000000000E+001
  0.94945500000E+005,  0.78955320805E+007,  0.16500000000E+002,  0.00000000000E+000,  0.10000000000E+001
  0.94946500000E+005,  0.79688558176E+007,  0.16500000000E+002,  0.00000000000E+000,  0.10000000000E+001
  0.94947500000E+005,  0.79860993013E+007,  0.16500000000E+002,  0.00000000000E+000,  0.10000000000E+001
  0.94948500000E+005,  0.79942740891E+007,  0.16500000000E+002,  0.00000000000E+000,  0.10000000000E+001
  0.94949500000E+005,  0.79759907300E+007,  0.16500000000E+002,  0.00000000000E+000,  0.10000000000E+001
  0.94950500000E+005,  0.79722007473E+007,  0.16500000000E+002,  0.00000000000E+000,  0.10000000000E+001
  0.94951500000E+005,  0.79667962149E+007,  0.16500000000E+002,  0.00000000000E+000,  0.10000000000E+001
  0.94952500000E+005,  0.79552588704E+007,  0.16500000000E+002,  0.00000000000E+000,  0.10000000000E+001
  0.94953500000E+005,  0.79296353570E+007,  0.16500000000E+002,  0.00000000000E+000,  0.10000000000E+001
  0.94954500000E+005,  0.78954259523E+007,  0.16500000000E+002,  0.00000000000E+000,  0.10000000000E+001
  0.94955500000E+005,  0.78306650874E+007,  0.16500000000E+002,  0.00000000000E+000,  0.10000000000E+001
  0.94956500000E+005,  0.77675491379E+007,  0.16500000000E+002,  0.00000000000E+000,  0.10000000000E+001
  0.94957500000E+005,  0.77069133722E+007,  0.16500000000E+002,  0.00000000000E+000,  0.10000000000E+001
  0.94958500000E+005,  0.76492061592E+007,  0.16500000000E+002,  0.00000000000E+000,  0.10000000000E+001
  0.94959500000E+005,  0.75951428793E+007,  0.16500000000E+002,  0.00000000000E+000,  0.10000000000E+001
  0.94960500000E+005,  0.75475764005E+007,  0.16500000000E+002,  0.00000000000E+000,  0.10000000000E+001
  0.94961500000E+005,  0.75100101407E+007,  0.16500000000E+002,  0.00000000000E+000,  0.10000000000E+001
  0.94962500000E+005,  0.74876748541E+007,  0.16500000000E+002,  0.00000000000E+000,  0.10000000000E+001
  0.94963500000E+005,  0.74755346462E+007,  0.16500000000E+002,  0.00000000000E+000,  0.10000000000E+001
  0.94964500000E+005,  0.74686082940E+007,  0.16500000000E+002,  0.00000000000E+000,  0.10000000000E+001
  0.94965500000E+005,  0.74646025804E+007,  0.16500000000E+002,  0.00000000000E+000,  0.10000000000E+001
  0.94966500000E+005,  0.74629960252E+007,  0.16500000000E+002,  0.00000000000E+000,  0.10000000000E+001
  0.94967500000E+005,  0.74622385605E+007,  0.16500000000E+002,  0.00000000000E+000,  0.10000000000E+001
  0.94968500000E+005,  0.74602290419E+007,  0.16500000000E+002,  0.00000000000E+000,  0.10000000000E+001
  0.94969500000E+005,  0.74564507601E+007,  0.16500000000E+002,  0.00000000000E+000,  0.10000000000E+001
  0.94970500000E+005,  0.74503673207E+007,  0.16500000000E+002,  0.00000000000E+000,  0.10000000000E+001
  0.94971500000E+005,  0.74424757398E+007,  0.16500000000E+002,  0.00000000000E+000,  0.10000000000E+001
  0.94972500000E+005,  0.74353534293E+007,  0.16500000000E+002,  0.00000000000E+000,  0.10000000000E+001
  0.94973500000E+005,  0.74299955619E+007,  0.16500000000E+002,  0.00000000000E+000,  0.10000000000E+001
  0.94974500000E+005,  0.74255261848E+007,  0.16500000000E+002,  0.00000000000E+000,  0.10000000000E+001
  0.94975500000E+005,  0.74203842227E+007,  0.16500000000E+002,  0.00000000000E+000,  0.10000000000E+001
  0.94976500000E+005,  0.74142015500E+007,  0.16500000000E+002,  0.00000000000E+000,  0.10000000000E+001
  0.94977500000E+005,  0.74068823074E+007,  0.16500000000E+002,  0.00000000000E+000,  0.10000000000E+001
  0.94978500000E+005,  0.73989398682E+007,  0.16500000000E+002,  0.00000000000E+000,  0.10000000000E+001
  0.94979500000E+005,  0.73907875245E+007,  0.16500000000E+002,  0.00000000000E+000,  0.10000000000E+001
  0.94980500000E+005,  0.73831684546E+007,  0.16500000000E+002,  0.00000000000E+000,  0.10000000000E+001
  0.94981500000E+005,  0.73758329778E+007,  0.16500000000E+002,  0.00000000000E+000,  0.10000000000E+001
  0.94982500000E+005,  0.73689049513E+007,  0.16500000000E+002,  0.00000000000E+000,  0.10000000000E+001
  0.94983500000E+005,  0.73629852160E+007,  0.16500000000E+002,  0.00000000000E+000,  0.10000000000E+001
  0.94984500000E+005,  0.73575844603E+007,  0.16500000000E+002,  0.00000000000E+000,  0.10000000000E+001
  0.94985500000E+005,  0.73518881593E+007,  0.16500000000E+002,  0.00000000000E+000,  0.10000000000E+001
  0.94986500000E+005,  0.73454524166E+007,  0.16500000000E+002,  0.00000000000E+000,  0.10000000000E+001
  0.94987500000E+005,  0.73378252355E+007,  0.16500000000E+002,  0.00000000000E+000,  0.10000000000E+001
  0.94988500000E+005,  0.73289621058E+007,  0.16500000000E+002,  0.00000000000E+000,  0.10000000000E+001
  0.94989500000E+005,  0.73192289656E+007,  0.16500000000E+002,  0.00000000000E+000,  0.10000000000E+001
  0.94990500000E+005,  0.73093976728E+007,  0.16500000000E+002,  0.00000000000E+000,  0.10000000000E+001
  0.94991500000E+005,  0.73001931538E+007,  0.16500000000E+002,  0.00000000000E+000,  0.10000000000E+001
  0.94992500000E+005,  0.72921889448E+007,  0.16500000000E+002,  0.00000000000E+000,  0.10000000000E+001
  0.94993500000E+005,  0.72918869799E+007,  0.16500000000E+002,  0.00000000000E+000,  0.10000000000E+001
  0.94994500000E+005,  0.72960347165E+007,  0.16500000000E+002,  0.00000000000E+000,  0.10000000000E+001
  0.94995500000E+005,  0.72962572003E+007,  0.16500000000E+002,  0.00000000000E+000,  0.10000000000E+001
  0.94996500000E+005,  0.72868076618E+007,  0.16500000000E+002,  0.00000000000E+000,  0.10000000000E+001
  0.94997500000E+005,  0.72821544898E+007,  0.16500000000E+002,  0.00000000000E+000,  0.10000000000E+001
  0.94998500000E+005,  0.72779743354E+007,  0.16500000000E+002,  0.00000000000E+000,  0.10000000000E+001
  0.94999500000E+005,  0.72740487203E+007,  0.16500000000E+002,  0.00000000000E+000,  0.10000000000E+001
  0.95000500000E+005,  0.72708085186E+007,  0.16500000000E+002,  0.00000000000E+000,  0.10000000000E+001
  0.95001500000E+005,  0.72683793590E+007,  0.16500000000E+002,  0.00000000000E+000,  0.10000000000E+001
  0.95002500000E+005,  0.72666918151E+007,  0.16500000000E+002,  0.00000000000E+000,  0.10000000000E+001
  0.95003500000E+005,  0.72654156750E+007,  0.16500000000E+002,  0.00000000000E+000,  0.10000000000E+001
  0.95004500000E+005,  0.72643001900E+007,  0.16500000000E+002,  0.00000000000E+000,  0.10000000000E+001
  0.95005500000E+005,  0.72629467749E+007,  0.16500000000E+002,  0.00000000000E+000,  0.10000000000E+001
  0.95006500000E+005,  0.72611159104E+007,  0.16500000000E+002,  0.00000000000E+000,  0.10000000000E+001
  0.95007500000E+005,  0.72588220688E+007,  0.16500000000E+002,  0.00000000000E+000,  0.10000000000E+001
  0.95008500000E+005,  0.72560954629E+007,  0.16500000000E+002,  0.00000000000E+000,  0.10000000000E+001
  0.95009500000E+005,  0.72529339389E+007,  0.16500000000E+002,  0.00000000000E+000,  0.10000000000E+001
  0.95010500000E+005,  0.72493934572E+007,  0.16500000000E+002,  0.00000000000E+000,  0.10000000000E+001
  0.95011500000E+005,  0.72455658934E+007,  0.16500000000E+002,  0.00000000000E+000,  0.10000000000E+001
  0.95012500000E+005,  0.72415133894E+007,  0.16500000000E+002,  0.00000000000E+000,  0.10000000000E+001
  0.95013500000E+005,  0.72372153707E+007,  0.16500000000E+002,  0.00000000000E+000,  0.10000000000E+001
  0.95014500000E+005,  0.72327201964E+007,  0.16500000000E+002,  0.00000000000E+000,  0.10000000000E+001
  0.95015500000E+005,  0.72280787969E+007,  0.16500000000E+002,  0.00000000000E+000,  0.10000000000E+001
  0.95016500000E+005,  0.72233406686E+007,  0.16500000000E+002,  0.00000000000E+000,  0.10000000000E+001
  0.95017500000E+005,  0.72185207521E+007,  0.16500000000E+002,  0.00000000000E+000,  0.10000000000E+001
  0.95018500000E+005,  0.72136763538E+007,  0.16500000000E+002,  0.00000000000E+000,  0.10000000000E+001
  0.95019500000E+005,  0.72087860379E+007,  0.16500000000E+002,  0.00000000000E+000,  0.10000000000E+001
  0.95020500000E+005,  0.72038543149E+007,  0.16500000000E+002,  0.00000000000E+000,  0.10000000000E+001
  0.95021500000E+005,  0.72032089723E+007,  0.16500000000E+002,  0.00000000000E+000,  0.10000000000E+001
  0.95022500000E+005,  0.71996604031E+007,  0.16500000000E+002,  0.00000000000E+000,  0.10000000000E+001
  0.95023500000E+005,  0.71934048258E+007,  0.16500000000E+002,  0.00000000000E+000,  0.10000000000E+001
  0.95024500000E+005,  0.71818571744E+007,  0.16500000000E+002,  0.00000000000E+000,  0.10000000000E+001
  0.95025500000E+005,  0.71737048680E+007,  0.16500000000E+002,  0.00000000000E+000,  0.10000000000E+001
  0.95026500000E+005,  0.71656381367E+007,  0.16500000000E+002,  0.00000000000E+000,  0.10000000000E+001
  0.95027500000E+005,  0.71571952762E+007,  0.16500000000E+002,  0.00000000000E+000,  0.10000000000E+001
  0.95028500000E+005,  0.71483311823E+007,  0.16500000000E+002,  0.00000000000E+000,  0.10000000000E+001
  0.95029500000E+005,  0.71390236464E+007,  0.16500000000E+002,  0.00000000000E+000,  0.10000000000E+001
  0.95030500000E+005,  0.71292877270E+007,  0.16500000000E+002,  0.00000000000E+000,  0.10000000000E+001
  0.95031500000E+005,  0.71192174430E+007,  0.16500000000E+002,  0.00000000000E+000,  0.10000000000E+001
  0.95032500000E+005,  0.71088810900E+007,  0.16500000000E+002,  0.00000000000E+000,  0.10000000000E+001
  0.95033500000E+005,  0.70983389246E+007,  0.16500000000E+002,  0.00000000000E+000,  0.10000000000E+001
  0.95034500000E+005,  0.70876858629E+007,  0.16500000000E+002,  0.00000000000E+000,  0.10000000000E+001
  0.95035500000E+005,  0.70769976541E+007,  0.16500000000E+002,  0.00000000000E+000,  0.10000000000E+001
  0.95036500000E+005,  0.70664439097E+007,  0.16500000000E+002,  0.00000000000E+000,  0.10000000000E+001
  0.95037500000E+005,  0.70561223678E+007,  0.16500000000E+002,  0.00000000000E+000,  0.10000000000E+001
  0.95038500000E+005,  0.70460988471E+007,  0.16500000000E+002,  0.00000000000E+000,  0.10000000000E+001
  0.95039500000E+005,  0.70363500630E+007,  0.16500000000E+002,  0.00000000000E+000,  0.10000000000E+001
  0.95040500000E+005,  0.70269189088E+007,  0.16500000000E+002,  0.00000000000E+000,  0.10000000000E+001
  0.95041500000E+005,  0.70178057216E+007,  0.16500000000E+002,  0.00000000000E+000,  0.10000000000E+001
  0.95042500000E+005,  0.70091338425E+007,  0.16500000000E+002,  0.00000000000E+000,  0.10000000000E+001
  0.95043500000E+005,  0.70009744636E+007,  0.16500000000E+002,  0.00000000000E+000,  0.10000000000E+001
  0.95044500000E+005,  0.69933982207E+007,  0.16500000000E+002,  0.00000000000E+000,  0.10000000000E+001
  0.95045500000E+005,  0.69864509517E+007,  0.16500000000E+002,  0.00000000000E+000,  0.10000000000E+001
  0.95046500000E+005,  0.69801652809E+007,  0.16500000000E+002,  0.00000000000E+000,  0.10000000000E+001
  0.95047500000E+005,  0.69745303467E+007,  0.16500000000E+002,  0.00000000000E+000,  0.10000000000E+001
  0.95048500000E+005,  0.69694903351E+007,  0.16500000000E+002,  0.00000000000E+000,  0.10000000000E+001
  0.95049500000E+005,  0.69649245215E+007,  0.16500000000E+002,  0.00000000000E+000,  0.10000000000E+001
  0.95050500000E+005,  0.69606843414E+007,  0.16500000000E+002,  0.00000000000E+000,  0.10000000000E+001
  0.95051500000E+005,  0.69567145926E+007,  0.16500000000E+002,  0.00000000000E+000,  0.10000000000E+001
  0.95052500000E+005,  0.69529399865E+007,  0.16500000000E+002,  0.00000000000E+000,  0.10000000000E+001
  0.95053500000E+005,  0.69492938506E+007,  0.16500000000E+002,  0.00000000000E+000,  0.10000000000E+001
  0.95054500000E+005,  0.69457013083E+007,  0.16500000000E+002,  0.00000000000E+000,  0.10000000000E+001
  0.95055500000E+005,  0.69421045099E+007,  0.16500000000E+002,  0.00000000000E+000,  0.10000000000E+001
  0.95056500000E+005,  0.69384653177E+007,  0.16500000000E+002,  0.00000000000E+000,  0.10000000000E+001
  0.95057500000E+005,  0.69347577561E+007,  0.16500000000E+002,  0.00000000000E+000,  0.10000000000E+001
  0.95058500000E+005,  0.69309761256E+007,  0.16500000000E+002,  0.00000000000E+000,  0.10000000000E+001
  0.95059500000E+005,  0.69271274042E+007,  0.16500000000E+002,  0.00000000000E+000,  0.10000000000E+001
  0.95060500000E+005,  0.69232050084E+007,  0.16500000000E+002,  0.00000000000E+000,  0.10000000000E+001
  0.95061500000E+005,  0.69192139303E+007,  0.16500000000E+002,  0.00000000000E+000,  0.10000000000E+001
  0.95062500000E+005,  0.69151708916E+007,  0.16500000000E+002,  0.00000000000E+000,  0.10000000000E+001
  0.95063500000E+005,  0.69110753819E+007,  0.16500000000E+002,  0.00000000000E+000,  0.10000000000E+001
  0.95064500000E+005,  0.69069288589E+007,  0.16500000000E+002,  0.00000000000E+000,  0.10000000000E+001
  0.95065500000E+005,  0.69027236292E+007,  0.16500000000E+002,  0.00000000000E+000,  0.10000000000E+001
  0.95066500000E+005,  0.68984499008E+007,  0.16500000000E+002,  0.00000000000E+000,  0.10000000000E+001
