"           TIME(S)","              PRES","              TEMP","             SAT_G","             SAT_L"
  0.94895500000E+005,  0.10765313669E+007,  0.16500000000E+002,  0.00000000000E+000,  0.10000000000E+001
  0.94896500000E+005,  0.12286556806E+007,  0.16500000000E+002,  0.00000000000E+000,  0.10000000000E+001
  0.94897500000E+005,  0.13798247501E+007,  0.16500000000E+002,  0.00000000000E+000,  0.10000000000E+001
  0.94898500000E+005,  0.15300768592E+007,  0.16500000000E+002,  0.00000000000E+000,  0.10000000000E+001
  0.94899500000E+005,  0.16794432102E+007,  0.16500000000E+002,  0.00000000000E+000,  0.10000000000E+001
  0.94900500000E+005,  0.18279510201E+007,  0.16500000000E+002,  0.00000000000E+000,  0.10000000000E+001
  0.94901500000E+005,  0.19756239927E+007,  0.16500000000E+002,  0.00000000000E+000,  0.10000000000E+001
  0.94902500000E+005,  0.21224828704E+007,  0.16500000000E+002,  0.00000000000E+000,  0.10000000000E+001
  0.94903500000E+005,  0.22685457974E+007,  0.16500000000E+002,  0.00000000000E+000,  0.10000000000E+001
  0.94904500000E+005,  0.24138285042E+007,  0.16500000000E+002,  0.00000000000E+000,  0.10000000000E+001
  0.94905500000E+005,  0.25583447020E+007,  0.16500000000E+002,  0.00000000000E+000,  0.10000000000E+001
  0.94906500000E+005,  0.27021062604E+007,  0.16500000000E+002,  0.00000000000E+000,  0.10000000000E+001
  0.94907500000E+005,  0.28451232676E+007,  0.16500000000E+002,  0.00000000000E+000,  0.10000000000E+001
  0.94908500000E+005,  0.29874042592E+007,  0.16500000000E+002,  0.00000000000E+000,  0.10000000000E+001
  0.94909500000E+005,  0.31289562694E+007,  0.16500000000E+002,  0.00000000000E+000,  0.10000000000E+001
  0.94910500000E+005,  0.32697848785E+007,  0.16500000000E+002,  0.00000000000E+000,  0.10000000000E+001
  0.94911500000E+005,  0.34098945097E+007,  0.16500000000E+002,  0.00000000000E+000,  0.10000000000E+001
  0.94912500000E+005,  0.35492881514E+007,  0.16500000000E+002,  0.00000000000E+000,  0.10000000000E+001
  0.94913500000E+005,  0.36889980532E+007,  0.16500000000E+002,  0.00000000000E+000,  0.10000000000E+001
  0.94914500000E+005,  0.38271770758E+007,  0.16500000000E+002,  0.00000000000E+000,  0.10000000000E+001
  0.94915500000E+005,  0.39659457763E+007,  0.16500000000E+002,  0.00000000000E+000,  0.10000000000E+001
  0.94916500000E+005,  0.42469169179E+007,  0.16500000000E+002,  0.00000000000E+000,  0.10000000000E+001
  0.94917500000E+005,  0.44042764022E+007,  0.16500000000E+002,  0.00000000000E+000,  0.10000000000E+001
  0.94918500000E+005,  0.45478740749E+007,  0.16500000000E+002,  0.00000000000E+000,  0.10000000000E+001
  0.94919500000E+005,  0.46857401534E+007,  0.16500000000E+002,  0.00000000000E+000,  0.10000000000E+001
  0.94920500000E+005,  0.48189096204E+007,  0.16500000000E+002,  0.00000000000E+000,  0.10000000000E+001
  0.94921500000E+005,  0.49328699896E+007,  0.16500000000E+002,  0.00000000000E+000,  0.10000000000E+001
  0.94922500000E+005,  0.50307852903E+007,  0.16500000000E+002,  0.00000000000E+000,  0.10000000000E+001
  0.94923500000E+005,  0.51222293499E+007,  0.16500000000E+002,  0.00000000000E+000,  0.10000000000E+001
  0.94924500000E+005,  0.53218737844E+007,  0.16500000000E+002,  0.00000000000E+000,  0.10000000000E+001
  0.94925500000E+005,  0.54730986020E+007,  0.16500000000E+002,  0.00000000000E+000,  0.10000000000E+001
  0.94926500000E+005,  0.56140685242E+007,  0.16500000000E+002,  0.00000000000E+000,  0.10000000000E+001
  0.94927500000E+005,  0.58226926389E+007,  0.16500000000E+002,  0.00000000000E+000,  0.10000000000E+001
  0.94928500000E+005,  0.60225178333E+007,  0.16500000000E+002,  0.00000000000E+000,  0.10000000000E+001
  0.94929500000E+005,  0.62241159607E+007,  0.16500000000E+002,  0.00000000000E+000,  0.10000000000E+001
  0.94930500000E+005,  0.64943691235E+007,  0.16500000000E+002,  0.00000000000E+000,  0.10000000000E+001
  0.94931500000E+005,  0.68250482790E+007,  0.16500000000E+002,  0.00000000000E+000,  0.10000000000E+001
  0.94932500000E+005,  0.72196147722E+007,  0.16500000000E+002,  0.00000000000E+000,  0.10000000000E+001
  0.94933500000E+005,  0.76498909442E+007,  0.16500000000E+002,  0.00000000000E+000,  0.10000000000E+001
  0.94934500000E+005,  0.80352639685E+007,  0.16500000000E+002,  0.00000000000E+000,  0.10000000000E+001
  0.94935500000E+005,  0.83613054337E+007,  0.16500000000E+002,  0.00000000000E+000,  0.10000000000E+001
  0.94936500000E+005,  0.86137388841E+007,  0.16500000000E+002,  0.00000000000E+000,  0.10000000000E+001
  0.94937500000E+005,  0.88016213907E+007,  0.16500000000E+002,  0.00000000000E+000,  0.10000000000E+001
  0.94938500000E+005,  0.89425823028E+007,  0.16500000000E+002,  0.00000000000E+000,  0.10000000000E+001
  0.94939500000E+005,  0.90381493981E+007,  0.16500000000E+002,  0.00000000000E+000,  0.10000000000E+001
  0.94940500000E+005,  0.90826722391E+007,  0.16500000000E+002,  0.00000000000E+000,  0.10000000000E+001
  0.94941500000E+005,  0.90956060875E+007,  0.16500000000E+002,  0.00000000000E+000,  0.10000000000E+001
  0.94942500000E+005,  0.90941846886E+007,  0.16500000000E+002,  0.00000000000E+000,  0.10000000000E+001
  0.94943500000E+005,  0.90741039097E+007,  0.16500000000E+002,  0.00000000000E+000,  0.10000000000E+001
  0.94944500000E+005,  0.90329476730E+007,  0.16500000000E+002,  0.00000000000E+000,  0.10000000000E+001
  0.94945500000E+005,  0.89551693436E+007,  0.16500000000E+002,  0.00000000000E+000,  0.10000000000E+001
  0.94946500000E+005,  0.89836839650E+007,  0.16500000000E+002,  0.00000000000E+000,  0.10000000000E+001
  0.94947500000E+005,  0.90093646003E+007,  0.16500000000E+002,  0.00000000000E+000,  0.10000000000E+001
  0.94948500000E+005,  0.90333480959E+007,  0.16500000000E+002,  0.00000000000E+000,  0.10000000000E+001
  0.94949500000E+005,  0.90223679389E+007,  0.16500000000E+002,  0.00000000000E+000,  0.10000000000E+001
  0.94950500000E+005,  0.90170197179E+007,  0.16500000000E+002,  0.00000000000E+000,  0.10000000000E+001
  0.94951500000E+005,  0.90100889142E+007,  0.16500000000E+002,  0.00000000000E+000,  0.10000000000E+001
  0.94952500000E+005,  0.90116222446E+007,  0.16500000000E+002,  0.00000000000E+000,  0.10000000000E+001
  0.94953500000E+005,  0.90120605278E+007,  0.16500000000E+002,  0.00000000000E+000,  0.10000000000E+001
  0.94954500000E+005,  0.89992284879E+007,  0.16500000000E+002,  0.00000000000E+000,  0.10000000000E+001
  0.94955500000E+005,  0.89515560187E+007,  0.16500000000E+002,  0.00000000000E+000,  0.10000000000E+001
  0.94956500000E+005,  0.89104799217E+007,  0.16500000000E+002,  0.00000000000E+000,  0.10000000000E+001
  0.94957500000E+005,  0.88798132154E+007,  0.16500000000E+002,  0.00000000000E+000,  0.10000000000E+001
  0.94958500000E+005,  0.88549094107E+007,  0.16500000000E+002,  0.00000000000E+000,  0.10000000000E+001
  0.94959500000E+005,  0.88315358423E+007,  0.16500000000E+002,  0.00000000000E+000,  0.10000000000E+001
  0.94960500000E+005,  0.88076827453E+007,  0.16500000000E+002,  0.00000000000E+000,  0.10000000000E+001
  0.94961500000E+005,  0.87833071426E+007,  0.16500000000E+002,  0.00000000000E+000,  0.10000000000E+001
  0.94962500000E+005,  0.87596588880E+007,  0.16500000000E+002,  0.00000000000E+000,  0.10000000000E+001
  0.94963500000E+005,  0.87380871416E+007,  0.16500000000E+002,  0.00000000000E+000,  0.10000000000E+001
  0.94964500000E+005,  0.87199147498E+007,  0.16500000000E+002,  0.00000000000E+000,  0.10000000000E+001
  0.94965500000E+005,  0.87054874379E+007,  0.16500000000E+002,  0.00000000000E+000,  0.10000000000E+001
  0.94966500000E+005,  0.86945378563E+007,  0.16500000000E+002,  0.00000000000E+000,  0.10000000000E+001
  0.94967500000E+005,  0.86864838905E+007,  0.16500000000E+002,  0.00000000000E+000,  0.10000000000E+001
  0.94968500000E+005,  0.86807357772E+007,  0.16500000000E+002,  0.00000000000E+000,  0.10000000000E+001
  0.94969500000E+005,  0.86716743026E+007,  0.16500000000E+002,  0.00000000000E+000,  0.10000000000E+001
  0.94970500000E+005,  0.86592399918E+007,  0.16500000000E+002,  0.00000000000E+000,  0.10000000000E+001
  0.94971500000E+005,  0.86438699665E+007,  0.16500000000E+002,  0.00000000000E+000,  0.10000000000E+001
  0.94972500000E+005,  0.86275013950E+007,  0.16500000000E+002,  0.00000000000E+000,  0.10000000000E+001
  0.94973500000E+005,  0.86124457550E+007,  0.16500000000E+002,  0.00000000000E+000,  0.10000000000E+001
  0.94974500000E+005,  0.86002682691E+007,  0.16500000000E+002,  0.00000000000E+000,  0.10000000000E+001
  0.94975500000E+005,  0.85913536986E+007,  0.16500000000E+002,  0.00000000000E+000,  0.10000000000E+001
  0.94976500000E+005,  0.85852672198E+007,  0.16500000000E+002,  0.00000000000E+000,  0.10000000000E+001
  0.94977500000E+005,  0.85814856612E+007,  0.16500000000E+002,  0.00000000000E+000,  0.10000000000E+001
  0.94978500000E+005,  0.85793529951E+007,  0.16500000000E+002,  0.00000000000E+000,  0.10000000000E+001
  0.94979500000E+005,  0.85778821863E+007,  0.16500000000E+002,  0.00000000000E+000,  0.10000000000E+001
  0.94980500000E+005,  0.85765499954E+007,  0.16500000000E+002,  0.00000000000E+000,  0.10000000000E+001
  0.94981500000E+005,  0.85746848741E+007,  0.16500000000E+002,  0.00000000000E+000,  0.10000000000E+001
  0.94982500000E+005,  0.85715192917E+007,  0.16500000000E+002,  0.00000000000E+000,  0.10000000000E+001
  0.94983500000E+005,  0.85668807510E+007,  0.16500000000E+002,  0.00000000000E+000,  0.10000000000E+001
  0.94984500000E+005,  0.85607528606E+007,  0.16500000000E+002,  0.00000000000E+000,  0.10000000000E+001
  0.94985500000E+005,  0.85530429182E+007,  0.16500000000E+002,  0.00000000000E+000,  0.10000000000E+001
  0.94986500000E+005,  0.85440774653E+007,  0.16500000000E+002,  0.00000000000E+000,  0.10000000000E+001
  0.94987500000E+005,  0.85344543002E+007,  0.16500000000E+002,  0.00000000000E+000,  0.10000000000E+001
  0.94988500000E+005,  0.85245015101E+007,  0.16500000000E+002,  0.00000000000E+000,  0.10000000000E+001
  0.94989500000E+005,  0.85140156813E+007,  0.16500000000E+002,  0.00000000000E+000,  0.10000000000E+001
  0.94990500000E+005,  0.85028766579E+007,  0.16500000000E+002,  0.00000000000E+000,  0.10000000000E+001
  0.94991500000E+005,  0.84911685853E+007,  0.16500000000E+002,  0.00000000000E+000,  0.10000000000E+001
  0.94992500000E+005,  0.84792212800E+007,  0.16500000000E+002,  0.00000000000E+000,  0.10000000000E+001
  0.94993500000E+005,  0.84790245711E+007,  0.16500000000E+002,  0.00000000000E+000,  0.10000000000E+001
  0.94994500000E+005,  0.84895033631E+007,  0.16500000000E+002,  0.00000000000E+000,  0.10000000000E+001
  0.94995500000E+005,  0.84963156763E+007,  0.16500000000E+002,  0.00000000000E+000,  0.10000000000E+001
  0.94996500000E+005,  0.84838181138E+007,  0.16500000000E+002,  0.00000000000E+000,  0.10000000000E+001
  0.94997500000E+005,  0.84722698366E+007,  0.16500000000E+002,  0.00000000000E+000,  0.10000000000E+001
  0.94998500000E+005,  0.84619551958E+007,  0.16500000000E+002,  0.00000000000E+000,  0.10000000000E+001
  0.94999500000E+005,  0.84524205462E+007,  0.16500000000E+002,  0.00000000000E+000,  0.10000000000E+001
  0.95000500000E+005,  0.84434806033E+007,  0.16500000000E+002,  0.00000000000E+000,  0.10000000000E+001
  0.95001500000E+005,  0.84347786112E+007,  0.16500000000E+002,  0.00000000000E+000,  0.10000000000E+001
  0.95002500000E+005,  0.84259805295E+007,  0.16500000000E+002,  0.00000000000E+000,  0.10000000000E+001
  0.95003500000E+005,  0.84168148044E+007,  0.16500000000E+002,  0.00000000000E+000,  0.10000000000E+001
  0.95004500000E+005,  0.84070795132E+007,  0.16500000000E+002,  0.00000000000E+000,  0.10000000000E+001
  0.95005500000E+005,  0.83966171403E+007,  0.16500000000E+002,  0.00000000000E+000,  0.10000000000E+001
  0.95006500000E+005,  0.83855038522E+007,  0.16500000000E+002,  0.00000000000E+000,  0.10000000000E+001
  0.95007500000E+005,  0.83740069401E+007,  0.16500000000E+002,  0.00000000000E+000,  0.10000000000E+001
  0.95008500000E+005,  0.83621548425E+007,  0.16500000000E+002,  0.00000000000E+000,  0.10000000000E+001
  0.95009500000E+005,  0.83503260594E+007,  0.16500000000E+002,  0.00000000000E+000,  0.10000000000E+001
  0.95010500000E+005,  0.83389270694E+007,  0.16500000000E+002,  0.00000000000E+000,  0.10000000000E+001
  0.95011500000E+005,  0.83280180785E+007,  0.16500000000E+002,  0.00000000000E+000,  0.10000000000E+001
  0.95012500000E+005,  0.83170486076E+007,  0.16500000000E+002,  0.00000000000E+000,  0.10000000000E+001
  0.95013500000E+005,  0.83056165748E+007,  0.16500000000E+002,  0.00000000000E+000,  0.10000000000E+001
  0.95014500000E+005,  0.82936048254E+007,  0.16500000000E+002,  0.00000000000E+000,  0.10000000000E+001
  0.95015500000E+005,  0.82809834793E+007,  0.16500000000E+002,  0.00000000000E+000,  0.10000000000E+001
  0.95016500000E+005,  0.82682333477E+007,  0.16500000000E+002,  0.00000000000E+000,  0.10000000000E+001
  0.95017500000E+005,  0.82558323770E+007,  0.16500000000E+002,  0.00000000000E+000,  0.10000000000E+001
  0.95018500000E+005,  0.82437633943E+007,  0.16500000000E+002,  0.00000000000E+000,  0.10000000000E+001
  0.95019500000E+005,  0.82320431284E+007,  0.16500000000E+002,  0.00000000000E+000,  0.10000000000E+001
  0.95020500000E+005,  0.82202900847E+007,  0.16500000000E+002,  0.00000000000E+000,  0.10000000000E+001
  0.95021500000E+005,  0.82170893950E+007,  0.16500000000E+002,  0.00000000000E+000,  0.10000000000E+001
  0.95022500000E+005,  0.82125221969E+007,  0.16500000000E+002,  0.00000000000E+000,  0.10000000000E+001
  0.95023500000E+005,  0.82029394132E+007,  0.16500000000E+002,  0.00000000000E+000,  0.10000000000E+001
  0.95024500000E+005,  0.81817446505E+007,  0.16500000000E+002,  0.00000000000E+000,  0.10000000000E+001
  0.95025500000E+005,  0.81635394470E+007,  0.16500000000E+002,  0.00000000000E+000,  0.10000000000E+001
  0.95026500000E+005,  0.81483054707E+007,  0.16500000000E+002,  0.00000000000E+000,  0.10000000000E+001
  0.95027500000E+005,  0.81351651125E+007,  0.16500000000E+002,  0.00000000000E+000,  0.10000000000E+001
  0.95028500000E+005,  0.81236939144E+007,  0.16500000000E+002,  0.00000000000E+000,  0.10000000000E+001
  0.95029500000E+005,  0.81136697725E+007,  0.16500000000E+002,  0.00000000000E+000,  0.10000000000E+001
  0.95030500000E+005,  0.81048784425E+007,  0.16500000000E+002,  0.00000000000E+000,  0.10000000000E+001
  0.95031500000E+005,  0.80971954796E+007,  0.16500000000E+002,  0.00000000000E+000,  0.10000000000E+001
  0.95032500000E+005,  0.80905459091E+007,  0.16500000000E+002,  0.00000000000E+000,  0.10000000000E+001
  0.95033500000E+005,  0.80848137136E+007,  0.16500000000E+002,  0.00000000000E+000,  0.10000000000E+001
  0.95034500000E+005,  0.80799134855E+007,  0.16500000000E+002,  0.00000000000E+000,  0.10000000000E+001
  0.95035500000E+005,  0.80757286143E+007,  0.16500000000E+002,  0.00000000000E+000,  0.10000000000E+001
  0.95036500000E+005,  0.80721643169E+007,  0.16500000000E+002,  0.00000000000E+000,  0.10000000000E+001
  0.95037500000E+005,  0.80691210911E+007,  0.16500000000E+002,  0.00000000000E+000,  0.10000000000E+001
  0.95038500000E+005,  0.80664505739E+007,  0.16500000000E+002,  0.00000000000E+000,  0.10000000000E+001
  0.95039500000E+005,  0.80640150126E+007,  0.16500000000E+002,  0.00000000000E+000,  0.10000000000E+001
  0.95040500000E+005,  0.80617023049E+007,  0.16500000000E+002,  0.00000000000E+000,  0.10000000000E+001
  0.95041500000E+005,  0.80594352786E+007,  0.16500000000E+002,  0.00000000000E+000,  0.10000000000E+001
  0.95042500000E+005,  0.80572285539E+007,  0.16500000000E+002,  0.00000000000E+000,  0.10000000000E+001
  0.95043500000E+005,  0.80551544343E+007,  0.16500000000E+002,  0.00000000000E+000,  0.10000000000E+001
  0.95044500000E+005,  0.80532748083E+007,  0.16500000000E+002,  0.00000000000E+000,  0.10000000000E+001
  0.95045500000E+005,  0.80516112245E+007,  0.16500000000E+002,  0.00000000000E+000,  0.10000000000E+001
  0.95046500000E+005,  0.80502307879E+007,  0.16500000000E+002,  0.00000000000E+000,  0.10000000000E+001
  0.95047500000E+005,  0.80491212925E+007,  0.16500000000E+002,  0.00000000000E+000,  0.10000000000E+001
  0.95048500000E+005,  0.80482534779E+007,  0.16500000000E+002,  0.00000000000E+000,  0.10000000000E+001
  0.95049500000E+005,  0.80475627524E+007,  0.16500000000E+002,  0.00000000000E+000,  0.10000000000E+001
  0.95050500000E+005,  0.80469958334E+007,  0.16500000000E+002,  0.00000000000E+000,  0.10000000000E+001
  0.95051500000E+005,  0.80465192727E+007,  0.16500000000E+002,  0.00000000000E+000,  0.10000000000E+001
  0.95052500000E+005,  0.80459681377E+007,  0.16500000000E+002,  0.00000000000E+000,  0.10000000000E+001
  0.95053500000E+005,  0.80446914652E+007,  0.16500000000E+002,  0.00000000000E+000,  0.10000000000E+001
  0.95054500000E+005,  0.80425416801E+007,  0.16500000000E+002,  0.00000000000E+000,  0.10000000000E+001
  0.95055500000E+005,  0.80397244246E+007,  0.16500000000E+002,  0.00000000000E+000,  0.10000000000E+001
  0.95056500000E+005,  0.80363827120E+007,  0.16500000000E+002,  0.00000000000E+000,  0.10000000000E+001
  0.95057500000E+005,  0.80327474840E+007,  0.16500000000E+002,  0.00000000000E+000,  0.10000000000E+001
  0.95058500000E+005,  0.80289815818E+007,  0.16500000000E+002,  0.00000000000E+000,  0.10000000000E+001
  0.95059500000E+005,  0.80252601856E+007,  0.16500000000E+002,  0.00000000000E+000,  0.10000000000E+001
  0.95060500000E+005,  0.80216989254E+007,  0.16500000000E+002,  0.00000000000E+000,  0.10000000000E+001
  0.95061500000E+005,  0.80182871525E+007,  0.16500000000E+002,  0.00000000000E+000,  0.10000000000E+001
  0.95062500000E+005,  0.80149331651E+007,  0.16500000000E+002,  0.00000000000E+000,  0.10000000000E+001
  0.95063500000E+005,  0.80117486817E+007,  0.16500000000E+002,  0.00000000000E+000,  0.10000000000E+001
  0.95064500000E+005,  0.80087530758E+007,  0.16500000000E+002,  0.00000000000E+000,  0.10000000000E+001
  0.95065500000E+005,  0.80059816842E+007,  0.16500000000E+002,  0.00000000000E+000,  0.10000000000E+001
  0.95066500000E+005,  0.80034529485E+007,  0.16500000000E+002,  0.00000000000E+000,  0.10000000000E+001
  0.95067500000E+005,  0.80011673466E+007,  0.16500000000E+002,  0.00000000000E+000,  0.10000000000E+001
  0.95068500000E+005,  0.79991226287E+007,  0.16500000000E+002,  0.00000000000E+000,  0.10000000000E+001
  0.95069500000E+005,  0.79973081908E+007,  0.16500000000E+002,  0.00000000000E+000,  0.10000000000E+001
  0.95070500000E+005,  0.79957264730E+007,  0.16500000000E+002,  0.00000000000E+000,  0.10000000000E+001
  0.95071500000E+005,  0.79943714851E+007,  0.16500000000E+002,  0.00000000000E+000,  0.10000000000E+001
  0.95072500000E+005,  0.79932431810E+007,  0.16500000000E+002,  0.00000000000E+000,  0.10000000000E+001
  0.95073500000E+005,  0.79923434538E+007,  0.16500000000E+002,  0.00000000000E+000,  0.10000000000E+001
  0.95074500000E+005,  0.79916714697E+007,  0.16500000000E+002,  0.00000000000E+000,  0.10000000000E+001
  0.95075500000E+005,  0.79912422365E+007,  0.16500000000E+002,  0.00000000000E+000,  0.10000000000E+001
  0.95076500000E+005,  0.79910720872E+007,  0.16500000000E+002,  0.00000000000E+000,  0.10000000000E+001
  0.95077500000E+005,  0.79911506715E+007,  0.16500000000E+002,  0.00000000000E+000,  0.10000000000E+001
  0.95078500000E+005,  0.79914772082E+007,  0.16500000000E+002,  0.00000000000E+000,  0.10000000000E+001
  0.95079500000E+005,  0.79920384174E+007,  0.16500000000E+002,  0.00000000000E+000,  0.10000000000E+001
  0.95080500000E+005,  0.79928269615E+007,  0.16500000000E+002,  0.00000000000E+000,  0.10000000000E+001
  0.95081500000E+005,  0.79938302436E+007,  0.16500000000E+002,  0.00000000000E+000,  0.10000000000E+001
  0.95082500000E+005,  0.79950267957E+007,  0.16500000000E+002,  0.00000000000E+000,  0.10000000000E+001
  0.95083500000E+005,  0.79964027487E+007,  0.16500000000E+002,  0.00000000000E+000,  0.10000000000E+001
