"           TIME(S)","              PRES","              TEMP","             SAT_G","             SAT_L"
  0.94860000000E+005,  0.99952876301E+006,  0.16500000000E+002,  0.00000000000E+000,  0.10000000000E+001
  0.94870000000E+005,  0.99952876301E+006,  0.16500000000E+002,  0.00000000000E+000,  0.10000000000E+001
  0.94872000000E+005,  0.99952876301E+006,  0.16500000000E+002,  0.00000000000E+000,  0.10000000000E+001
  0.94874000000E+005,  0.99952876301E+006,  0.16500000000E+002,  0.00000000000E+000,  0.10000000000E+001
  0.94876000000E+005,  0.99952876301E+006,  0.16500000000E+002,  0.00000000000E+000,  0.10000000000E+001
  0.94878000000E+005,  0.99952876301E+006,  0.16500000000E+002,  0.00000000000E+000,  0.10000000000E+001
  0.94880000000E+005,  0.99952876301E+006,  0.16500000000E+002,  0.00000000000E+000,  0.10000000000E+001
  0.94882000000E+005,  0.12671162178E+007,  0.16500000000E+002,  0.00000000000E+000,  0.10000000000E+001
  0.94884000000E+005,  0.24805227830E+007,  0.16500000000E+002,  0.00000000000E+000,  0.10000000000E+001
  0.94886000000E+005,  0.36785954375E+007,  0.16500000000E+002,  0.00000000000E+000,  0.10000000000E+001
  0.94888000000E+005,  0.48515699360E+007,  0.16500000000E+002,  0.00000000000E+000,  0.10000000000E+001
  0.94890000000E+005,  0.59783784718E+007,  0.16500000000E+002,  0.00000000000E+000,  0.10000000000E+001
  0.94892000000E+005,  0.69827939956E+007,  0.16500000000E+002,  0.00000000000E+000,  0.10000000000E+001
  0.94894000000E+005,  0.77203521606E+007,  0.16500000000E+002,  0.00000000000E+000,  0.10000000000E+001
  0.94896000000E+005,  0.80558623549E+007,  0.16500000000E+002,  0.00000000000E+000,  0.10000000000E+001
  0.94898000000E+005,  0.80695279467E+007,  0.16500000000E+002,  0.00000000000E+000,  0.10000000000E+001
  0.94900000000E+005,  0.79512252814E+007,  0.16500000000E+002,  0.00000000000E+000,  0.10000000000E+001
  0.94902000000E+005,  0.80022686385E+007,  0.16500000000E+002,  0.00000000000E+000,  0.10000000000E+001
  0.94904000000E+005,  0.80633437455E+007,  0.16500000000E+002,  0.00000000000E+000,  0.10000000000E+001
  0.94906000000E+005,  0.80207047237E+007,  0.16500000000E+002,  0.00000000000E+000,  0.10000000000E+001
  0.94908000000E+005,  0.78403251476E+007,  0.16500000000E+002,  0.00000000000E+000,  0.10000000000E+001
  0.94910000000E+005,  0.76262933577E+007,  0.16500000000E+002,  0.00000000000E+000,  0.10000000000E+001
  0.94912000000E+005,  0.75124333637E+007,  0.16500000000E+002,  0.00000000000E+000,  0.10000000000E+001
  0.94914000000E+005,  0.74551815740E+007,  0.16500000000E+002,  0.00000000000E+000,  0.10000000000E+001
  0.94916000000E+005,  0.75227637572E+007,  0.16500000000E+002,  0.00000000000E+000,  0.10000000000E+001
  0.94918000000E+005,  0.76043513109E+007,  0.16500000000E+002,  0.00000000000E+000,  0.10000000000E+001
  0.94920000000E+005,  0.74769389304E+007,  0.16500000000E+002,  0.00000000000E+000,  0.10000000000E+001
  0.94922000000E+005,  0.73443982569E+007,  0.16500000000E+002,  0.00000000000E+000,  0.10000000000E+001
  0.94924000000E+005,  0.73270346526E+007,  0.16500000000E+002,  0.00000000000E+000,  0.10000000000E+001
  0.94926000000E+005,  0.74806542797E+007,  0.16500000000E+002,  0.00000000000E+000,  0.10000000000E+001
  0.94928000000E+005,  0.76763638082E+007,  0.16500000000E+002,  0.00000000000E+000,  0.10000000000E+001
  0.94930000000E+005,  0.79351756856E+007,  0.16500000000E+002,  0.00000000000E+000,  0.10000000000E+001
  0.94932000000E+005,  0.84350817692E+007,  0.16500000000E+002,  0.00000000000E+000,  0.10000000000E+001
  0.94934000000E+005,  0.89714796950E+007,  0.16500000000E+002,  0.00000000000E+000,  0.10000000000E+001
  0.94936000000E+005,  0.91074357027E+007,  0.16500000000E+002,  0.00000000000E+000,  0.10000000000E+001
  0.94938000000E+005,  0.90189556689E+007,  0.16500000000E+002,  0.00000000000E+000,  0.10000000000E+001
  0.94940000000E+005,  0.88749636852E+007,  0.16500000000E+002,  0.00000000000E+000,  0.10000000000E+001
  0.94942000000E+005,  0.87248328871E+007,  0.16500000000E+002,  0.00000000000E+000,  0.10000000000E+001
  0.94944000000E+005,  0.86135113263E+007,  0.16500000000E+002,  0.00000000000E+000,  0.10000000000E+001
  0.94946000000E+005,  0.86013428398E+007,  0.16500000000E+002,  0.00000000000E+000,  0.10000000000E+001
  0.94948000000E+005,  0.87554369616E+007,  0.16500000000E+002,  0.00000000000E+000,  0.10000000000E+001
  0.94950000000E+005,  0.87592232897E+007,  0.16500000000E+002,  0.00000000000E+000,  0.10000000000E+001
  0.94952000000E+005,  0.87135634397E+007,  0.16500000000E+002,  0.00000000000E+000,  0.10000000000E+001
  0.94954000000E+005,  0.86583249827E+007,  0.16500000000E+002,  0.00000000000E+000,  0.10000000000E+001
  0.94956000000E+005,  0.85585930093E+007,  0.16500000000E+002,  0.00000000000E+000,  0.10000000000E+001
  0.94958000000E+005,  0.84860471686E+007,  0.16500000000E+002,  0.00000000000E+000,  0.10000000000E+001
  0.94960000000E+005,  0.84335484203E+007,  0.16500000000E+002,  0.00000000000E+000,  0.10000000000E+001
  0.94962000000E+005,  0.83850382071E+007,  0.16500000000E+002,  0.00000000000E+000,  0.10000000000E+001
  0.94964000000E+005,  0.83562177237E+007,  0.16500000000E+002,  0.00000000000E+000,  0.10000000000E+001
  0.94966000000E+005,  0.83434307954E+007,  0.16500000000E+002,  0.00000000000E+000,  0.10000000000E+001
  0.94968000000E+005,  0.83248044664E+007,  0.16500000000E+002,  0.00000000000E+000,  0.10000000000E+001
  0.94970000000E+005,  0.82989657241E+007,  0.16500000000E+002,  0.00000000000E+000,  0.10000000000E+001
  0.94972000000E+005,  0.82732462440E+007,  0.16500000000E+002,  0.00000000000E+000,  0.10000000000E+001
  0.94974000000E+005,  0.82488423884E+007,  0.16500000000E+002,  0.00000000000E+000,  0.10000000000E+001
  0.94976000000E+005,  0.82433560333E+007,  0.16500000000E+002,  0.00000000000E+000,  0.10000000000E+001
  0.94978000000E+005,  0.82413670645E+007,  0.16500000000E+002,  0.00000000000E+000,  0.10000000000E+001
  0.94980000000E+005,  0.82389507729E+007,  0.16500000000E+002,  0.00000000000E+000,  0.10000000000E+001
  0.94982000000E+005,  0.82336474235E+007,  0.16500000000E+002,  0.00000000000E+000,  0.10000000000E+001
  0.94984000000E+005,  0.82247366962E+007,  0.16500000000E+002,  0.00000000000E+000,  0.10000000000E+001
  0.94986000000E+005,  0.82118752357E+007,  0.16500000000E+002,  0.00000000000E+000,  0.10000000000E+001
  0.94988000000E+005,  0.81932507442E+007,  0.16500000000E+002,  0.00000000000E+000,  0.10000000000E+001
  0.94990000000E+005,  0.81712666072E+007,  0.16500000000E+002,  0.00000000000E+000,  0.10000000000E+001
  0.94992000000E+005,  0.81483721653E+007,  0.16500000000E+002,  0.00000000000E+000,  0.10000000000E+001
  0.94994000000E+005,  0.81463336696E+007,  0.16500000000E+002,  0.00000000000E+000,  0.10000000000E+001
  0.94996000000E+005,  0.81392549664E+007,  0.16500000000E+002,  0.00000000000E+000,  0.10000000000E+001
  0.94998000000E+005,  0.80893225170E+007,  0.16500000000E+002,  0.00000000000E+000,  0.10000000000E+001
  0.95000000000E+005,  0.80696798310E+007,  0.16500000000E+002,  0.00000000000E+000,  0.10000000000E+001
  0.95010000000E+005,  0.81725850162E+007,  0.16500000000E+002,  0.00000000000E+000,  0.10000000000E+001
  0.95020000000E+005,  0.80863745631E+007,  0.16500000000E+002,  0.00000000000E+000,  0.10000000000E+001
  0.95030000000E+005,  0.80216042145E+007,  0.16500000000E+002,  0.00000000000E+000,  0.10000000000E+001
  0.95040000000E+005,  0.79677383921E+007,  0.16500000000E+002,  0.00000000000E+000,  0.10000000000E+001
  0.95050000000E+005,  0.79010469520E+007,  0.16500000000E+002,  0.00000000000E+000,  0.10000000000E+001
  0.95060000000E+005,  0.78387571231E+007,  0.16500000000E+002,  0.00000000000E+000,  0.10000000000E+001
  0.95070000000E+005,  0.78387491906E+007,  0.16500000000E+002,  0.00000000000E+000,  0.10000000000E+001
  0.95080000000E+005,  0.78579365585E+007,  0.16500000000E+002,  0.00000000000E+000,  0.10000000000E+001
  0.95090000000E+005,  0.78925518457E+007,  0.16500000000E+002,  0.00000000000E+000,  0.10000000000E+001
  0.95100000000E+005,  0.79038568216E+007,  0.16500000000E+002,  0.00000000000E+000,  0.10000000000E+001
  0.95110000000E+005,  0.78893065390E+007,  0.16500000000E+002,  0.00000000000E+000,  0.10000000000E+001
  0.95120000000E+005,  0.78691477521E+007,  0.16500000000E+002,  0.00000000000E+000,  0.10000000000E+001
  0.95128100000E+005,  0.78364038241E+007,  0.16500000000E+002,  0.00000000000E+000,  0.10000000000E+001
  0.95138100000E+005,  0.78217850800E+007,  0.16500000000E+002,  0.00000000000E+000,  0.10000000000E+001
  0.95148100000E+005,  0.78090022408E+007,  0.16500000000E+002,  0.00000000000E+000,  0.10000000000E+001
  0.95158100000E+005,  0.78026953963E+007,  0.16500000000E+002,  0.00000000000E+000,  0.10000000000E+001
  0.95168100000E+005,  0.78027937932E+007,  0.16500000000E+002,  0.00000000000E+000,  0.10000000000E+001
  0.95178100000E+005,  0.78053309317E+007,  0.16500000000E+002,  0.00000000000E+000,  0.10000000000E+001
  0.95188100000E+005,  0.78159690469E+007,  0.16500000000E+002,  0.00000000000E+000,  0.10000000000E+001
  0.95198100000E+005,  0.78257255235E+007,  0.16500000000E+002,  0.00000000000E+000,  0.10000000000E+001
  0.95208100000E+005,  0.78443251260E+007,  0.16500000000E+002,  0.00000000000E+000,  0.10000000000E+001
  0.95218100000E+005,  0.78440485109E+007,  0.16500000000E+002,  0.00000000000E+000,  0.10000000000E+001
  0.95228100000E+005,  0.78380557579E+007,  0.16500000000E+002,  0.00000000000E+000,  0.10000000000E+001
  0.95238100000E+005,  0.78450638092E+007,  0.16500000000E+002,  0.00000000000E+000,  0.10000000000E+001
  0.95248100000E+005,  0.78776574550E+007,  0.16500000000E+002,  0.00000000000E+000,  0.10000000000E+001
  0.95258100000E+005,  0.78955525081E+007,  0.16500000000E+002,  0.00000000000E+000,  0.10000000000E+001
  0.95268100000E+005,  0.78885434001E+007,  0.16500000000E+002,  0.00000000000E+000,  0.10000000000E+001
  0.95278100000E+005,  0.78802239468E+007,  0.16500000000E+002,  0.00000000000E+000,  0.10000000000E+001
  0.95288100000E+005,  0.78763500587E+007,  0.16500000000E+002,  0.00000000000E+000,  0.10000000000E+001
  0.95298100000E+005,  0.78714766247E+007,  0.16500000000E+002,  0.00000000000E+000,  0.10000000000E+001
  0.95308100000E+005,  0.78636034360E+007,  0.16500000000E+002,  0.00000000000E+000,  0.10000000000E+001
  0.95318100000E+005,  0.78564668476E+007,  0.16500000000E+002,  0.00000000000E+000,  0.10000000000E+001
  0.95328100000E+005,  0.78507577135E+007,  0.16500000000E+002,  0.00000000000E+000,  0.10000000000E+001
  0.95338100000E+005,  0.78454305679E+007,  0.16500000000E+002,  0.00000000000E+000,  0.10000000000E+001
  0.95348100000E+005,  0.78410213259E+007,  0.16500000000E+002,  0.00000000000E+000,  0.10000000000E+001
  0.95358100000E+005,  0.78520438593E+007,  0.16500000000E+002,  0.00000000000E+000,  0.10000000000E+001
  0.95368100000E+005,  0.78831801104E+007,  0.16500000000E+002,  0.00000000000E+000,  0.10000000000E+001
  0.95378100000E+005,  0.78995791145E+007,  0.16500000000E+002,  0.00000000000E+000,  0.10000000000E+001
  0.95388100000E+005,  0.78882333343E+007,  0.16500000000E+002,  0.00000000000E+000,  0.10000000000E+001
  0.95398100000E+005,  0.78733573294E+007,  0.16500000000E+002,  0.00000000000E+000,  0.10000000000E+001
  0.95398200000E+005,  0.78735059346E+007,  0.16500000000E+002,  0.00000000000E+000,  0.10000000000E+001
  0.95408200000E+005,  0.78610426774E+007,  0.16500000000E+002,  0.00000000000E+000,  0.10000000000E+001
  0.95418200000E+005,  0.78507539968E+007,  0.16500000000E+002,  0.00000000000E+000,  0.10000000000E+001
  0.95428200000E+005,  0.78431385566E+007,  0.16500000000E+002,  0.00000000000E+000,  0.10000000000E+001
  0.95438200000E+005,  0.78380782285E+007,  0.16500000000E+002,  0.00000000000E+000,  0.10000000000E+001
  0.95448200000E+005,  0.78313094729E+007,  0.16500000000E+002,  0.00000000000E+000,  0.10000000000E+001
  0.95458200000E+005,  0.78234276391E+007,  0.16500000000E+002,  0.00000000000E+000,  0.10000000000E+001
  0.95468200000E+005,  0.78151132223E+007,  0.16500000000E+002,  0.00000000000E+000,  0.10000000000E+001
  0.95478200000E+005,  0.78064791028E+007,  0.16500000000E+002,  0.00000000000E+000,  0.10000000000E+001
  0.95488200000E+005,  0.77981876502E+007,  0.16500000000E+002,  0.00000000000E+000,  0.10000000000E+001
  0.95498200000E+005,  0.77918570144E+007,  0.16500000000E+002,  0.00000000000E+000,  0.10000000000E+001
  0.95508200000E+005,  0.77865624589E+007,  0.16500000000E+002,  0.00000000000E+000,  0.10000000000E+001
  0.95518200000E+005,  0.77813327773E+007,  0.16500000000E+002,  0.00000000000E+000,  0.10000000000E+001
  0.95528200000E+005,  0.77747577684E+007,  0.16500000000E+002,  0.00000000000E+000,  0.10000000000E+001
  0.95538200000E+005,  0.77685483238E+007,  0.16500000000E+002,  0.00000000000E+000,  0.10000000000E+001
  0.95548200000E+005,  0.77635313550E+007,  0.16500000000E+002,  0.00000000000E+000,  0.10000000000E+001
  0.95558200000E+005,  0.77593107902E+007,  0.16500000000E+002,  0.00000000000E+000,  0.10000000000E+001
  0.95568200000E+005,  0.77532708145E+007,  0.16500000000E+002,  0.00000000000E+000,  0.10000000000E+001
  0.95578200000E+005,  0.77456449485E+007,  0.16500000000E+002,  0.00000000000E+000,  0.10000000000E+001
  0.95588200000E+005,  0.77350762696E+007,  0.16500000000E+002,  0.00000000000E+000,  0.10000000000E+001
  0.95598200000E+005,  0.77256308085E+007,  0.16500000000E+002,  0.00000000000E+000,  0.10000000000E+001
  0.95608200000E+005,  0.77219448065E+007,  0.16500000000E+002,  0.00000000000E+000,  0.10000000000E+001
  0.95618200000E+005,  0.77222793790E+007,  0.16500000000E+002,  0.00000000000E+000,  0.10000000000E+001
  0.95628200000E+005,  0.77270124280E+007,  0.16500000000E+002,  0.00000000000E+000,  0.10000000000E+001
  0.95638200000E+005,  0.77263268968E+007,  0.16500000000E+002,  0.00000000000E+000,  0.10000000000E+001
  0.95648200000E+005,  0.77216265169E+007,  0.16500000000E+002,  0.00000000000E+000,  0.10000000000E+001
  0.95658200000E+005,  0.77158199907E+007,  0.16500000000E+002,  0.00000000000E+000,  0.10000000000E+001
  0.95668200000E+005,  0.77160847621E+007,  0.16500000000E+002,  0.00000000000E+000,  0.10000000000E+001
  0.95668300000E+005,  0.77164083787E+007,  0.16500000000E+002,  0.00000000000E+000,  0.10000000000E+001
  0.95678300000E+005,  0.77159161667E+007,  0.16500000000E+002,  0.00000000000E+000,  0.10000000000E+001
  0.95688300000E+005,  0.77181701262E+007,  0.16500000000E+002,  0.00000000000E+000,  0.10000000000E+001
  0.95698300000E+005,  0.77276031503E+007,  0.16500000000E+002,  0.00000000000E+000,  0.10000000000E+001
  0.95708300000E+005,  0.77460404864E+007,  0.16500000000E+002,  0.00000000000E+000,  0.10000000000E+001
  0.95718300000E+005,  0.77553281323E+007,  0.16500000000E+002,  0.00000000000E+000,  0.10000000000E+001
  0.95728300000E+005,  0.77552953544E+007,  0.16500000000E+002,  0.00000000000E+000,  0.10000000000E+001
  0.95738300000E+005,  0.77533643162E+007,  0.16500000000E+002,  0.00000000000E+000,  0.10000000000E+001
  0.95748300000E+005,  0.77515729949E+007,  0.16500000000E+002,  0.00000000000E+000,  0.10000000000E+001
  0.95758300000E+005,  0.77493089309E+007,  0.16500000000E+002,  0.00000000000E+000,  0.10000000000E+001
  0.95768300000E+005,  0.77482175409E+007,  0.16500000000E+002,  0.00000000000E+000,  0.10000000000E+001
  0.95778300000E+005,  0.77474580723E+007,  0.16500000000E+002,  0.00000000000E+000,  0.10000000000E+001
  0.95788300000E+005,  0.77466738677E+007,  0.16500000000E+002,  0.00000000000E+000,  0.10000000000E+001
  0.95798300000E+005,  0.77457893937E+007,  0.16500000000E+002,  0.00000000000E+000,  0.10000000000E+001
  0.95808300000E+005,  0.77444558879E+007,  0.16500000000E+002,  0.00000000000E+000,  0.10000000000E+001
  0.95818300000E+005,  0.77411311223E+007,  0.16500000000E+002,  0.00000000000E+000,  0.10000000000E+001
  0.95828300000E+005,  0.77382254065E+007,  0.16500000000E+002,  0.00000000000E+000,  0.10000000000E+001
  0.95838300000E+005,  0.77410992934E+007,  0.16500000000E+002,  0.00000000000E+000,  0.10000000000E+001
  0.95848300000E+005,  0.77510404975E+007,  0.16500000000E+002,  0.00000000000E+000,  0.10000000000E+001
  0.95858300000E+005,  0.77603473872E+007,  0.16500000000E+002,  0.00000000000E+000,  0.10000000000E+001
  0.95868300000E+005,  0.77616395511E+007,  0.16500000000E+002,  0.00000000000E+000,  0.10000000000E+001
  0.95878300000E+005,  0.77621357295E+007,  0.16500000000E+002,  0.00000000000E+000,  0.10000000000E+001
  0.95888300000E+005,  0.77643388617E+007,  0.16500000000E+002,  0.00000000000E+000,  0.10000000000E+001
  0.95898300000E+005,  0.77683032236E+007,  0.16500000000E+002,  0.00000000000E+000,  0.10000000000E+001
  0.95908300000E+005,  0.77724916175E+007,  0.16500000000E+002,  0.00000000000E+000,  0.10000000000E+001
  0.95918300000E+005,  0.77769574513E+007,  0.16500000000E+002,  0.00000000000E+000,  0.10000000000E+001
  0.95928300000E+005,  0.77809962477E+007,  0.16500000000E+002,  0.00000000000E+000,  0.10000000000E+001
  0.95938300000E+005,  0.77854568258E+007,  0.16500000000E+002,  0.00000000000E+000,  0.10000000000E+001
  0.95938400000E+005,  0.77868727400E+007,  0.16500000000E+002,  0.00000000000E+000,  0.10000000000E+001
  0.95948400000E+005,  0.77887321877E+007,  0.16500000000E+002,  0.00000000000E+000,  0.10000000000E+001
  0.95958400000E+005,  0.77922507400E+007,  0.16500000000E+002,  0.00000000000E+000,  0.10000000000E+001
  0.95968400000E+005,  0.77955594492E+007,  0.16500000000E+002,  0.00000000000E+000,  0.10000000000E+001
  0.95978400000E+005,  0.77990234759E+007,  0.16500000000E+002,  0.00000000000E+000,  0.10000000000E+001
  0.95988400000E+005,  0.78080956749E+007,  0.16500000000E+002,  0.00000000000E+000,  0.10000000000E+001
  0.95998400000E+005,  0.78183180603E+007,  0.16500000000E+002,  0.00000000000E+000,  0.10000000000E+001
  0.96008400000E+005,  0.78073984129E+007,  0.16500000000E+002,  0.00000000000E+000,  0.10000000000E+001
  0.96018400000E+005,  0.78211874624E+007,  0.16500000000E+002,  0.00000000000E+000,  0.10000000000E+001
  0.96028400000E+005,  0.78324237255E+007,  0.16500000000E+002,  0.00000000000E+000,  0.10000000000E+001
  0.96038400000E+005,  0.78425051914E+007,  0.16500000000E+002,  0.00000000000E+000,  0.10000000000E+001
  0.96048400000E+005,  0.78547409911E+007,  0.16500000000E+002,  0.00000000000E+000,  0.10000000000E+001
  0.96058400000E+005,  0.78684506810E+007,  0.16500000000E+002,  0.00000000000E+000,  0.10000000000E+001
  0.96068400000E+005,  0.78844148540E+007,  0.16500000000E+002,  0.00000000000E+000,  0.10000000000E+001
  0.96078400000E+005,  0.79063485888E+007,  0.16500000000E+002,  0.00000000000E+000,  0.10000000000E+001
  0.96088400000E+005,  0.79387818463E+007,  0.16500000000E+002,  0.00000000000E+000,  0.10000000000E+001
  0.96098400000E+005,  0.79740500374E+007,  0.16500000000E+002,  0.00000000000E+000,  0.10000000000E+001
  0.96108400000E+005,  0.80082239228E+007,  0.16500000000E+002,  0.00000000000E+000,  0.10000000000E+001
  0.96118400000E+005,  0.80334257994E+007,  0.16500000000E+002,  0.00000000000E+000,  0.10000000000E+001
  0.96128400000E+005,  0.80418503732E+007,  0.16500000000E+002,  0.00000000000E+000,  0.10000000000E+001
  0.96138400000E+005,  0.80423659309E+007,  0.16500000000E+002,  0.00000000000E+000,  0.10000000000E+001
  0.96148400000E+005,  0.80414916604E+007,  0.16500000000E+002,  0.00000000000E+000,  0.10000000000E+001
  0.96158400000E+005,  0.80404740494E+007,  0.16500000000E+002,  0.00000000000E+000,  0.10000000000E+001
  0.96168400000E+005,  0.80395657124E+007,  0.16500000000E+002,  0.00000000000E+000,  0.10000000000E+001
  0.96178400000E+005,  0.80386405185E+007,  0.16500000000E+002,  0.00000000000E+000,  0.10000000000E+001
  0.96188400000E+005,  0.80378104059E+007,  0.16500000000E+002,  0.00000000000E+000,  0.10000000000E+001
