"           TIME(S)","              PRES","              TEMP","             SAT_G","             SAT_L"
  0.94860000000E+005,  0.99599004593E+006,  0.16500000000E+002,  0.00000000000E+000,  0.10000000000E+001
  0.94864500000E+005,  0.99599004593E+006,  0.16500000000E+002,  0.00000000000E+000,  0.10000000000E+001
  0.94871100000E+005,  0.99599004593E+006,  0.16500000000E+002,  0.00000000000E+000,  0.10000000000E+001
  0.94877600000E+005,  0.99599004593E+006,  0.16500000000E+002,  0.00000000000E+000,  0.10000000000E+001
  0.94884200000E+005,  0.12319102275E+007,  0.16500000000E+002,  0.00000000000E+000,  0.10000000000E+001
  0.94885200000E+005,  0.13222361083E+007,  0.16500000000E+002,  0.00000000000E+000,  0.10000000000E+001
  0.94886200000E+005,  0.14121887513E+007,  0.16500000000E+002,  0.00000000000E+000,  0.10000000000E+001
  0.94887200000E+005,  0.15017814706E+007,  0.16500000000E+002,  0.00000000000E+000,  0.10000000000E+001
  0.94888200000E+005,  0.15910244874E+007,  0.16500000000E+002,  0.00000000000E+000,  0.10000000000E+001
  0.94889200000E+005,  0.16799263131E+007,  0.16500000000E+002,  0.00000000000E+000,  0.10000000000E+001
  0.94890200000E+005,  0.17684943291E+007,  0.16500000000E+002,  0.00000000000E+000,  0.10000000000E+001
  0.94890700000E+005,  0.18126930273E+007,  0.16500000000E+002,  0.00000000000E+000,  0.10000000000E+001
  0.94891700000E+005,  0.19007719628E+007,  0.16500000000E+002,  0.00000000000E+000,  0.10000000000E+001
  0.94892700000E+005,  0.19885329188E+007,  0.16500000000E+002,  0.00000000000E+000,  0.10000000000E+001
  0.94893700000E+005,  0.20759813062E+007,  0.16500000000E+002,  0.00000000000E+000,  0.10000000000E+001
  0.94894700000E+005,  0.21631222445E+007,  0.16500000000E+002,  0.00000000000E+000,  0.10000000000E+001
  0.94895700000E+005,  0.22499603356E+007,  0.16500000000E+002,  0.00000000000E+000,  0.10000000000E+001
  0.94896700000E+005,  0.23364998771E+007,  0.16500000000E+002,  0.00000000000E+000,  0.10000000000E+001
  0.94897300000E+005,  0.23883130701E+007,  0.16500000000E+002,  0.00000000000E+000,  0.10000000000E+001
  0.94898300000E+005,  0.24743827104E+007,  0.16500000000E+002,  0.00000000000E+000,  0.10000000000E+001
  0.94899300000E+005,  0.25601636892E+007,  0.16500000000E+002,  0.00000000000E+000,  0.10000000000E+001
  0.94900300000E+005,  0.26456594211E+007,  0.16500000000E+002,  0.00000000000E+000,  0.10000000000E+001
  0.94901300000E+005,  0.27308729472E+007,  0.16500000000E+002,  0.00000000000E+000,  0.10000000000E+001
  0.94902300000E+005,  0.28158071742E+007,  0.16500000000E+002,  0.00000000000E+000,  0.10000000000E+001
  0.94903300000E+005,  0.29004647068E+007,  0.16500000000E+002,  0.00000000000E+000,  0.10000000000E+001
  0.94903900000E+005,  0.29511545553E+007,  0.16500000000E+002,  0.00000000000E+000,  0.10000000000E+001
  0.94904900000E+005,  0.30353741440E+007,  0.16500000000E+002,  0.00000000000E+000,  0.10000000000E+001
  0.94905900000E+005,  0.31193230670E+007,  0.16500000000E+002,  0.00000000000E+000,  0.10000000000E+001
  0.94906900000E+005,  0.32030033148E+007,  0.16500000000E+002,  0.00000000000E+000,  0.10000000000E+001
  0.94907900000E+005,  0.32864168078E+007,  0.16500000000E+002,  0.00000000000E+000,  0.10000000000E+001
  0.94908900000E+005,  0.33695652934E+007,  0.16500000000E+002,  0.00000000000E+000,  0.10000000000E+001
  0.94909900000E+005,  0.34524503130E+007,  0.16500000000E+002,  0.00000000000E+000,  0.10000000000E+001
  0.94910400000E+005,  0.34938192448E+007,  0.16500000000E+002,  0.00000000000E+000,  0.10000000000E+001
  0.94911400000E+005,  0.35763114939E+007,  0.16500000000E+002,  0.00000000000E+000,  0.10000000000E+001
  0.94912400000E+005,  0.36585418875E+007,  0.16500000000E+002,  0.00000000000E+000,  0.10000000000E+001
  0.94913400000E+005,  0.37409848938E+007,  0.16500000000E+002,  0.00000000000E+000,  0.10000000000E+001
  0.94914400000E+005,  0.38226832705E+007,  0.16500000000E+002,  0.00000000000E+000,  0.10000000000E+001
  0.94915400000E+005,  0.39045611563E+007,  0.16500000000E+002,  0.00000000000E+000,  0.10000000000E+001
  0.94916400000E+005,  0.40623118681E+007,  0.16500000000E+002,  0.00000000000E+000,  0.10000000000E+001
  0.94917000000E+005,  0.41290882362E+007,  0.16500000000E+002,  0.00000000000E+000,  0.10000000000E+001
  0.94918000000E+005,  0.42179653417E+007,  0.16500000000E+002,  0.00000000000E+000,  0.10000000000E+001
  0.94919000000E+005,  0.43058057644E+007,  0.16500000000E+002,  0.00000000000E+000,  0.10000000000E+001
  0.94920000000E+005,  0.43925855511E+007,  0.16500000000E+002,  0.00000000000E+000,  0.10000000000E+001
  0.94921000000E+005,  0.44739559308E+007,  0.16500000000E+002,  0.00000000000E+000,  0.10000000000E+001
  0.94922000000E+005,  0.45454941328E+007,  0.16500000000E+002,  0.00000000000E+000,  0.10000000000E+001
  0.94923000000E+005,  0.46108554085E+007,  0.16500000000E+002,  0.00000000000E+000,  0.10000000000E+001
  0.94923500000E+005,  0.46424821393E+007,  0.16500000000E+002,  0.00000000000E+000,  0.10000000000E+001
  0.94924500000E+005,  0.47739355424E+007,  0.16500000000E+002,  0.00000000000E+000,  0.10000000000E+001
  0.94925500000E+005,  0.48806917795E+007,  0.16500000000E+002,  0.00000000000E+000,  0.10000000000E+001
  0.94926500000E+005,  0.49841873194E+007,  0.16500000000E+002,  0.00000000000E+000,  0.10000000000E+001
  0.94927500000E+005,  0.51324265602E+007,  0.16500000000E+002,  0.00000000000E+000,  0.10000000000E+001
  0.94928500000E+005,  0.52812068237E+007,  0.16500000000E+002,  0.00000000000E+000,  0.10000000000E+001
  0.94929500000E+005,  0.54365044529E+007,  0.16500000000E+002,  0.00000000000E+000,  0.10000000000E+001
  0.94930100000E+005,  0.55563221644E+007,  0.16500000000E+002,  0.00000000000E+000,  0.10000000000E+001
  0.94931100000E+005,  0.57850946014E+007,  0.16500000000E+002,  0.00000000000E+000,  0.10000000000E+001
  0.94932100000E+005,  0.60604895874E+007,  0.16500000000E+002,  0.00000000000E+000,  0.10000000000E+001
  0.94933100000E+005,  0.63780653610E+007,  0.16500000000E+002,  0.00000000000E+000,  0.10000000000E+001
  0.94934100000E+005,  0.67029254361E+007,  0.16500000000E+002,  0.00000000000E+000,  0.10000000000E+001
  0.94935100000E+005,  0.70086967864E+007,  0.16500000000E+002,  0.00000000000E+000,  0.10000000000E+001
  0.94936100000E+005,  0.72922312008E+007,  0.16500000000E+002,  0.00000000000E+000,  0.10000000000E+001
  0.94936600000E+005,  0.74143266086E+007,  0.16500000000E+002,  0.00000000000E+000,  0.10000000000E+001
  0.94937600000E+005,  0.76631913148E+007,  0.16500000000E+002,  0.00000000000E+000,  0.10000000000E+001
  0.94938600000E+005,  0.78920197149E+007,  0.16500000000E+002,  0.00000000000E+000,  0.10000000000E+001
  0.94939600000E+005,  0.80943879857E+007,  0.16500000000E+002,  0.00000000000E+000,  0.10000000000E+001
  0.94940600000E+005,  0.82659785203E+007,  0.16500000000E+002,  0.00000000000E+000,  0.10000000000E+001
  0.94941600000E+005,  0.84002774503E+007,  0.16500000000E+002,  0.00000000000E+000,  0.10000000000E+001
  0.94942600000E+005,  0.85093322859E+007,  0.16500000000E+002,  0.00000000000E+000,  0.10000000000E+001
  0.94943200000E+005,  0.85561959880E+007,  0.16500000000E+002,  0.00000000000E+000,  0.10000000000E+001
  0.94944200000E+005,  0.86266160967E+007,  0.16500000000E+002,  0.00000000000E+000,  0.10000000000E+001
  0.94945200000E+005,  0.86612252105E+007,  0.16500000000E+002,  0.00000000000E+000,  0.10000000000E+001
  0.94946200000E+005,  0.87222573748E+007,  0.16500000000E+002,  0.00000000000E+000,  0.10000000000E+001
  0.94947200000E+005,  0.87864567499E+007,  0.16500000000E+002,  0.00000000000E+000,  0.10000000000E+001
  0.94948200000E+005,  0.88266192065E+007,  0.16500000000E+002,  0.00000000000E+000,  0.10000000000E+001
  0.94949200000E+005,  0.88328833687E+007,  0.16500000000E+002,  0.00000000000E+000,  0.10000000000E+001
  0.94949800000E+005,  0.88165672555E+007,  0.16500000000E+002,  0.00000000000E+000,  0.10000000000E+001
  0.94950800000E+005,  0.87998011608E+007,  0.16500000000E+002,  0.00000000000E+000,  0.10000000000E+001
  0.94951800000E+005,  0.87837696932E+007,  0.16500000000E+002,  0.00000000000E+000,  0.10000000000E+001
  0.94952800000E+005,  0.87673979807E+007,  0.16500000000E+002,  0.00000000000E+000,  0.10000000000E+001
  0.94953800000E+005,  0.87511365885E+007,  0.16500000000E+002,  0.00000000000E+000,  0.10000000000E+001
  0.94954800000E+005,  0.87308046347E+007,  0.16500000000E+002,  0.00000000000E+000,  0.10000000000E+001
  0.94955800000E+005,  0.86962955569E+007,  0.16500000000E+002,  0.00000000000E+000,  0.10000000000E+001
  0.94956300000E+005,  0.86743010636E+007,  0.16500000000E+002,  0.00000000000E+000,  0.10000000000E+001
  0.94957300000E+005,  0.86465650992E+007,  0.16500000000E+002,  0.00000000000E+000,  0.10000000000E+001
  0.94958300000E+005,  0.86296178330E+007,  0.16500000000E+002,  0.00000000000E+000,  0.10000000000E+001
  0.94959300000E+005,  0.86212528929E+007,  0.16500000000E+002,  0.00000000000E+000,  0.10000000000E+001
  0.94960300000E+005,  0.86188139213E+007,  0.16500000000E+002,  0.00000000000E+000,  0.10000000000E+001
  0.94961300000E+005,  0.86193450937E+007,  0.16500000000E+002,  0.00000000000E+000,  0.10000000000E+001
  0.94962300000E+005,  0.86203844953E+007,  0.16500000000E+002,  0.00000000000E+000,  0.10000000000E+001
  0.94962900000E+005,  0.86200461689E+007,  0.16500000000E+002,  0.00000000000E+000,  0.10000000000E+001
  0.94963900000E+005,  0.86190132164E+007,  0.16500000000E+002,  0.00000000000E+000,  0.10000000000E+001
  0.94964900000E+005,  0.86159467188E+007,  0.16500000000E+002,  0.00000000000E+000,  0.10000000000E+001
  0.94965900000E+005,  0.86126839854E+007,  0.16500000000E+002,  0.00000000000E+000,  0.10000000000E+001
  0.94966900000E+005,  0.86106871137E+007,  0.16500000000E+002,  0.00000000000E+000,  0.10000000000E+001
  0.94967900000E+005,  0.86102153185E+007,  0.16500000000E+002,  0.00000000000E+000,  0.10000000000E+001
  0.94968900000E+005,  0.86099321023E+007,  0.16500000000E+002,  0.00000000000E+000,  0.10000000000E+001
  0.94969400000E+005,  0.86078930266E+007,  0.16500000000E+002,  0.00000000000E+000,  0.10000000000E+001
  0.94970400000E+005,  0.86063847253E+007,  0.16500000000E+002,  0.00000000000E+000,  0.10000000000E+001
  0.94971400000E+005,  0.86009536137E+007,  0.16500000000E+002,  0.00000000000E+000,  0.10000000000E+001
  0.94972400000E+005,  0.85933096419E+007,  0.16500000000E+002,  0.00000000000E+000,  0.10000000000E+001
  0.94973400000E+005,  0.85855626401E+007,  0.16500000000E+002,  0.00000000000E+000,  0.10000000000E+001
  0.94974400000E+005,  0.85801497314E+007,  0.16500000000E+002,  0.00000000000E+000,  0.10000000000E+001
  0.94975400000E+005,  0.85783187825E+007,  0.16500000000E+002,  0.00000000000E+000,  0.10000000000E+001
  0.94976000000E+005,  0.85774762914E+007,  0.16500000000E+002,  0.00000000000E+000,  0.10000000000E+001
  0.94977000000E+005,  0.85816210907E+007,  0.16500000000E+002,  0.00000000000E+000,  0.10000000000E+001
  0.94978000000E+005,  0.85879182910E+007,  0.16500000000E+002,  0.00000000000E+000,  0.10000000000E+001
  0.94979000000E+005,  0.85955592091E+007,  0.16500000000E+002,  0.00000000000E+000,  0.10000000000E+001
  0.94980000000E+005,  0.86034710573E+007,  0.16500000000E+002,  0.00000000000E+000,  0.10000000000E+001
  0.94981000000E+005,  0.86109117906E+007,  0.16500000000E+002,  0.00000000000E+000,  0.10000000000E+001
  0.94982000000E+005,  0.86172680119E+007,  0.16500000000E+002,  0.00000000000E+000,  0.10000000000E+001
  0.94983000000E+005,  0.86220496384E+007,  0.16500000000E+002,  0.00000000000E+000,  0.10000000000E+001
  0.94984000000E+005,  0.86249234841E+007,  0.16500000000E+002,  0.00000000000E+000,  0.10000000000E+001
  0.94985000000E+005,  0.86260200589E+007,  0.16500000000E+002,  0.00000000000E+000,  0.10000000000E+001
  0.94986000000E+005,  0.86256543799E+007,  0.16500000000E+002,  0.00000000000E+000,  0.10000000000E+001
  0.94987000000E+005,  0.86243908431E+007,  0.16500000000E+002,  0.00000000000E+000,  0.10000000000E+001
  0.94988000000E+005,  0.86225047454E+007,  0.16500000000E+002,  0.00000000000E+000,  0.10000000000E+001
  0.94989000000E+005,  0.86204294394E+007,  0.16500000000E+002,  0.00000000000E+000,  0.10000000000E+001
  0.94990000000E+005,  0.86180957885E+007,  0.16500000000E+002,  0.00000000000E+000,  0.10000000000E+001
  0.94991000000E+005,  0.86152491517E+007,  0.16500000000E+002,  0.00000000000E+000,  0.10000000000E+001
  0.94992000000E+005,  0.86119122973E+007,  0.16500000000E+002,  0.00000000000E+000,  0.10000000000E+001
  0.94993000000E+005,  0.86106157549E+007,  0.16500000000E+002,  0.00000000000E+000,  0.10000000000E+001
  0.94994000000E+005,  0.86147003952E+007,  0.16500000000E+002,  0.00000000000E+000,  0.10000000000E+001
  0.94995000000E+005,  0.86184875303E+007,  0.16500000000E+002,  0.00000000000E+000,  0.10000000000E+001
  0.94996000000E+005,  0.86098609372E+007,  0.16500000000E+002,  0.00000000000E+000,  0.10000000000E+001
  0.94997000000E+005,  0.85898774698E+007,  0.16500000000E+002,  0.00000000000E+000,  0.10000000000E+001
  0.94998000000E+005,  0.85692452676E+007,  0.16500000000E+002,  0.00000000000E+000,  0.10000000000E+001
  0.94999000000E+005,  0.85498549017E+007,  0.16500000000E+002,  0.00000000000E+000,  0.10000000000E+001
  0.95000000000E+005,  0.85333250477E+007,  0.16500000000E+002,  0.00000000000E+000,  0.10000000000E+001
  0.95001000000E+005,  0.85202715630E+007,  0.16500000000E+002,  0.00000000000E+000,  0.10000000000E+001
  0.95002000000E+005,  0.85107337165E+007,  0.16500000000E+002,  0.00000000000E+000,  0.10000000000E+001
  0.95003000000E+005,  0.85044453693E+007,  0.16500000000E+002,  0.00000000000E+000,  0.10000000000E+001
  0.95004000000E+005,  0.85006383747E+007,  0.16500000000E+002,  0.00000000000E+000,  0.10000000000E+001
  0.95005000000E+005,  0.84985298411E+007,  0.16500000000E+002,  0.00000000000E+000,  0.10000000000E+001
  0.95006000000E+005,  0.84976111498E+007,  0.16500000000E+002,  0.00000000000E+000,  0.10000000000E+001
  0.95007000000E+005,  0.84974881975E+007,  0.16500000000E+002,  0.00000000000E+000,  0.10000000000E+001
  0.95008000000E+005,  0.84976679636E+007,  0.16500000000E+002,  0.00000000000E+000,  0.10000000000E+001
  0.95009000000E+005,  0.84977665010E+007,  0.16500000000E+002,  0.00000000000E+000,  0.10000000000E+001
  0.95010000000E+005,  0.84974518215E+007,  0.16500000000E+002,  0.00000000000E+000,  0.10000000000E+001
  0.95011000000E+005,  0.84964787565E+007,  0.16500000000E+002,  0.00000000000E+000,  0.10000000000E+001
  0.95012000000E+005,  0.84946507070E+007,  0.16500000000E+002,  0.00000000000E+000,  0.10000000000E+001
  0.95013000000E+005,  0.84918895430E+007,  0.16500000000E+002,  0.00000000000E+000,  0.10000000000E+001
  0.95014000000E+005,  0.84882138540E+007,  0.16500000000E+002,  0.00000000000E+000,  0.10000000000E+001
  0.95015000000E+005,  0.84836379681E+007,  0.16500000000E+002,  0.00000000000E+000,  0.10000000000E+001
  0.95016000000E+005,  0.84779821465E+007,  0.16500000000E+002,  0.00000000000E+000,  0.10000000000E+001
  0.95017000000E+005,  0.84708595442E+007,  0.16500000000E+002,  0.00000000000E+000,  0.10000000000E+001
  0.95018000000E+005,  0.84620544876E+007,  0.16500000000E+002,  0.00000000000E+000,  0.10000000000E+001
  0.95019000000E+005,  0.84518474392E+007,  0.16500000000E+002,  0.00000000000E+000,  0.10000000000E+001
  0.95020000000E+005,  0.84408281281E+007,  0.16500000000E+002,  0.00000000000E+000,  0.10000000000E+001
  0.95021000000E+005,  0.84317618055E+007,  0.16500000000E+002,  0.00000000000E+000,  0.10000000000E+001
  0.95022000000E+005,  0.84251392253E+007,  0.16500000000E+002,  0.00000000000E+000,  0.10000000000E+001
  0.95023000000E+005,  0.84162015495E+007,  0.16500000000E+002,  0.00000000000E+000,  0.10000000000E+001
  0.95024000000E+005,  0.84020407081E+007,  0.16500000000E+002,  0.00000000000E+000,  0.10000000000E+001
  0.95025000000E+005,  0.83843717536E+007,  0.16500000000E+002,  0.00000000000E+000,  0.10000000000E+001
  0.95026000000E+005,  0.83685680427E+007,  0.16500000000E+002,  0.00000000000E+000,  0.10000000000E+001
  0.95027000000E+005,  0.83538318433E+007,  0.16500000000E+002,  0.00000000000E+000,  0.10000000000E+001
  0.95028000000E+005,  0.83396334223E+007,  0.16500000000E+002,  0.00000000000E+000,  0.10000000000E+001
  0.95029000000E+005,  0.83258092317E+007,  0.16500000000E+002,  0.00000000000E+000,  0.10000000000E+001
  0.95030000000E+005,  0.83123739988E+007,  0.16500000000E+002,  0.00000000000E+000,  0.10000000000E+001
  0.95031000000E+005,  0.82992844918E+007,  0.16500000000E+002,  0.00000000000E+000,  0.10000000000E+001
  0.95032000000E+005,  0.82863714792E+007,  0.16500000000E+002,  0.00000000000E+000,  0.10000000000E+001
  0.95033000000E+005,  0.82734040376E+007,  0.16500000000E+002,  0.00000000000E+000,  0.10000000000E+001
  0.95034000000E+005,  0.82602982699E+007,  0.16500000000E+002,  0.00000000000E+000,  0.10000000000E+001
  0.95035000000E+005,  0.82469000569E+007,  0.16500000000E+002,  0.00000000000E+000,  0.10000000000E+001
  0.95036000000E+005,  0.82333079712E+007,  0.16500000000E+002,  0.00000000000E+000,  0.10000000000E+001
  0.95037000000E+005,  0.82198127564E+007,  0.16500000000E+002,  0.00000000000E+000,  0.10000000000E+001
  0.95038000000E+005,  0.82066938937E+007,  0.16500000000E+002,  0.00000000000E+000,  0.10000000000E+001
  0.95039000000E+005,  0.81942395944E+007,  0.16500000000E+002,  0.00000000000E+000,  0.10000000000E+001
  0.95040000000E+005,  0.81826453559E+007,  0.16500000000E+002,  0.00000000000E+000,  0.10000000000E+001
  0.95041000000E+005,  0.81719762088E+007,  0.16500000000E+002,  0.00000000000E+000,  0.10000000000E+001
  0.95042000000E+005,  0.81622412697E+007,  0.16500000000E+002,  0.00000000000E+000,  0.10000000000E+001
  0.95043000000E+005,  0.81533902805E+007,  0.16500000000E+002,  0.00000000000E+000,  0.10000000000E+001
  0.95044000000E+005,  0.81453339733E+007,  0.16500000000E+002,  0.00000000000E+000,  0.10000000000E+001
  0.95045000000E+005,  0.81379759011E+007,  0.16500000000E+002,  0.00000000000E+000,  0.10000000000E+001
  0.95046000000E+005,  0.81312161410E+007,  0.16500000000E+002,  0.00000000000E+000,  0.10000000000E+001
  0.95047000000E+005,  0.81249532694E+007,  0.16500000000E+002,  0.00000000000E+000,  0.10000000000E+001
  0.95048000000E+005,  0.81191322819E+007,  0.16500000000E+002,  0.00000000000E+000,  0.10000000000E+001
  0.95049000000E+005,  0.81137379623E+007,  0.16500000000E+002,  0.00000000000E+000,  0.10000000000E+001
  0.95050000000E+005,  0.81087311091E+007,  0.16500000000E+002,  0.00000000000E+000,  0.10000000000E+001
  0.95051000000E+005,  0.81040539213E+007,  0.16500000000E+002,  0.00000000000E+000,  0.10000000000E+001
  0.95052000000E+005,  0.80996743361E+007,  0.16500000000E+002,  0.00000000000E+000,  0.10000000000E+001
  0.95053000000E+005,  0.80955565114E+007,  0.16500000000E+002,  0.00000000000E+000,  0.10000000000E+001
  0.95054000000E+005,  0.80916408954E+007,  0.16500000000E+002,  0.00000000000E+000,  0.10000000000E+001
  0.95055000000E+005,  0.80877773669E+007,  0.16500000000E+002,  0.00000000000E+000,  0.10000000000E+001
  0.95056000000E+005,  0.80838712391E+007,  0.16500000000E+002,  0.00000000000E+000,  0.10000000000E+001
  0.95057000000E+005,  0.80798534894E+007,  0.16500000000E+002,  0.00000000000E+000,  0.10000000000E+001
  0.95058000000E+005,  0.80757021913E+007,  0.16500000000E+002,  0.00000000000E+000,  0.10000000000E+001
  0.95059000000E+005,  0.80714892100E+007,  0.16500000000E+002,  0.00000000000E+000,  0.10000000000E+001
  0.95060000000E+005,  0.80672600834E+007,  0.16500000000E+002,  0.00000000000E+000,  0.10000000000E+001
  0.95061000000E+005,  0.80630716807E+007,  0.16500000000E+002,  0.00000000000E+000,  0.10000000000E+001
  0.95062000000E+005,  0.80589692463E+007,  0.16500000000E+002,  0.00000000000E+000,  0.10000000000E+001
