"           TIME(S)","              PRES","              TEMP","             SAT_G","             SAT_L"
  0.94888500000E+005,  0.99773967318E+006,  0.16500000000E+002,  0.00000000000E+000,  0.10000000000E+001
  0.94888600000E+005,  0.99774396657E+006,  0.16500000000E+002,  0.00000000000E+000,  0.10000000000E+001
  0.94888700000E+005,  0.99774897479E+006,  0.16500000000E+002,  0.00000000000E+000,  0.10000000000E+001
  0.94888800000E+005,  0.99775469708E+006,  0.16500000000E+002,  0.00000000000E+000,  0.10000000000E+001
  0.94888900000E+005,  0.99776113291E+006,  0.16500000000E+002,  0.00000000000E+000,  0.10000000000E+001
  0.94889000000E+005,  0.99776828142E+006,  0.16500000000E+002,  0.00000000000E+000,  0.10000000000E+001
  0.94889100000E+005,  0.99777614236E+006,  0.16500000000E+002,  0.00000000000E+000,  0.10000000000E+001
  0.94889200000E+005,  0.99778471523E+006,  0.16500000000E+002,  0.00000000000E+000,  0.10000000000E+001
  0.94889300000E+005,  0.99779399991E+006,  0.16500000000E+002,  0.00000000000E+000,  0.10000000000E+001
  0.94889400000E+005,  0.99780399504E+006,  0.16500000000E+002,  0.00000000000E+000,  0.10000000000E+001
  0.94889500000E+005,  0.99781470029E+006,  0.16500000000E+002,  0.00000000000E+000,  0.10000000000E+001
  0.94889600000E+005,  0.99782611512E+006,  0.16500000000E+002,  0.00000000000E+000,  0.10000000000E+001
  0.94889700000E+005,  0.99783823870E+006,  0.16500000000E+002,  0.00000000000E+000,  0.10000000000E+001
  0.94889800000E+005,  0.99785107165E+006,  0.16500000000E+002,  0.00000000000E+000,  0.10000000000E+001
  0.94889900000E+005,  0.99786461254E+006,  0.16500000000E+002,  0.00000000000E+000,  0.10000000000E+001
  0.94890000000E+005,  0.99787886103E+006,  0.16500000000E+002,  0.00000000000E+000,  0.10000000000E+001
  0.94890100000E+005,  0.99789381659E+006,  0.16500000000E+002,  0.00000000000E+000,  0.10000000000E+001
  0.94890200000E+005,  0.99790947871E+006,  0.16500000000E+002,  0.00000000000E+000,  0.10000000000E+001
  0.94890300000E+005,  0.99792584687E+006,  0.16500000000E+002,  0.00000000000E+000,  0.10000000000E+001
  0.94890400000E+005,  0.99794292055E+006,  0.16500000000E+002,  0.00000000000E+000,  0.10000000000E+001
  0.94890500000E+005,  0.99796069924E+006,  0.16500000000E+002,  0.00000000000E+000,  0.10000000000E+001
  0.94890600000E+005,  0.99797918242E+006,  0.16500000000E+002,  0.00000000000E+000,  0.10000000000E+001
  0.94890700000E+005,  0.99799836959E+006,  0.16500000000E+002,  0.00000000000E+000,  0.10000000000E+001
  0.94890800000E+005,  0.99801826023E+006,  0.16500000000E+002,  0.00000000000E+000,  0.10000000000E+001
  0.94890900000E+005,  0.99803885385E+006,  0.16500000000E+002,  0.00000000000E+000,  0.10000000000E+001
  0.94891000000E+005,  0.99806014992E+006,  0.16500000000E+002,  0.00000000000E+000,  0.10000000000E+001
  0.94891100000E+005,  0.99808214796E+006,  0.16500000000E+002,  0.00000000000E+000,  0.10000000000E+001
  0.94891200000E+005,  0.99810484745E+006,  0.16500000000E+002,  0.00000000000E+000,  0.10000000000E+001
  0.94891300000E+005,  0.99812824791E+006,  0.16500000000E+002,  0.00000000000E+000,  0.10000000000E+001
  0.94891400000E+005,  0.99815234882E+006,  0.16500000000E+002,  0.00000000000E+000,  0.10000000000E+001
  0.94891500000E+005,  0.99817714970E+006,  0.16500000000E+002,  0.00000000000E+000,  0.10000000000E+001
  0.94891600000E+005,  0.99820265005E+006,  0.16500000000E+002,  0.00000000000E+000,  0.10000000000E+001
  0.94891700000E+005,  0.99822884938E+006,  0.16500000000E+002,  0.00000000000E+000,  0.10000000000E+001
  0.94891800000E+005,  0.99825574719E+006,  0.16500000000E+002,  0.00000000000E+000,  0.10000000000E+001
  0.94891900000E+005,  0.99828334299E+006,  0.16500000000E+002,  0.00000000000E+000,  0.10000000000E+001
  0.94892000000E+005,  0.99831163629E+006,  0.16500000000E+002,  0.00000000000E+000,  0.10000000000E+001
  0.94892100000E+005,  0.99834062662E+006,  0.16500000000E+002,  0.00000000000E+000,  0.10000000000E+001
  0.94892200000E+005,  0.99837031347E+006,  0.16500000000E+002,  0.00000000000E+000,  0.10000000000E+001
  0.94892300000E+005,  0.99840069638E+006,  0.16500000000E+002,  0.00000000000E+000,  0.10000000000E+001
  0.94892400000E+005,  0.99843177485E+006,  0.16500000000E+002,  0.00000000000E+000,  0.10000000000E+001
  0.94892500000E+005,  0.99846354840E+006,  0.16500000000E+002,  0.00000000000E+000,  0.10000000000E+001
  0.94892600000E+005,  0.99849601655E+006,  0.16500000000E+002,  0.00000000000E+000,  0.10000000000E+001
  0.94892700000E+005,  0.99852917883E+006,  0.16500000000E+002,  0.00000000000E+000,  0.10000000000E+001
  0.94892800000E+005,  0.99856303475E+006,  0.16500000000E+002,  0.00000000000E+000,  0.10000000000E+001
  0.94892900000E+005,  0.99859758385E+006,  0.16500000000E+002,  0.00000000000E+000,  0.10000000000E+001
  0.94893000000E+005,  0.99863282564E+006,  0.16500000000E+002,  0.00000000000E+000,  0.10000000000E+001
  0.94893100000E+005,  0.99866875965E+006,  0.16500000000E+002,  0.00000000000E+000,  0.10000000000E+001
  0.94893200000E+005,  0.99870538542E+006,  0.16500000000E+002,  0.00000000000E+000,  0.10000000000E+001
  0.94893300000E+005,  0.99874270246E+006,  0.16500000000E+002,  0.00000000000E+000,  0.10000000000E+001
  0.94893400000E+005,  0.99878071032E+006,  0.16500000000E+002,  0.00000000000E+000,  0.10000000000E+001
  0.94893500000E+005,  0.99881940851E+006,  0.16500000000E+002,  0.00000000000E+000,  0.10000000000E+001
  0.94893600000E+005,  0.99885879658E+006,  0.16500000000E+002,  0.00000000000E+000,  0.10000000000E+001
  0.94893700000E+005,  0.99889887406E+006,  0.16500000000E+002,  0.00000000000E+000,  0.10000000000E+001
  0.94893800000E+005,  0.99893964048E+006,  0.16500000000E+002,  0.00000000000E+000,  0.10000000000E+001
  0.94893900000E+005,  0.99898109538E+006,  0.16500000000E+002,  0.00000000000E+000,  0.10000000000E+001
  0.94894000000E+005,  0.99902323830E+006,  0.16500000000E+002,  0.00000000000E+000,  0.10000000000E+001
  0.94894100000E+005,  0.99906606877E+006,  0.16500000000E+002,  0.00000000000E+000,  0.10000000000E+001
  0.94894200000E+005,  0.99910958634E+006,  0.16500000000E+002,  0.00000000000E+000,  0.10000000000E+001
  0.94894300000E+005,  0.99915379054E+006,  0.16500000000E+002,  0.00000000000E+000,  0.10000000000E+001
  0.94894400000E+005,  0.99919868093E+006,  0.16500000000E+002,  0.00000000000E+000,  0.10000000000E+001
  0.94894500000E+005,  0.99924425703E+006,  0.16500000000E+002,  0.00000000000E+000,  0.10000000000E+001
  0.94894600000E+005,  0.99929051839E+006,  0.16500000000E+002,  0.00000000000E+000,  0.10000000000E+001
  0.94894700000E+005,  0.99933746457E+006,  0.16500000000E+002,  0.00000000000E+000,  0.10000000000E+001
  0.94894800000E+005,  0.99938509510E+006,  0.16500000000E+002,  0.00000000000E+000,  0.10000000000E+001
  0.94894900000E+005,  0.99943340953E+006,  0.16500000000E+002,  0.00000000000E+000,  0.10000000000E+001
  0.94895000000E+005,  0.99948240741E+006,  0.16500000000E+002,  0.00000000000E+000,  0.10000000000E+001
  0.94895100000E+005,  0.99953208829E+006,  0.16500000000E+002,  0.00000000000E+000,  0.10000000000E+001
  0.94895200000E+005,  0.99958245172E+006,  0.16500000000E+002,  0.00000000000E+000,  0.10000000000E+001
  0.94895300000E+005,  0.99963349725E+006,  0.16500000000E+002,  0.00000000000E+000,  0.10000000000E+001
  0.94895400000E+005,  0.99968522443E+006,  0.16500000000E+002,  0.00000000000E+000,  0.10000000000E+001
  0.94895500000E+005,  0.99973763282E+006,  0.16500000000E+002,  0.00000000000E+000,  0.10000000000E+001
  0.94895600000E+005,  0.99979072196E+006,  0.16500000000E+002,  0.00000000000E+000,  0.10000000000E+001
  0.94895700000E+005,  0.99984449141E+006,  0.16500000000E+002,  0.00000000000E+000,  0.10000000000E+001
  0.94895800000E+005,  0.99989894074E+006,  0.16500000000E+002,  0.00000000000E+000,  0.10000000000E+001
  0.94895900000E+005,  0.99995406948E+006,  0.16500000000E+002,  0.00000000000E+000,  0.10000000000E+001
  0.94896000000E+005,  0.10000098772E+007,  0.16500000000E+002,  0.00000000000E+000,  0.10000000000E+001
  0.94896100000E+005,  0.10000663635E+007,  0.16500000000E+002,  0.00000000000E+000,  0.10000000000E+001
  0.94896200000E+005,  0.10001235278E+007,  0.16500000000E+002,  0.00000000000E+000,  0.10000000000E+001
  0.94896300000E+005,  0.10001813698E+007,  0.16500000000E+002,  0.00000000000E+000,  0.10000000000E+001
  0.94896400000E+005,  0.10002398891E+007,  0.16500000000E+002,  0.00000000000E+000,  0.10000000000E+001
  0.94896500000E+005,  0.10002990851E+007,  0.16500000000E+002,  0.00000000000E+000,  0.10000000000E+001
  0.94896600000E+005,  0.10003589574E+007,  0.16500000000E+002,  0.00000000000E+000,  0.10000000000E+001
  0.94896700000E+005,  0.10004195057E+007,  0.16500000000E+002,  0.00000000000E+000,  0.10000000000E+001
  0.94896800000E+005,  0.10004807294E+007,  0.16500000000E+002,  0.00000000000E+000,  0.10000000000E+001
  0.94896900000E+005,  0.10005426282E+007,  0.16500000000E+002,  0.00000000000E+000,  0.10000000000E+001
  0.94897000000E+005,  0.10006052015E+007,  0.16500000000E+002,  0.00000000000E+000,  0.10000000000E+001
  0.94897100000E+005,  0.10006684490E+007,  0.16500000000E+002,  0.00000000000E+000,  0.10000000000E+001
  0.94897200000E+005,  0.10007323703E+007,  0.16500000000E+002,  0.00000000000E+000,  0.10000000000E+001
  0.94897300000E+005,  0.10007969648E+007,  0.16500000000E+002,  0.00000000000E+000,  0.10000000000E+001
  0.94897400000E+005,  0.10008622322E+007,  0.16500000000E+002,  0.00000000000E+000,  0.10000000000E+001
  0.94897500000E+005,  0.10009281720E+007,  0.16500000000E+002,  0.00000000000E+000,  0.10000000000E+001
  0.94897600000E+005,  0.10009947839E+007,  0.16500000000E+002,  0.00000000000E+000,  0.10000000000E+001
  0.94897700000E+005,  0.10010620673E+007,  0.16500000000E+002,  0.00000000000E+000,  0.10000000000E+001
  0.94897800000E+005,  0.10011300218E+007,  0.16500000000E+002,  0.00000000000E+000,  0.10000000000E+001
  0.94897900000E+005,  0.10011986470E+007,  0.16500000000E+002,  0.00000000000E+000,  0.10000000000E+001
  0.94898000000E+005,  0.10012679426E+007,  0.16500000000E+002,  0.00000000000E+000,  0.10000000000E+001
  0.94898100000E+005,  0.10013379080E+007,  0.16500000000E+002,  0.00000000000E+000,  0.10000000000E+001
  0.94898200000E+005,  0.10014085428E+007,  0.16500000000E+002,  0.00000000000E+000,  0.10000000000E+001
  0.94898300000E+005,  0.10014798466E+007,  0.16500000000E+002,  0.00000000000E+000,  0.10000000000E+001
  0.94898400000E+005,  0.10015518190E+007,  0.16500000000E+002,  0.00000000000E+000,  0.10000000000E+001
  0.94898500000E+005,  0.10016244596E+007,  0.16500000000E+002,  0.00000000000E+000,  0.10000000000E+001
  0.94898600000E+005,  0.10016977678E+007,  0.16500000000E+002,  0.00000000000E+000,  0.10000000000E+001
  0.94898700000E+005,  0.10017717434E+007,  0.16500000000E+002,  0.00000000000E+000,  0.10000000000E+001
  0.94898800000E+005,  0.10018463859E+007,  0.16500000000E+002,  0.00000000000E+000,  0.10000000000E+001
  0.94898900000E+005,  0.10019216948E+007,  0.16500000000E+002,  0.00000000000E+000,  0.10000000000E+001
  0.94899000000E+005,  0.10019976698E+007,  0.16500000000E+002,  0.00000000000E+000,  0.10000000000E+001
  0.94899100000E+005,  0.10020743104E+007,  0.16500000000E+002,  0.00000000000E+000,  0.10000000000E+001
  0.94899200000E+005,  0.10021516161E+007,  0.16500000000E+002,  0.00000000000E+000,  0.10000000000E+001
  0.94899300000E+005,  0.10022295867E+007,  0.16500000000E+002,  0.00000000000E+000,  0.10000000000E+001
  0.94899400000E+005,  0.10023082215E+007,  0.16500000000E+002,  0.00000000000E+000,  0.10000000000E+001
  0.94899500000E+005,  0.10023875204E+007,  0.16500000000E+002,  0.00000000000E+000,  0.10000000000E+001
  0.94899600000E+005,  0.10024674827E+007,  0.16500000000E+002,  0.00000000000E+000,  0.10000000000E+001
  0.94899700000E+005,  0.10025481081E+007,  0.16500000000E+002,  0.00000000000E+000,  0.10000000000E+001
  0.94899800000E+005,  0.10026293962E+007,  0.16500000000E+002,  0.00000000000E+000,  0.10000000000E+001
  0.94899900000E+005,  0.10027113466E+007,  0.16500000000E+002,  0.00000000000E+000,  0.10000000000E+001
  0.94900000000E+005,  0.10027939588E+007,  0.16500000000E+002,  0.00000000000E+000,  0.10000000000E+001
  0.94900100000E+005,  0.10028772324E+007,  0.16500000000E+002,  0.00000000000E+000,  0.10000000000E+001
  0.94900200000E+005,  0.10029611671E+007,  0.16500000000E+002,  0.00000000000E+000,  0.10000000000E+001
  0.94900300000E+005,  0.10030457623E+007,  0.16500000000E+002,  0.00000000000E+000,  0.10000000000E+001
  0.94900400000E+005,  0.10031310177E+007,  0.16500000000E+002,  0.00000000000E+000,  0.10000000000E+001
  0.94900500000E+005,  0.10032169329E+007,  0.16500000000E+002,  0.00000000000E+000,  0.10000000000E+001
  0.94900600000E+005,  0.10033035074E+007,  0.16500000000E+002,  0.00000000000E+000,  0.10000000000E+001
  0.94900700000E+005,  0.10033907409E+007,  0.16500000000E+002,  0.00000000000E+000,  0.10000000000E+001
  0.94900800000E+005,  0.10034786328E+007,  0.16500000000E+002,  0.00000000000E+000,  0.10000000000E+001
  0.94900900000E+005,  0.10035671829E+007,  0.16500000000E+002,  0.00000000000E+000,  0.10000000000E+001
  0.94901000000E+005,  0.10036563907E+007,  0.16500000000E+002,  0.00000000000E+000,  0.10000000000E+001
  0.94901100000E+005,  0.10037462557E+007,  0.16500000000E+002,  0.00000000000E+000,  0.10000000000E+001
  0.94901200000E+005,  0.10038367776E+007,  0.16500000000E+002,  0.00000000000E+000,  0.10000000000E+001
  0.94901300000E+005,  0.10039279560E+007,  0.16500000000E+002,  0.00000000000E+000,  0.10000000000E+001
  0.94901400000E+005,  0.10040197904E+007,  0.16500000000E+002,  0.00000000000E+000,  0.10000000000E+001
  0.94901500000E+005,  0.10041122805E+007,  0.16500000000E+002,  0.00000000000E+000,  0.10000000000E+001
  0.94901600000E+005,  0.10042054258E+007,  0.16500000000E+002,  0.00000000000E+000,  0.10000000000E+001
  0.94901700000E+005,  0.10042992259E+007,  0.16500000000E+002,  0.00000000000E+000,  0.10000000000E+001
  0.94901800000E+005,  0.10043936804E+007,  0.16500000000E+002,  0.00000000000E+000,  0.10000000000E+001
  0.94901900000E+005,  0.10044887888E+007,  0.16500000000E+002,  0.00000000000E+000,  0.10000000000E+001
  0.94902000000E+005,  0.10045845509E+007,  0.16500000000E+002,  0.00000000000E+000,  0.10000000000E+001
  0.94902100000E+005,  0.10046809662E+007,  0.16500000000E+002,  0.00000000000E+000,  0.10000000000E+001
  0.94902200000E+005,  0.10047780342E+007,  0.16500000000E+002,  0.00000000000E+000,  0.10000000000E+001
  0.94902300000E+005,  0.10048757545E+007,  0.16500000000E+002,  0.00000000000E+000,  0.10000000000E+001
  0.94902400000E+005,  0.10049741268E+007,  0.16500000000E+002,  0.00000000000E+000,  0.10000000000E+001
  0.94902500000E+005,  0.10050731507E+007,  0.16500000000E+002,  0.00000000000E+000,  0.10000000000E+001
  0.94902600000E+005,  0.10051728257E+007,  0.16500000000E+002,  0.00000000000E+000,  0.10000000000E+001
  0.94902700000E+005,  0.10052731514E+007,  0.16500000000E+002,  0.00000000000E+000,  0.10000000000E+001
  0.94902800000E+005,  0.10053741274E+007,  0.16500000000E+002,  0.00000000000E+000,  0.10000000000E+001
  0.94902900000E+005,  0.10054757534E+007,  0.16500000000E+002,  0.00000000000E+000,  0.10000000000E+001
  0.94903000000E+005,  0.10055780288E+007,  0.16500000000E+002,  0.00000000000E+000,  0.10000000000E+001
  0.94903100000E+005,  0.10056809534E+007,  0.16500000000E+002,  0.00000000000E+000,  0.10000000000E+001
  0.94903200000E+005,  0.10057845266E+007,  0.16500000000E+002,  0.00000000000E+000,  0.10000000000E+001
  0.94903300000E+005,  0.10058887481E+007,  0.16500000000E+002,  0.00000000000E+000,  0.10000000000E+001
  0.94903400000E+005,  0.10059936175E+007,  0.16500000000E+002,  0.00000000000E+000,  0.10000000000E+001
  0.94903500000E+005,  0.10060991344E+007,  0.16500000000E+002,  0.00000000000E+000,  0.10000000000E+001
  0.94903600000E+005,  0.10062052984E+007,  0.16500000000E+002,  0.00000000000E+000,  0.10000000000E+001
  0.94903700000E+005,  0.10063121090E+007,  0.16500000000E+002,  0.00000000000E+000,  0.10000000000E+001
  0.94903800000E+005,  0.10064195659E+007,  0.16500000000E+002,  0.00000000000E+000,  0.10000000000E+001
  0.94903900000E+005,  0.10065276686E+007,  0.16500000000E+002,  0.00000000000E+000,  0.10000000000E+001
  0.94904000000E+005,  0.10066364168E+007,  0.16500000000E+002,  0.00000000000E+000,  0.10000000000E+001
  0.94904100000E+005,  0.10067458100E+007,  0.16500000000E+002,  0.00000000000E+000,  0.10000000000E+001
  0.94904200000E+005,  0.10068558479E+007,  0.16500000000E+002,  0.00000000000E+000,  0.10000000000E+001
  0.94904300000E+005,  0.10069665300E+007,  0.16500000000E+002,  0.00000000000E+000,  0.10000000000E+001
  0.94904400000E+005,  0.10070778559E+007,  0.16500000000E+002,  0.00000000000E+000,  0.10000000000E+001
  0.94904500000E+005,  0.10071898253E+007,  0.16500000000E+002,  0.00000000000E+000,  0.10000000000E+001
  0.94904600000E+005,  0.10073024377E+007,  0.16500000000E+002,  0.00000000000E+000,  0.10000000000E+001
  0.94904700000E+005,  0.10074156928E+007,  0.16500000000E+002,  0.00000000000E+000,  0.10000000000E+001
  0.94904800000E+005,  0.10075295900E+007,  0.16500000000E+002,  0.00000000000E+000,  0.10000000000E+001
  0.94904900000E+005,  0.10076441291E+007,  0.16500000000E+002,  0.00000000000E+000,  0.10000000000E+001
  0.94905000000E+005,  0.10077593095E+007,  0.16500000000E+002,  0.00000000000E+000,  0.10000000000E+001
  0.94905100000E+005,  0.10078751310E+007,  0.16500000000E+002,  0.00000000000E+000,  0.10000000000E+001
  0.94905200000E+005,  0.10079915931E+007,  0.16500000000E+002,  0.00000000000E+000,  0.10000000000E+001
  0.94905300000E+005,  0.10081086955E+007,  0.16500000000E+002,  0.00000000000E+000,  0.10000000000E+001
  0.94905400000E+005,  0.10082264376E+007,  0.16500000000E+002,  0.00000000000E+000,  0.10000000000E+001
  0.94905500000E+005,  0.10083448191E+007,  0.16500000000E+002,  0.00000000000E+000,  0.10000000000E+001
  0.94905600000E+005,  0.10084638396E+007,  0.16500000000E+002,  0.00000000000E+000,  0.10000000000E+001
  0.94905700000E+005,  0.10085834987E+007,  0.16500000000E+002,  0.00000000000E+000,  0.10000000000E+001
  0.94905800000E+005,  0.10087037960E+007,  0.16500000000E+002,  0.00000000000E+000,  0.10000000000E+001
  0.94905900000E+005,  0.10088247311E+007,  0.16500000000E+002,  0.00000000000E+000,  0.10000000000E+001
  0.94906000000E+005,  0.10089463036E+007,  0.16500000000E+002,  0.00000000000E+000,  0.10000000000E+001
  0.94906100000E+005,  0.10090685131E+007,  0.16500000000E+002,  0.00000000000E+000,  0.10000000000E+001
  0.94906200000E+005,  0.10091913592E+007,  0.16500000000E+002,  0.00000000000E+000,  0.10000000000E+001
  0.94906300000E+005,  0.10093148414E+007,  0.16500000000E+002,  0.00000000000E+000,  0.10000000000E+001
  0.94906400000E+005,  0.10094389594E+007,  0.16500000000E+002,  0.00000000000E+000,  0.10000000000E+001
  0.94906500000E+005,  0.10095637129E+007,  0.16500000000E+002,  0.00000000000E+000,  0.10000000000E+001
  0.94906600000E+005,  0.10096891012E+007,  0.16500000000E+002,  0.00000000000E+000,  0.10000000000E+001
  0.94906700000E+005,  0.10098151242E+007,  0.16500000000E+002,  0.00000000000E+000,  0.10000000000E+001
  0.94906800000E+005,  0.10099417814E+007,  0.16500000000E+002,  0.00000000000E+000,  0.10000000000E+001
  0.94906900000E+005,  0.10100690723E+007,  0.16500000000E+002,  0.00000000000E+000,  0.10000000000E+001
  0.94907000000E+005,  0.10101969966E+007,  0.16500000000E+002,  0.00000000000E+000,  0.10000000000E+001
  0.94907100000E+005,  0.10103255538E+007,  0.16500000000E+002,  0.00000000000E+000,  0.10000000000E+001
  0.94907200000E+005,  0.10104547437E+007,  0.16500000000E+002,  0.00000000000E+000,  0.10000000000E+001
  0.94907300000E+005,  0.10105845657E+007,  0.16500000000E+002,  0.00000000000E+000,  0.10000000000E+001
