"           TIME(S)","              PRES","              TEMP","             SAT_G","             SAT_L"
  0.94878500000E+005,  0.98086335659E+006,  0.16500000000E+002,  0.00000000000E+000,  0.10000000000E+001
  0.94881000000E+005,  0.98086335650E+006,  0.16500000000E+002,  0.00000000000E+000,  0.10000000000E+001
  0.94891000000E+005,  0.98086335614E+006,  0.16500000000E+002,  0.00000000000E+000,  0.10000000000E+001
  0.94901000000E+005,  0.98086335578E+006,  0.16500000000E+002,  0.00000000000E+000,  0.10000000000E+001
  0.94911000000E+005,  0.98086335542E+006,  0.16500000000E+002,  0.00000000000E+000,  0.10000000000E+001
  0.94921000000E+005,  0.98086335506E+006,  0.16500000000E+002,  0.00000000000E+000,  0.10000000000E+001
  0.94931000000E+005,  0.98086335471E+006,  0.16500000000E+002,  0.00000000000E+000,  0.10000000000E+001
  0.94941000000E+005,  0.98086335435E+006,  0.16500000000E+002,  0.00000000000E+000,  0.10000000000E+001
  0.94951000000E+005,  0.98086335400E+006,  0.16500000000E+002,  0.00000000000E+000,  0.10000000000E+001
  0.94961000000E+005,  0.98086335365E+006,  0.16500000000E+002,  0.00000000000E+000,  0.10000000000E+001
  0.94971000000E+005,  0.98086335331E+006,  0.16500000000E+002,  0.00000000000E+000,  0.10000000000E+001
  0.94981000000E+005,  0.98086335296E+006,  0.16500000000E+002,  0.00000000000E+000,  0.10000000000E+001
  0.94991000000E+005,  0.98086335262E+006,  0.16500000000E+002,  0.00000000000E+000,  0.10000000000E+001
  0.95001000000E+005,  0.98086335228E+006,  0.16500000000E+002,  0.00000000000E+000,  0.10000000000E+001
  0.95011000000E+005,  0.98086335195E+006,  0.16500000000E+002,  0.00000000000E+000,  0.10000000000E+001
  0.95021000000E+005,  0.98086335161E+006,  0.16500000000E+002,  0.00000000000E+000,  0.10000000000E+001
  0.95031000000E+005,  0.98086335128E+006,  0.16500000000E+002,  0.00000000000E+000,  0.10000000000E+001
  0.95041000000E+005,  0.98086335095E+006,  0.16500000000E+002,  0.00000000000E+000,  0.10000000000E+001
  0.95051000000E+005,  0.98086335062E+006,  0.16500000000E+002,  0.00000000000E+000,  0.10000000000E+001
  0.95061000000E+005,  0.98086335029E+006,  0.16500000000E+002,  0.00000000000E+000,  0.10000000000E+001
  0.95071000000E+005,  0.98086334996E+006,  0.16500000000E+002,  0.00000000000E+000,  0.10000000000E+001
  0.95081000000E+005,  0.98086334964E+006,  0.16500000000E+002,  0.00000000000E+000,  0.10000000000E+001
  0.95091000000E+005,  0.98086334932E+006,  0.16500000000E+002,  0.00000000000E+000,  0.10000000000E+001
  0.95101000000E+005,  0.98086334900E+006,  0.16500000000E+002,  0.00000000000E+000,  0.10000000000E+001
  0.95111000000E+005,  0.98086334868E+006,  0.16500000000E+002,  0.00000000000E+000,  0.10000000000E+001
  0.95121000000E+005,  0.98086334837E+006,  0.16500000000E+002,  0.00000000000E+000,  0.10000000000E+001
  0.95131000000E+005,  0.98086334805E+006,  0.16500000000E+002,  0.00000000000E+000,  0.10000000000E+001
  0.95141000000E+005,  0.98086334774E+006,  0.16500000000E+002,  0.00000000000E+000,  0.10000000000E+001
  0.95151000000E+005,  0.98086334743E+006,  0.16500000000E+002,  0.00000000000E+000,  0.10000000000E+001
  0.95161000000E+005,  0.98086334713E+006,  0.16500000000E+002,  0.00000000000E+000,  0.10000000000E+001
  0.95171000000E+005,  0.98086334682E+006,  0.16500000000E+002,  0.00000000000E+000,  0.10000000000E+001
  0.95181000000E+005,  0.98086334652E+006,  0.16500000000E+002,  0.00000000000E+000,  0.10000000000E+001
  0.95191000000E+005,  0.98086334621E+006,  0.16500000000E+002,  0.00000000000E+000,  0.10000000000E+001
  0.95201000000E+005,  0.98086334591E+006,  0.16500000000E+002,  0.00000000000E+000,  0.10000000000E+001
  0.95201500000E+005,  0.98086334590E+006,  0.16500000000E+002,  0.00000000000E+000,  0.10000000000E+001
  0.95204000000E+005,  0.98086334582E+006,  0.16500000000E+002,  0.00000000000E+000,  0.10000000000E+001
  0.95216500000E+005,  0.98086334545E+006,  0.16500000000E+002,  0.00000000000E+000,  0.10000000000E+001
  0.95276500000E+005,  0.98086334373E+006,  0.16500000000E+002,  0.00000000000E+000,  0.10000000000E+001
  0.95336500000E+005,  0.98086334207E+006,  0.16500000000E+002,  0.00000000000E+000,  0.10000000000E+001
  0.95396500000E+005,  0.98086334047E+006,  0.16500000000E+002,  0.00000000000E+000,  0.10000000000E+001
  0.95456500000E+005,  0.98086333892E+006,  0.16500000000E+002,  0.00000000000E+000,  0.10000000000E+001
  0.95516500000E+005,  0.98086333742E+006,  0.16500000000E+002,  0.00000000000E+000,  0.10000000000E+001
  0.95576500000E+005,  0.98086333598E+006,  0.16500000000E+002,  0.00000000000E+000,  0.10000000000E+001
  0.95636500000E+005,  0.98086333459E+006,  0.16500000000E+002,  0.00000000000E+000,  0.10000000000E+001
  0.95696500000E+005,  0.98086333324E+006,  0.16500000000E+002,  0.00000000000E+000,  0.10000000000E+001
  0.95756500000E+005,  0.98086333193E+006,  0.16500000000E+002,  0.00000000000E+000,  0.10000000000E+001
  0.95816500000E+005,  0.98086333068E+006,  0.16500000000E+002,  0.00000000000E+000,  0.10000000000E+001
  0.95876500000E+005,  0.98086332946E+006,  0.16500000000E+002,  0.00000000000E+000,  0.10000000000E+001
  0.95936500000E+005,  0.98086332828E+006,  0.16500000000E+002,  0.00000000000E+000,  0.10000000000E+001
  0.95996500000E+005,  0.98086332714E+006,  0.16500000000E+002,  0.00000000000E+000,  0.10000000000E+001
  0.96056500000E+005,  0.98086332604E+006,  0.16500000000E+002,  0.00000000000E+000,  0.10000000000E+001
  0.96116500000E+005,  0.98086332498E+006,  0.16500000000E+002,  0.00000000000E+000,  0.10000000000E+001
  0.96176500000E+005,  0.98086332395E+006,  0.16500000000E+002,  0.00000000000E+000,  0.10000000000E+001
  0.96236500000E+005,  0.98086332295E+006,  0.16500000000E+002,  0.00000000000E+000,  0.10000000000E+001
  0.96296500000E+005,  0.98086332199E+006,  0.16500000000E+002,  0.00000000000E+000,  0.10000000000E+001
  0.96356500000E+005,  0.98086332106E+006,  0.16500000000E+002,  0.00000000000E+000,  0.10000000000E+001
  0.96416500000E+005,  0.98086332015E+006,  0.16500000000E+002,  0.00000000000E+000,  0.10000000000E+001
  0.96476500000E+005,  0.98086331928E+006,  0.16500000000E+002,  0.00000000000E+000,  0.10000000000E+001
  0.96536500000E+005,  0.98086331844E+006,  0.16500000000E+002,  0.00000000000E+000,  0.10000000000E+001
  0.96596500000E+005,  0.98086331762E+006,  0.16500000000E+002,  0.00000000000E+000,  0.10000000000E+001
  0.96656500000E+005,  0.98086331683E+006,  0.16500000000E+002,  0.00000000000E+000,  0.10000000000E+001
  0.96716500000E+005,  0.98086331606E+006,  0.16500000000E+002,  0.00000000000E+000,  0.10000000000E+001
  0.96776500000E+005,  0.98086331532E+006,  0.16500000000E+002,  0.00000000000E+000,  0.10000000000E+001
  0.96836500000E+005,  0.98086331460E+006,  0.16500000000E+002,  0.00000000000E+000,  0.10000000000E+001
  0.96896500000E+005,  0.98086331391E+006,  0.16500000000E+002,  0.00000000000E+000,  0.10000000000E+001
  0.96956500000E+005,  0.98086331324E+006,  0.16500000000E+002,  0.00000000000E+000,  0.10000000000E+001
  0.97016500000E+005,  0.98086331258E+006,  0.16500000000E+002,  0.00000000000E+000,  0.10000000000E+001
  0.97076500000E+005,  0.98086331195E+006,  0.16500000000E+002,  0.00000000000E+000,  0.10000000000E+001
  0.97136500000E+005,  0.98086331134E+006,  0.16500000000E+002,  0.00000000000E+000,  0.10000000000E+001
  0.97196500000E+005,  0.98086331075E+006,  0.16500000000E+002,  0.00000000000E+000,  0.10000000000E+001
  0.97256500000E+005,  0.98086331018E+006,  0.16500000000E+002,  0.00000000000E+000,  0.10000000000E+001
  0.97316500000E+005,  0.98086330962E+006,  0.16500000000E+002,  0.00000000000E+000,  0.10000000000E+001
  0.97376500000E+005,  0.98086330909E+006,  0.16500000000E+002,  0.00000000000E+000,  0.10000000000E+001
  0.97436500000E+005,  0.98086330857E+006,  0.16500000000E+002,  0.00000000000E+000,  0.10000000000E+001
  0.97496500000E+005,  0.98086330806E+006,  0.16500000000E+002,  0.00000000000E+000,  0.10000000000E+001
  0.97556500000E+005,  0.98086330758E+006,  0.16500000000E+002,  0.00000000000E+000,  0.10000000000E+001
  0.97616500000E+005,  0.98086330710E+006,  0.16500000000E+002,  0.00000000000E+000,  0.10000000000E+001
  0.97676500000E+005,  0.98086330665E+006,  0.16500000000E+002,  0.00000000000E+000,  0.10000000000E+001
  0.97736500000E+005,  0.98086330620E+006,  0.16500000000E+002,  0.00000000000E+000,  0.10000000000E+001
