"           TIME(S)","              PRES","              TEMP","             SAT_G","             SAT_L"
  0.94879000000E+005,  0.27489820171E+006,  0.16500000000E+002,  0.00000000000E+000,  0.10000000000E+001
  0.94884000000E+005,  0.27489820883E+006,  0.16500000000E+002,  0.00000000000E+000,  0.10000000000E+001
  0.94904000000E+005,  0.27489823724E+006,  0.16500000000E+002,  0.00000000000E+000,  0.10000000000E+001
  0.94924000000E+005,  0.27489826554E+006,  0.16500000000E+002,  0.00000000000E+000,  0.10000000000E+001
  0.94944000000E+005,  0.27489829376E+006,  0.16500000000E+002,  0.00000000000E+000,  0.10000000000E+001
  0.94964000000E+005,  0.27489832188E+006,  0.16500000000E+002,  0.00000000000E+000,  0.10000000000E+001
  0.94984000000E+005,  0.27489834990E+006,  0.16500000000E+002,  0.00000000000E+000,  0.10000000000E+001
  0.95004000000E+005,  0.27489837783E+006,  0.16500000000E+002,  0.00000000000E+000,  0.10000000000E+001
  0.95024000000E+005,  0.27489840567E+006,  0.16500000000E+002,  0.00000000000E+000,  0.10000000000E+001
  0.95044000000E+005,  0.27489843341E+006,  0.16500000000E+002,  0.00000000000E+000,  0.10000000000E+001
  0.95064000000E+005,  0.27489846106E+006,  0.16500000000E+002,  0.00000000000E+000,  0.10000000000E+001
  0.95084000000E+005,  0.27489848861E+006,  0.16500000000E+002,  0.00000000000E+000,  0.10000000000E+001
  0.95104000000E+005,  0.27489851608E+006,  0.16500000000E+002,  0.00000000000E+000,  0.10000000000E+001
  0.95124000000E+005,  0.27489854345E+006,  0.16500000000E+002,  0.00000000000E+000,  0.10000000000E+001
  0.95144000000E+005,  0.27489857072E+006,  0.16500000000E+002,  0.00000000000E+000,  0.10000000000E+001
  0.95164000000E+005,  0.27489859790E+006,  0.16500000000E+002,  0.00000000000E+000,  0.10000000000E+001
  0.95184000000E+005,  0.27489862499E+006,  0.16500000000E+002,  0.00000000000E+000,  0.10000000000E+001
  0.95204000000E+005,  0.27489865199E+006,  0.16500000000E+002,  0.00000000000E+000,  0.10000000000E+001
  0.95224000000E+005,  0.27489867890E+006,  0.16500000000E+002,  0.00000000000E+000,  0.10000000000E+001
  0.95244000000E+005,  0.27489870571E+006,  0.16500000000E+002,  0.00000000000E+000,  0.10000000000E+001
  0.95264000000E+005,  0.27489873243E+006,  0.16500000000E+002,  0.00000000000E+000,  0.10000000000E+001
  0.95284000000E+005,  0.27489875906E+006,  0.16500000000E+002,  0.00000000000E+000,  0.10000000000E+001
  0.95304000000E+005,  0.27489878560E+006,  0.16500000000E+002,  0.00000000000E+000,  0.10000000000E+001
  0.95324000000E+005,  0.27489881205E+006,  0.16500000000E+002,  0.00000000000E+000,  0.10000000000E+001
  0.95344000000E+005,  0.27489883841E+006,  0.16500000000E+002,  0.00000000000E+000,  0.10000000000E+001
  0.95364000000E+005,  0.27489886467E+006,  0.16500000000E+002,  0.00000000000E+000,  0.10000000000E+001
  0.95384000000E+005,  0.27489889085E+006,  0.16500000000E+002,  0.00000000000E+000,  0.10000000000E+001
  0.95404000000E+005,  0.27489891693E+006,  0.16500000000E+002,  0.00000000000E+000,  0.10000000000E+001
  0.95424000000E+005,  0.27489894293E+006,  0.16500000000E+002,  0.00000000000E+000,  0.10000000000E+001
  0.95444000000E+005,  0.27489896883E+006,  0.16500000000E+002,  0.00000000000E+000,  0.10000000000E+001
  0.95464000000E+005,  0.27489899465E+006,  0.16500000000E+002,  0.00000000000E+000,  0.10000000000E+001
  0.95484000000E+005,  0.27489902037E+006,  0.16500000000E+002,  0.00000000000E+000,  0.10000000000E+001
  0.95504000000E+005,  0.27489904601E+006,  0.16500000000E+002,  0.00000000000E+000,  0.10000000000E+001
  0.95524000000E+005,  0.27489907155E+006,  0.16500000000E+002,  0.00000000000E+000,  0.10000000000E+001
  0.95544000000E+005,  0.27489909701E+006,  0.16500000000E+002,  0.00000000000E+000,  0.10000000000E+001
  0.95564000000E+005,  0.27489912238E+006,  0.16500000000E+002,  0.00000000000E+000,  0.10000000000E+001
  0.95584000000E+005,  0.27489914766E+006,  0.16500000000E+002,  0.00000000000E+000,  0.10000000000E+001
  0.95604000000E+005,  0.27489917285E+006,  0.16500000000E+002,  0.00000000000E+000,  0.10000000000E+001
  0.95624000000E+005,  0.27489919795E+006,  0.16500000000E+002,  0.00000000000E+000,  0.10000000000E+001
  0.95644000000E+005,  0.27489922296E+006,  0.16500000000E+002,  0.00000000000E+000,  0.10000000000E+001
  0.95664000000E+005,  0.27489924789E+006,  0.16500000000E+002,  0.00000000000E+000,  0.10000000000E+001
  0.95684000000E+005,  0.27489927273E+006,  0.16500000000E+002,  0.00000000000E+000,  0.10000000000E+001
  0.95704000000E+005,  0.27489929748E+006,  0.16500000000E+002,  0.00000000000E+000,  0.10000000000E+001
  0.95724000000E+005,  0.27489932214E+006,  0.16500000000E+002,  0.00000000000E+000,  0.10000000000E+001
  0.95744000000E+005,  0.27489934671E+006,  0.16500000000E+002,  0.00000000000E+000,  0.10000000000E+001
  0.95764000000E+005,  0.27489937120E+006,  0.16500000000E+002,  0.00000000000E+000,  0.10000000000E+001
  0.95784000000E+005,  0.27489939560E+006,  0.16500000000E+002,  0.00000000000E+000,  0.10000000000E+001
  0.95804000000E+005,  0.27489941992E+006,  0.16500000000E+002,  0.00000000000E+000,  0.10000000000E+001
  0.95824000000E+005,  0.27489944415E+006,  0.16500000000E+002,  0.00000000000E+000,  0.10000000000E+001
  0.95844000000E+005,  0.27489946829E+006,  0.16500000000E+002,  0.00000000000E+000,  0.10000000000E+001
  0.95864000000E+005,  0.27489949234E+006,  0.16500000000E+002,  0.00000000000E+000,  0.10000000000E+001
  0.95884000000E+005,  0.27489951631E+006,  0.16500000000E+002,  0.00000000000E+000,  0.10000000000E+001
  0.95904000000E+005,  0.27489954020E+006,  0.16500000000E+002,  0.00000000000E+000,  0.10000000000E+001
  0.95924000000E+005,  0.27489956399E+006,  0.16500000000E+002,  0.00000000000E+000,  0.10000000000E+001
  0.95944000000E+005,  0.27489958771E+006,  0.16500000000E+002,  0.00000000000E+000,  0.10000000000E+001
  0.95964000000E+005,  0.27489961133E+006,  0.16500000000E+002,  0.00000000000E+000,  0.10000000000E+001
  0.95984000000E+005,  0.27489963488E+006,  0.16500000000E+002,  0.00000000000E+000,  0.10000000000E+001
  0.96004000000E+005,  0.27489965833E+006,  0.16500000000E+002,  0.00000000000E+000,  0.10000000000E+001
  0.96024000000E+005,  0.27489968170E+006,  0.16500000000E+002,  0.00000000000E+000,  0.10000000000E+001
  0.96044000000E+005,  0.27489970499E+006,  0.16500000000E+002,  0.00000000000E+000,  0.10000000000E+001
  0.96064000000E+005,  0.27489972820E+006,  0.16500000000E+002,  0.00000000000E+000,  0.10000000000E+001
  0.96084000000E+005,  0.27489975132E+006,  0.16500000000E+002,  0.00000000000E+000,  0.10000000000E+001
  0.96104000000E+005,  0.27489977435E+006,  0.16500000000E+002,  0.00000000000E+000,  0.10000000000E+001
  0.96124000000E+005,  0.27489979730E+006,  0.16500000000E+002,  0.00000000000E+000,  0.10000000000E+001
  0.96144000000E+005,  0.27489982017E+006,  0.16500000000E+002,  0.00000000000E+000,  0.10000000000E+001
  0.96164000000E+005,  0.27489984295E+006,  0.16500000000E+002,  0.00000000000E+000,  0.10000000000E+001
  0.96184000000E+005,  0.27489986565E+006,  0.16500000000E+002,  0.00000000000E+000,  0.10000000000E+001
  0.96204000000E+005,  0.27489988827E+006,  0.16500000000E+002,  0.00000000000E+000,  0.10000000000E+001
  0.96224000000E+005,  0.27489991081E+006,  0.16500000000E+002,  0.00000000000E+000,  0.10000000000E+001
  0.96244000000E+005,  0.27489993326E+006,  0.16500000000E+002,  0.00000000000E+000,  0.10000000000E+001
  0.96264000000E+005,  0.27489995563E+006,  0.16500000000E+002,  0.00000000000E+000,  0.10000000000E+001
  0.96284000000E+005,  0.27489997791E+006,  0.16500000000E+002,  0.00000000000E+000,  0.10000000000E+001
  0.96304000000E+005,  0.27490000012E+006,  0.16500000000E+002,  0.00000000000E+000,  0.10000000000E+001
  0.96324000000E+005,  0.27490002224E+006,  0.16500000000E+002,  0.00000000000E+000,  0.10000000000E+001
  0.96344000000E+005,  0.27490004428E+006,  0.16500000000E+002,  0.00000000000E+000,  0.10000000000E+001
  0.96364000000E+005,  0.27490006624E+006,  0.16500000000E+002,  0.00000000000E+000,  0.10000000000E+001
  0.96384000000E+005,  0.27490008812E+006,  0.16500000000E+002,  0.00000000000E+000,  0.10000000000E+001
  0.96404000000E+005,  0.27490010991E+006,  0.16500000000E+002,  0.00000000000E+000,  0.10000000000E+001
  0.96424000000E+005,  0.27490013163E+006,  0.16500000000E+002,  0.00000000000E+000,  0.10000000000E+001
  0.96444000000E+005,  0.27490015326E+006,  0.16500000000E+002,  0.00000000000E+000,  0.10000000000E+001
  0.96464000000E+005,  0.27490017481E+006,  0.16500000000E+002,  0.00000000000E+000,  0.10000000000E+001
  0.96484000000E+005,  0.27490019629E+006,  0.16500000000E+002,  0.00000000000E+000,  0.10000000000E+001
  0.96504000000E+005,  0.27490021768E+006,  0.16500000000E+002,  0.00000000000E+000,  0.10000000000E+001
  0.96524000000E+005,  0.27490023899E+006,  0.16500000000E+002,  0.00000000000E+000,  0.10000000000E+001
  0.96544000000E+005,  0.27490026022E+006,  0.16500000000E+002,  0.00000000000E+000,  0.10000000000E+001
  0.96564000000E+005,  0.27490028137E+006,  0.16500000000E+002,  0.00000000000E+000,  0.10000000000E+001
  0.96584000000E+005,  0.27490030244E+006,  0.16500000000E+002,  0.00000000000E+000,  0.10000000000E+001
  0.96604000000E+005,  0.27490032343E+006,  0.16500000000E+002,  0.00000000000E+000,  0.10000000000E+001
  0.96624000000E+005,  0.27490034434E+006,  0.16500000000E+002,  0.00000000000E+000,  0.10000000000E+001
  0.96644000000E+005,  0.27490036518E+006,  0.16500000000E+002,  0.00000000000E+000,  0.10000000000E+001
  0.96664000000E+005,  0.27490038593E+006,  0.16500000000E+002,  0.00000000000E+000,  0.10000000000E+001
  0.96684000000E+005,  0.27490040660E+006,  0.16500000000E+002,  0.00000000000E+000,  0.10000000000E+001
  0.96704000000E+005,  0.27490042720E+006,  0.16500000000E+002,  0.00000000000E+000,  0.10000000000E+001
  0.96724000000E+005,  0.27490044772E+006,  0.16500000000E+002,  0.00000000000E+000,  0.10000000000E+001
  0.96744000000E+005,  0.27490046815E+006,  0.16500000000E+002,  0.00000000000E+000,  0.10000000000E+001
  0.96764000000E+005,  0.27490048851E+006,  0.16500000000E+002,  0.00000000000E+000,  0.10000000000E+001
  0.96784000000E+005,  0.27490050880E+006,  0.16500000000E+002,  0.00000000000E+000,  0.10000000000E+001
  0.96804000000E+005,  0.27490052900E+006,  0.16500000000E+002,  0.00000000000E+000,  0.10000000000E+001
  0.96824000000E+005,  0.27490054913E+006,  0.16500000000E+002,  0.00000000000E+000,  0.10000000000E+001
  0.96844000000E+005,  0.27490056918E+006,  0.16500000000E+002,  0.00000000000E+000,  0.10000000000E+001
  0.96864000000E+005,  0.27490058915E+006,  0.16500000000E+002,  0.00000000000E+000,  0.10000000000E+001
  0.96884000000E+005,  0.27490060904E+006,  0.16500000000E+002,  0.00000000000E+000,  0.10000000000E+001
  0.96904000000E+005,  0.27490062886E+006,  0.16500000000E+002,  0.00000000000E+000,  0.10000000000E+001
  0.96924000000E+005,  0.27490064860E+006,  0.16500000000E+002,  0.00000000000E+000,  0.10000000000E+001
  0.96944000000E+005,  0.27490066826E+006,  0.16500000000E+002,  0.00000000000E+000,  0.10000000000E+001
  0.96964000000E+005,  0.27490068785E+006,  0.16500000000E+002,  0.00000000000E+000,  0.10000000000E+001
  0.96984000000E+005,  0.27490070736E+006,  0.16500000000E+002,  0.00000000000E+000,  0.10000000000E+001
  0.97004000000E+005,  0.27490072679E+006,  0.16500000000E+002,  0.00000000000E+000,  0.10000000000E+001
  0.97024000000E+005,  0.27490074615E+006,  0.16500000000E+002,  0.00000000000E+000,  0.10000000000E+001
  0.97044000000E+005,  0.27490076543E+006,  0.16500000000E+002,  0.00000000000E+000,  0.10000000000E+001
  0.97064000000E+005,  0.27490078463E+006,  0.16500000000E+002,  0.00000000000E+000,  0.10000000000E+001
  0.97084000000E+005,  0.27490080376E+006,  0.16500000000E+002,  0.00000000000E+000,  0.10000000000E+001
  0.97104000000E+005,  0.27490082282E+006,  0.16500000000E+002,  0.00000000000E+000,  0.10000000000E+001
  0.97124000000E+005,  0.27490084180E+006,  0.16500000000E+002,  0.00000000000E+000,  0.10000000000E+001
  0.97144000000E+005,  0.27490086070E+006,  0.16500000000E+002,  0.00000000000E+000,  0.10000000000E+001
  0.97164000000E+005,  0.27490087953E+006,  0.16500000000E+002,  0.00000000000E+000,  0.10000000000E+001
  0.97184000000E+005,  0.27490089828E+006,  0.16500000000E+002,  0.00000000000E+000,  0.10000000000E+001
  0.97204000000E+005,  0.27490091696E+006,  0.16500000000E+002,  0.00000000000E+000,  0.10000000000E+001
  0.97224000000E+005,  0.27490093557E+006,  0.16500000000E+002,  0.00000000000E+000,  0.10000000000E+001
  0.97244000000E+005,  0.27490095410E+006,  0.16500000000E+002,  0.00000000000E+000,  0.10000000000E+001
  0.97264000000E+005,  0.27490097256E+006,  0.16500000000E+002,  0.00000000000E+000,  0.10000000000E+001
  0.97284000000E+005,  0.27490099094E+006,  0.16500000000E+002,  0.00000000000E+000,  0.10000000000E+001
  0.97304000000E+005,  0.27490100925E+006,  0.16500000000E+002,  0.00000000000E+000,  0.10000000000E+001
  0.97324000000E+005,  0.27490102748E+006,  0.16500000000E+002,  0.00000000000E+000,  0.10000000000E+001
  0.97344000000E+005,  0.27490104564E+006,  0.16500000000E+002,  0.00000000000E+000,  0.10000000000E+001
  0.97364000000E+005,  0.27490106373E+006,  0.16500000000E+002,  0.00000000000E+000,  0.10000000000E+001
  0.97384000000E+005,  0.27490108175E+006,  0.16500000000E+002,  0.00000000000E+000,  0.10000000000E+001
  0.97404000000E+005,  0.27490109969E+006,  0.16500000000E+002,  0.00000000000E+000,  0.10000000000E+001
  0.97424000000E+005,  0.27490111756E+006,  0.16500000000E+002,  0.00000000000E+000,  0.10000000000E+001
  0.97444000000E+005,  0.27490113535E+006,  0.16500000000E+002,  0.00000000000E+000,  0.10000000000E+001
  0.97464000000E+005,  0.27490115308E+006,  0.16500000000E+002,  0.00000000000E+000,  0.10000000000E+001
  0.97484000000E+005,  0.27490117073E+006,  0.16500000000E+002,  0.00000000000E+000,  0.10000000000E+001
  0.97504000000E+005,  0.27490118831E+006,  0.16500000000E+002,  0.00000000000E+000,  0.10000000000E+001
  0.97524000000E+005,  0.27490120581E+006,  0.16500000000E+002,  0.00000000000E+000,  0.10000000000E+001
  0.97544000000E+005,  0.27490122325E+006,  0.16500000000E+002,  0.00000000000E+000,  0.10000000000E+001
  0.97564000000E+005,  0.27490124061E+006,  0.16500000000E+002,  0.00000000000E+000,  0.10000000000E+001
  0.97584000000E+005,  0.27490125790E+006,  0.16500000000E+002,  0.00000000000E+000,  0.10000000000E+001
  0.97604000000E+005,  0.27490127512E+006,  0.16500000000E+002,  0.00000000000E+000,  0.10000000000E+001
  0.97624000000E+005,  0.27490129227E+006,  0.16500000000E+002,  0.00000000000E+000,  0.10000000000E+001
  0.97644000000E+005,  0.27490130935E+006,  0.16500000000E+002,  0.00000000000E+000,  0.10000000000E+001
  0.97664000000E+005,  0.27490132636E+006,  0.16500000000E+002,  0.00000000000E+000,  0.10000000000E+001
  0.97684000000E+005,  0.27490134329E+006,  0.16500000000E+002,  0.00000000000E+000,  0.10000000000E+001
  0.97704000000E+005,  0.27490136016E+006,  0.16500000000E+002,  0.00000000000E+000,  0.10000000000E+001
  0.97724000000E+005,  0.27490137695E+006,  0.16500000000E+002,  0.00000000000E+000,  0.10000000000E+001
  0.97744000000E+005,  0.27490139368E+006,  0.16500000000E+002,  0.00000000000E+000,  0.10000000000E+001
  0.97764000000E+005,  0.27490141033E+006,  0.16500000000E+002,  0.00000000000E+000,  0.10000000000E+001
  0.97784000000E+005,  0.27490142691E+006,  0.16500000000E+002,  0.00000000000E+000,  0.10000000000E+001
  0.97804000000E+005,  0.27490144343E+006,  0.16500000000E+002,  0.00000000000E+000,  0.10000000000E+001
  0.97824000000E+005,  0.27490145987E+006,  0.16500000000E+002,  0.00000000000E+000,  0.10000000000E+001
  0.97844000000E+005,  0.27490147625E+006,  0.16500000000E+002,  0.00000000000E+000,  0.10000000000E+001
  0.97864000000E+005,  0.27490149255E+006,  0.16500000000E+002,  0.00000000000E+000,  0.10000000000E+001
  0.97884000000E+005,  0.27490150879E+006,  0.16500000000E+002,  0.00000000000E+000,  0.10000000000E+001
  0.97904000000E+005,  0.27490152495E+006,  0.16500000000E+002,  0.00000000000E+000,  0.10000000000E+001
  0.97924000000E+005,  0.27490154105E+006,  0.16500000000E+002,  0.00000000000E+000,  0.10000000000E+001
  0.97944000000E+005,  0.27490155708E+006,  0.16500000000E+002,  0.00000000000E+000,  0.10000000000E+001
  0.97964000000E+005,  0.27490157304E+006,  0.16500000000E+002,  0.00000000000E+000,  0.10000000000E+001
  0.97984000000E+005,  0.27490158893E+006,  0.16500000000E+002,  0.00000000000E+000,  0.10000000000E+001
  0.98004000000E+005,  0.27490160476E+006,  0.16500000000E+002,  0.00000000000E+000,  0.10000000000E+001
  0.98024000000E+005,  0.27490162051E+006,  0.16500000000E+002,  0.00000000000E+000,  0.10000000000E+001
