"           TIME(S)","              PRES","              TEMP","             SAT_G","             SAT_L"
  0.94879000000E+005,  0.34919426735E+006,  0.16500000000E+002,  0.00000000000E+000,  0.10000000000E+001
  0.94882000000E+005,  0.62919692424E+006,  0.16500000000E+002,  0.00000000000E+000,  0.10000000000E+001
  0.94885000000E+005,  0.24749052206E+007,  0.16500000000E+002,  0.00000000000E+000,  0.10000000000E+001
  0.94888000000E+005,  0.39326694316E+007,  0.16500000000E+002,  0.00000000000E+000,  0.10000000000E+001
  0.94891000000E+005,  0.52629089440E+007,  0.16500000000E+002,  0.00000000000E+000,  0.10000000000E+001
  0.94894000000E+005,  0.64409525342E+007,  0.16500000000E+002,  0.00000000000E+000,  0.10000000000E+001
  0.94897000000E+005,  0.74222320595E+007,  0.16500000000E+002,  0.00000000000E+000,  0.10000000000E+001
  0.94900000000E+005,  0.81437427673E+007,  0.16500000000E+002,  0.00000000000E+000,  0.10000000000E+001
  0.94903000000E+005,  0.85035079666E+007,  0.16500000000E+002,  0.00000000000E+000,  0.10000000000E+001
  0.94906000000E+005,  0.83997710237E+007,  0.16500000000E+002,  0.00000000000E+000,  0.10000000000E+001
  0.94909000000E+005,  0.81233066780E+007,  0.16500000000E+002,  0.00000000000E+000,  0.10000000000E+001
  0.94912000000E+005,  0.80583938111E+007,  0.16500000000E+002,  0.00000000000E+000,  0.10000000000E+001
  0.94915000000E+005,  0.82393320524E+007,  0.16500000000E+002,  0.00000000000E+000,  0.10000000000E+001
  0.94918000000E+005,  0.88220276461E+007,  0.16500000000E+002,  0.00000000000E+000,  0.10000000000E+001
  0.94921000000E+005,  0.87393763421E+007,  0.16500000000E+002,  0.00000000000E+000,  0.10000000000E+001
  0.94924000000E+005,  0.85727226734E+007,  0.16500000000E+002,  0.00000000000E+000,  0.10000000000E+001
  0.94927000000E+005,  0.92393380146E+007,  0.16500000000E+002,  0.00000000000E+000,  0.10000000000E+001
  0.94930000000E+005,  0.10056692525E+008,  0.16500000000E+002,  0.00000000000E+000,  0.10000000000E+001
  0.94933000000E+005,  0.10717838289E+008,  0.16500000000E+002,  0.00000000000E+000,  0.10000000000E+001
  0.94936000000E+005,  0.11560822359E+008,  0.16500000000E+002,  0.00000000000E+000,  0.10000000000E+001
  0.94939000000E+005,  0.11989329834E+008,  0.16500000000E+002,  0.00000000000E+000,  0.10000000000E+001
  0.94942000000E+005,  0.13008531977E+008,  0.16500000000E+002,  0.00000000000E+000,  0.10000000000E+001
  0.94945000000E+005,  0.14576505499E+008,  0.16500000000E+002,  0.00000000000E+000,  0.10000000000E+001
  0.94948000000E+005,  0.19814333483E+008,  0.16500000000E+002,  0.00000000000E+000,  0.10000000000E+001
  0.94951000000E+005,  0.25214960146E+008,  0.16500000000E+002,  0.00000000000E+000,  0.10000000000E+001
  0.94954000000E+005,  0.31057475652E+008,  0.16500000000E+002,  0.00000000000E+000,  0.10000000000E+001
  0.94957000000E+005,  0.34626117352E+008,  0.16500000000E+002,  0.00000000000E+000,  0.10000000000E+001
  0.94960000000E+005,  0.38977202416E+008,  0.16500000000E+002,  0.00000000000E+000,  0.10000000000E+001
  0.94963000000E+005,  0.44193831347E+008,  0.16500000000E+002,  0.00000000000E+000,  0.10000000000E+001
  0.94966000000E+005,  0.47499642397E+008,  0.16500000000E+002,  0.00000000000E+000,  0.10000000000E+001
  0.94969000000E+005,  0.50434314253E+008,  0.16500000000E+002,  0.00000000000E+000,  0.10000000000E+001
  0.94972000000E+005,  0.53489501781E+008,  0.16500000000E+002,  0.00000000000E+000,  0.10000000000E+001
  0.94975000000E+005,  0.53405840275E+008,  0.16500000000E+002,  0.00000000000E+000,  0.10000000000E+001
  0.94978000000E+005,  0.57940533604E+008,  0.16500000000E+002,  0.00000000000E+000,  0.10000000000E+001
  0.94981000000E+005,  0.61619133786E+008,  0.16500000000E+002,  0.00000000000E+000,  0.10000000000E+001
  0.94984000000E+005,  0.63760140475E+008,  0.16500000000E+002,  0.00000000000E+000,  0.10000000000E+001
  0.94987000000E+005,  0.62047301794E+008,  0.16500000000E+002,  0.00000000000E+000,  0.10000000000E+001
  0.94990000000E+005,  0.61672538049E+008,  0.16500000000E+002,  0.00000000000E+000,  0.10000000000E+001
  0.94993000000E+005,  0.59767478996E+008,  0.16500000000E+002,  0.00000000000E+000,  0.10000000000E+001
  0.94996000000E+005,  0.56975445770E+008,  0.16500000000E+002,  0.00000000000E+000,  0.10000000000E+001
  0.94999000000E+005,  0.57217328667E+008,  0.16500000000E+002,  0.00000000000E+000,  0.10000000000E+001
  0.95002000000E+005,  0.59624238720E+008,  0.16500000000E+002,  0.00000000000E+000,  0.10000000000E+001
  0.95005000000E+005,  0.60503004306E+008,  0.16500000000E+002,  0.00000000000E+000,  0.10000000000E+001
  0.95008000000E+005,  0.61582535968E+008,  0.16500000000E+002,  0.00000000000E+000,  0.10000000000E+001
  0.95011000000E+005,  0.64041946216E+008,  0.16500000000E+002,  0.00000000000E+000,  0.10000000000E+001
  0.95014000000E+005,  0.64813143310E+008,  0.16500000000E+002,  0.00000000000E+000,  0.10000000000E+001
  0.95017000000E+005,  0.66439679701E+008,  0.16500000000E+002,  0.00000000000E+000,  0.10000000000E+001
  0.95020000000E+005,  0.66716488475E+008,  0.16500000000E+002,  0.00000000000E+000,  0.10000000000E+001
  0.95023000000E+005,  0.68002191622E+008,  0.16500000000E+002,  0.00000000000E+000,  0.10000000000E+001
  0.95026000000E+005,  0.66298907529E+008,  0.16500000000E+002,  0.00000000000E+000,  0.10000000000E+001
  0.95029000000E+005,  0.63964503244E+008,  0.16500000000E+002,  0.00000000000E+000,  0.10000000000E+001
  0.95032000000E+005,  0.60130295282E+008,  0.16500000000E+002,  0.00000000000E+000,  0.10000000000E+001
  0.95035000000E+005,  0.61091139076E+008,  0.16500000000E+002,  0.00000000000E+000,  0.10000000000E+001
  0.95038000000E+005,  0.59143628395E+008,  0.16500000000E+002,  0.00000000000E+000,  0.10000000000E+001
  0.95041000000E+005,  0.58447361687E+008,  0.16500000000E+002,  0.00000000000E+000,  0.10000000000E+001
  0.95044000000E+005,  0.61045777990E+008,  0.16500000000E+002,  0.00000000000E+000,  0.10000000000E+001
  0.95047000000E+005,  0.61889906616E+008,  0.16500000000E+002,  0.00000000000E+000,  0.10000000000E+001
  0.95050000000E+005,  0.63105048794E+008,  0.16500000000E+002,  0.00000000000E+000,  0.10000000000E+001
  0.95053000000E+005,  0.63153607665E+008,  0.16500000000E+002,  0.00000000000E+000,  0.10000000000E+001
  0.95056000000E+005,  0.61267895089E+008,  0.16500000000E+002,  0.00000000000E+000,  0.10000000000E+001
  0.95059000000E+005,  0.59379732629E+008,  0.16500000000E+002,  0.00000000000E+000,  0.10000000000E+001
  0.95062000000E+005,  0.57412879941E+008,  0.16500000000E+002,  0.00000000000E+000,  0.10000000000E+001
  0.95065000000E+005,  0.54973845342E+008,  0.16500000000E+002,  0.00000000000E+000,  0.10000000000E+001
  0.95068000000E+005,  0.57402765188E+008,  0.16500000000E+002,  0.00000000000E+000,  0.10000000000E+001
  0.95071000000E+005,  0.58378043020E+008,  0.16500000000E+002,  0.00000000000E+000,  0.10000000000E+001
  0.95074000000E+005,  0.58866563481E+008,  0.16500000000E+002,  0.00000000000E+000,  0.10000000000E+001
  0.95077000000E+005,  0.58971428950E+008,  0.16500000000E+002,  0.00000000000E+000,  0.10000000000E+001
  0.95080000000E+005,  0.59861606367E+008,  0.16500000000E+002,  0.00000000000E+000,  0.10000000000E+001
  0.95083000000E+005,  0.59323155737E+008,  0.16500000000E+002,  0.00000000000E+000,  0.10000000000E+001
  0.95086000000E+005,  0.58565820435E+008,  0.16500000000E+002,  0.00000000000E+000,  0.10000000000E+001
  0.95089000000E+005,  0.56907764141E+008,  0.16500000000E+002,  0.00000000000E+000,  0.10000000000E+001
  0.95092000000E+005,  0.53210213952E+008,  0.16500000000E+002,  0.00000000000E+000,  0.10000000000E+001
  0.95095000000E+005,  0.49599261216E+008,  0.16500000000E+002,  0.00000000000E+000,  0.10000000000E+001
  0.95098000000E+005,  0.53970879066E+008,  0.16500000000E+002,  0.00000000000E+000,  0.10000000000E+001
  0.95101000000E+005,  0.56325307993E+008,  0.16500000000E+002,  0.00000000000E+000,  0.10000000000E+001
  0.95104000000E+005,  0.58521553147E+008,  0.16500000000E+002,  0.00000000000E+000,  0.10000000000E+001
  0.95107000000E+005,  0.58924851921E+008,  0.16500000000E+002,  0.00000000000E+000,  0.10000000000E+001
  0.95110000000E+005,  0.58367644472E+008,  0.16500000000E+002,  0.00000000000E+000,  0.10000000000E+001
  0.95113000000E+005,  0.60793606155E+008,  0.16500000000E+002,  0.00000000000E+000,  0.10000000000E+001
  0.95116000000E+005,  0.62404662183E+008,  0.16500000000E+002,  0.00000000000E+000,  0.10000000000E+001
  0.95119000000E+005,  0.62297341660E+008,  0.16500000000E+002,  0.00000000000E+000,  0.10000000000E+001
  0.95122000000E+005,  0.62798748794E+008,  0.16500000000E+002,  0.00000000000E+000,  0.10000000000E+001
  0.95125000000E+005,  0.61018091112E+008,  0.16500000000E+002,  0.00000000000E+000,  0.10000000000E+001
  0.95128000000E+005,  0.59299267057E+008,  0.16500000000E+002,  0.00000000000E+000,  0.10000000000E+001
  0.95131000000E+005,  0.60632605128E+008,  0.16500000000E+002,  0.00000000000E+000,  0.10000000000E+001
  0.95134000000E+005,  0.61366374799E+008,  0.16500000000E+002,  0.00000000000E+000,  0.10000000000E+001
  0.95137000000E+005,  0.58528424069E+008,  0.16500000000E+002,  0.00000000000E+000,  0.10000000000E+001
  0.95140000000E+005,  0.56143679530E+008,  0.16500000000E+002,  0.00000000000E+000,  0.10000000000E+001
  0.95143000000E+005,  0.59093783786E+008,  0.16500000000E+002,  0.00000000000E+000,  0.10000000000E+001
  0.95146000000E+005,  0.58661920379E+008,  0.16500000000E+002,  0.00000000000E+000,  0.10000000000E+001
  0.95149000000E+005,  0.61093890958E+008,  0.16500000000E+002,  0.00000000000E+000,  0.10000000000E+001
  0.95152000000E+005,  0.58928450993E+008,  0.16500000000E+002,  0.00000000000E+000,  0.10000000000E+001
  0.95155000000E+005,  0.58348143993E+008,  0.16500000000E+002,  0.00000000000E+000,  0.10000000000E+001
  0.95158000000E+005,  0.57015663987E+008,  0.16500000000E+002,  0.00000000000E+000,  0.10000000000E+001
  0.95161000000E+005,  0.56461347917E+008,  0.16500000000E+002,  0.00000000000E+000,  0.10000000000E+001
  0.95164000000E+005,  0.53949005298E+008,  0.16500000000E+002,  0.00000000000E+000,  0.10000000000E+001
  0.95167000000E+005,  0.54639864795E+008,  0.16500000000E+002,  0.00000000000E+000,  0.10000000000E+001
  0.95170000000E+005,  0.53506195392E+008,  0.16500000000E+002,  0.00000000000E+000,  0.10000000000E+001
  0.95173000000E+005,  0.53710651556E+008,  0.16500000000E+002,  0.00000000000E+000,  0.10000000000E+001
  0.95176000000E+005,  0.53885611589E+008,  0.16500000000E+002,  0.00000000000E+000,  0.10000000000E+001
  0.95179000000E+005,  0.53360454315E+008,  0.16500000000E+002,  0.00000000000E+000,  0.10000000000E+001
  0.95182000000E+005,  0.53698448560E+008,  0.16500000000E+002,  0.00000000000E+000,  0.10000000000E+001
  0.95185000000E+005,  0.53384008338E+008,  0.16500000000E+002,  0.00000000000E+000,  0.10000000000E+001
  0.95188000000E+005,  0.51456418816E+008,  0.16500000000E+002,  0.00000000000E+000,  0.10000000000E+001
  0.95191000000E+005,  0.50524931599E+008,  0.16500000000E+002,  0.00000000000E+000,  0.10000000000E+001
  0.95194000000E+005,  0.50559091169E+008,  0.16500000000E+002,  0.00000000000E+000,  0.10000000000E+001
  0.95197000000E+005,  0.51441718282E+008,  0.16500000000E+002,  0.00000000000E+000,  0.10000000000E+001
  0.95200000000E+005,  0.51443010850E+008,  0.16500000000E+002,  0.00000000000E+000,  0.10000000000E+001
  0.95203000000E+005,  0.50956911608E+008,  0.16500000000E+002,  0.00000000000E+000,  0.10000000000E+001
  0.95206000000E+005,  0.51266178211E+008,  0.16500000000E+002,  0.00000000000E+000,  0.10000000000E+001
  0.95209000000E+005,  0.51211858497E+008,  0.16500000000E+002,  0.00000000000E+000,  0.10000000000E+001
  0.95212000000E+005,  0.51202930297E+008,  0.16500000000E+002,  0.00000000000E+000,  0.10000000000E+001
  0.95215000000E+005,  0.51071842578E+008,  0.16500000000E+002,  0.00000000000E+000,  0.10000000000E+001
  0.95218000000E+005,  0.51075322197E+008,  0.16500000000E+002,  0.00000000000E+000,  0.10000000000E+001
  0.95221000000E+005,  0.51509787347E+008,  0.16500000000E+002,  0.00000000000E+000,  0.10000000000E+001
  0.95224000000E+005,  0.51968920157E+008,  0.16500000000E+002,  0.00000000000E+000,  0.10000000000E+001
  0.95227000000E+005,  0.52276767049E+008,  0.16500000000E+002,  0.00000000000E+000,  0.10000000000E+001
  0.95230000000E+005,  0.52266827873E+008,  0.16500000000E+002,  0.00000000000E+000,  0.10000000000E+001
  0.95233000000E+005,  0.52110406662E+008,  0.16500000000E+002,  0.00000000000E+000,  0.10000000000E+001
