"           TIME(S)","              PRES","              TEMP","             SAT_G","             SAT_L"
  0.94879000000E+005,  0.34919426739E+006,  0.16500000000E+002,  0.00000000000E+000,  0.10000000000E+001
  0.94880000000E+005,  0.34919427155E+006,  0.16500000000E+002,  0.00000000000E+000,  0.10000000000E+001
  0.94881000000E+005,  0.34919427206E+006,  0.16500000000E+002,  0.00000000000E+000,  0.10000000000E+001
  0.94882000000E+005,  0.73027607315E+006,  0.16500000000E+002,  0.00000000000E+000,  0.10000000000E+001
  0.94883000000E+005,  0.14580698426E+007,  0.16500000000E+002,  0.00000000000E+000,  0.10000000000E+001
  0.94884000000E+005,  0.19971736328E+007,  0.16500000000E+002,  0.00000000000E+000,  0.10000000000E+001
  0.94885000000E+005,  0.25154182424E+007,  0.16500000000E+002,  0.00000000000E+000,  0.10000000000E+001
  0.94886000000E+005,  0.30250717949E+007,  0.16500000000E+002,  0.00000000000E+000,  0.10000000000E+001
  0.94887000000E+005,  0.35273925303E+007,  0.16500000000E+002,  0.00000000000E+000,  0.10000000000E+001
  0.94888000000E+005,  0.40226948504E+007,  0.16500000000E+002,  0.00000000000E+000,  0.10000000000E+001
  0.94889000000E+005,  0.45111911406E+007,  0.16500000000E+002,  0.00000000000E+000,  0.10000000000E+001
  0.94890000000E+005,  0.49930752629E+007,  0.16500000000E+002,  0.00000000000E+000,  0.10000000000E+001
  0.94891000000E+005,  0.54685318413E+007,  0.16500000000E+002,  0.00000000000E+000,  0.10000000000E+001
  0.94892000000E+005,  0.59377376700E+007,  0.16500000000E+002,  0.00000000000E+000,  0.10000000000E+001
  0.94893000000E+005,  0.64008622364E+007,  0.16500000000E+002,  0.00000000000E+000,  0.10000000000E+001
  0.94894000000E+005,  0.68580681219E+007,  0.16500000000E+002,  0.00000000000E+000,  0.10000000000E+001
  0.94895000000E+005,  0.73095113687E+007,  0.16500000000E+002,  0.00000000000E+000,  0.10000000000E+001
  0.94896000000E+005,  0.77553418215E+007,  0.16500000000E+002,  0.00000000000E+000,  0.10000000000E+001
  0.94897000000E+005,  0.81957034478E+007,  0.16500000000E+002,  0.00000000000E+000,  0.10000000000E+001
  0.94898000000E+005,  0.86307346389E+007,  0.16500000000E+002,  0.00000000000E+000,  0.10000000000E+001
  0.94899000000E+005,  0.90605684915E+007,  0.16500000000E+002,  0.00000000000E+000,  0.10000000000E+001
  0.94900000000E+005,  0.91563537429E+007,  0.16500000000E+002,  0.00000000000E+000,  0.10000000000E+001
  0.94901000000E+005,  0.88894828127E+007,  0.16500000000E+002,  0.00000000000E+000,  0.10000000000E+001
  0.94902000000E+005,  0.85997573131E+007,  0.16500000000E+002,  0.00000000000E+000,  0.10000000000E+001
  0.94903000000E+005,  0.82677287687E+007,  0.16500000000E+002,  0.00000000000E+000,  0.10000000000E+001
  0.94904000000E+005,  0.80036406298E+007,  0.16500000000E+002,  0.00000000000E+000,  0.10000000000E+001
  0.94905000000E+005,  0.79443959566E+007,  0.16500000000E+002,  0.00000000000E+000,  0.10000000000E+001
  0.94906000000E+005,  0.80915785786E+007,  0.16500000000E+002,  0.00000000000E+000,  0.10000000000E+001
  0.94907000000E+005,  0.80045339647E+007,  0.16500000000E+002,  0.00000000000E+000,  0.10000000000E+001
  0.94908000000E+005,  0.80829329435E+007,  0.16500000000E+002,  0.00000000000E+000,  0.10000000000E+001
  0.94909000000E+005,  0.81617658136E+007,  0.16500000000E+002,  0.00000000000E+000,  0.10000000000E+001
  0.94910000000E+005,  0.83229271615E+007,  0.16500000000E+002,  0.00000000000E+000,  0.10000000000E+001
  0.94911000000E+005,  0.85040240517E+007,  0.16500000000E+002,  0.00000000000E+000,  0.10000000000E+001
  0.94912000000E+005,  0.86862706866E+007,  0.16500000000E+002,  0.00000000000E+000,  0.10000000000E+001
  0.94913000000E+005,  0.86817076683E+007,  0.16500000000E+002,  0.00000000000E+000,  0.10000000000E+001
  0.94914000000E+005,  0.88300355847E+007,  0.16500000000E+002,  0.00000000000E+000,  0.10000000000E+001
  0.94915000000E+005,  0.88274003871E+007,  0.16500000000E+002,  0.00000000000E+000,  0.10000000000E+001
  0.94916000000E+005,  0.92204461547E+007,  0.16500000000E+002,  0.00000000000E+000,  0.10000000000E+001
  0.94917000000E+005,  0.93309378595E+007,  0.16500000000E+002,  0.00000000000E+000,  0.10000000000E+001
  0.94918000000E+005,  0.92255284448E+007,  0.16500000000E+002,  0.00000000000E+000,  0.10000000000E+001
  0.94919000000E+005,  0.92959821519E+007,  0.16500000000E+002,  0.00000000000E+000,  0.10000000000E+001
  0.94920000000E+005,  0.92662846699E+007,  0.16500000000E+002,  0.00000000000E+000,  0.10000000000E+001
  0.94921000000E+005,  0.91399843356E+007,  0.16500000000E+002,  0.00000000000E+000,  0.10000000000E+001
  0.94922000000E+005,  0.91821080155E+007,  0.16500000000E+002,  0.00000000000E+000,  0.10000000000E+001
  0.94923000000E+005,  0.92625863182E+007,  0.16500000000E+002,  0.00000000000E+000,  0.10000000000E+001
  0.94924000000E+005,  0.95673629014E+007,  0.16500000000E+002,  0.00000000000E+000,  0.10000000000E+001
  0.94925000000E+005,  0.98187454586E+007,  0.16500000000E+002,  0.00000000000E+000,  0.10000000000E+001
  0.94926000000E+005,  0.94979583427E+007,  0.16500000000E+002,  0.00000000000E+000,  0.10000000000E+001
  0.94927000000E+005,  0.93469005705E+007,  0.16500000000E+002,  0.00000000000E+000,  0.10000000000E+001
  0.94928000000E+005,  0.95839756110E+007,  0.16500000000E+002,  0.00000000000E+000,  0.10000000000E+001
  0.94929000000E+005,  0.98563251585E+007,  0.16500000000E+002,  0.00000000000E+000,  0.10000000000E+001
  0.94930000000E+005,  0.98957040571E+007,  0.16500000000E+002,  0.00000000000E+000,  0.10000000000E+001
  0.94931000000E+005,  0.10235358167E+008,  0.16500000000E+002,  0.00000000000E+000,  0.10000000000E+001
  0.94936000000E+005,  0.13209556929E+008,  0.16500000000E+002,  0.00000000000E+000,  0.10000000000E+001
  0.94941000000E+005,  0.95719130749E+007,  0.16500000000E+002,  0.00000000000E+000,  0.10000000000E+001
  0.94946000000E+005,  0.90985390264E+007,  0.16500000000E+002,  0.00000000000E+000,  0.10000000000E+001
  0.94951000000E+005,  0.96968820722E+007,  0.16500000000E+002,  0.00000000000E+000,  0.10000000000E+001
  0.94956000000E+005,  0.98404111523E+007,  0.16500000000E+002,  0.00000000000E+000,  0.10000000000E+001
  0.94961000000E+005,  0.94145899055E+007,  0.16500000000E+002,  0.00000000000E+000,  0.10000000000E+001
  0.94966000000E+005,  0.91579856787E+007,  0.16500000000E+002,  0.00000000000E+000,  0.10000000000E+001
  0.94971000000E+005,  0.91211277846E+007,  0.16500000000E+002,  0.00000000000E+000,  0.10000000000E+001
  0.94976000000E+005,  0.92138652012E+007,  0.16500000000E+002,  0.00000000000E+000,  0.10000000000E+001
  0.94981000000E+005,  0.92705320379E+007,  0.16500000000E+002,  0.00000000000E+000,  0.10000000000E+001
  0.94986000000E+005,  0.93563102057E+007,  0.16500000000E+002,  0.00000000000E+000,  0.10000000000E+001
  0.94991000000E+005,  0.90629951942E+007,  0.16500000000E+002,  0.00000000000E+000,  0.10000000000E+001
  0.94996000000E+005,  0.89191842608E+007,  0.16500000000E+002,  0.00000000000E+000,  0.10000000000E+001
  0.95001000000E+005,  0.88443060926E+007,  0.16500000000E+002,  0.00000000000E+000,  0.10000000000E+001
  0.95006000000E+005,  0.89669027849E+007,  0.16500000000E+002,  0.00000000000E+000,  0.10000000000E+001
  0.95011000000E+005,  0.90467183687E+007,  0.16500000000E+002,  0.00000000000E+000,  0.10000000000E+001
  0.95016000000E+005,  0.90700929147E+007,  0.16500000000E+002,  0.00000000000E+000,  0.10000000000E+001
  0.95021000000E+005,  0.89716084669E+007,  0.16500000000E+002,  0.00000000000E+000,  0.10000000000E+001
  0.95026000000E+005,  0.89782222916E+007,  0.16500000000E+002,  0.00000000000E+000,  0.10000000000E+001
  0.95031000000E+005,  0.89376554316E+007,  0.16500000000E+002,  0.00000000000E+000,  0.10000000000E+001
  0.95036000000E+005,  0.87696624155E+007,  0.16500000000E+002,  0.00000000000E+000,  0.10000000000E+001
  0.95041000000E+005,  0.86369968389E+007,  0.16500000000E+002,  0.00000000000E+000,  0.10000000000E+001
  0.95046000000E+005,  0.86252044280E+007,  0.16500000000E+002,  0.00000000000E+000,  0.10000000000E+001
  0.95051000000E+005,  0.86699736841E+007,  0.16500000000E+002,  0.00000000000E+000,  0.10000000000E+001
  0.95056000000E+005,  0.87238300047E+007,  0.16500000000E+002,  0.00000000000E+000,  0.10000000000E+001
  0.95061000000E+005,  0.86832875538E+007,  0.16500000000E+002,  0.00000000000E+000,  0.10000000000E+001
  0.95066000000E+005,  0.86658474248E+007,  0.16500000000E+002,  0.00000000000E+000,  0.10000000000E+001
  0.95071000000E+005,  0.86440595531E+007,  0.16500000000E+002,  0.00000000000E+000,  0.10000000000E+001
  0.95076000000E+005,  0.86387791222E+007,  0.16500000000E+002,  0.00000000000E+000,  0.10000000000E+001
  0.95081000000E+005,  0.86411359341E+007,  0.16500000000E+002,  0.00000000000E+000,  0.10000000000E+001
  0.95086000000E+005,  0.87500677111E+007,  0.16500000000E+002,  0.00000000000E+000,  0.10000000000E+001
  0.95091000000E+005,  0.87538577336E+007,  0.16500000000E+002,  0.00000000000E+000,  0.10000000000E+001
  0.95096000000E+005,  0.86482956436E+007,  0.16500000000E+002,  0.00000000000E+000,  0.10000000000E+001
  0.95101000000E+005,  0.83988511317E+007,  0.16500000000E+002,  0.00000000000E+000,  0.10000000000E+001
  0.95106000000E+005,  0.82857299479E+007,  0.16500000000E+002,  0.00000000000E+000,  0.10000000000E+001
  0.95111000000E+005,  0.83302977651E+007,  0.16500000000E+002,  0.00000000000E+000,  0.10000000000E+001
  0.95116000000E+005,  0.83885352774E+007,  0.16500000000E+002,  0.00000000000E+000,  0.10000000000E+001
  0.95121000000E+005,  0.84264745764E+007,  0.16500000000E+002,  0.00000000000E+000,  0.10000000000E+001
  0.95126000000E+005,  0.83898636741E+007,  0.16500000000E+002,  0.00000000000E+000,  0.10000000000E+001
  0.95131000000E+005,  0.83410200289E+007,  0.16500000000E+002,  0.00000000000E+000,  0.10000000000E+001
  0.95136000000E+005,  0.83163851469E+007,  0.16500000000E+002,  0.00000000000E+000,  0.10000000000E+001
  0.95141000000E+005,  0.82919832350E+007,  0.16500000000E+002,  0.00000000000E+000,  0.10000000000E+001
  0.95146000000E+005,  0.82011131462E+007,  0.16500000000E+002,  0.00000000000E+000,  0.10000000000E+001
  0.95151000000E+005,  0.81275154414E+007,  0.16500000000E+002,  0.00000000000E+000,  0.10000000000E+001
  0.95156000000E+005,  0.80715303047E+007,  0.16500000000E+002,  0.00000000000E+000,  0.10000000000E+001
  0.95161000000E+005,  0.80849896645E+007,  0.16500000000E+002,  0.00000000000E+000,  0.10000000000E+001
  0.95166000000E+005,  0.81374839160E+007,  0.16500000000E+002,  0.00000000000E+000,  0.10000000000E+001
  0.95171000000E+005,  0.81339483737E+007,  0.16500000000E+002,  0.00000000000E+000,  0.10000000000E+001
  0.95176000000E+005,  0.80468436623E+007,  0.16500000000E+002,  0.00000000000E+000,  0.10000000000E+001
  0.95181000000E+005,  0.79555970448E+007,  0.16500000000E+002,  0.00000000000E+000,  0.10000000000E+001
  0.95186000000E+005,  0.79034095470E+007,  0.16500000000E+002,  0.00000000000E+000,  0.10000000000E+001
  0.95191000000E+005,  0.79326935648E+007,  0.16500000000E+002,  0.00000000000E+000,  0.10000000000E+001
  0.95196000000E+005,  0.79963148168E+007,  0.16500000000E+002,  0.00000000000E+000,  0.10000000000E+001
  0.95201000000E+005,  0.80709744125E+007,  0.16500000000E+002,  0.00000000000E+000,  0.10000000000E+001
  0.95206000000E+005,  0.81456104730E+007,  0.16500000000E+002,  0.00000000000E+000,  0.10000000000E+001
  0.95211000000E+005,  0.82104430202E+007,  0.16500000000E+002,  0.00000000000E+000,  0.10000000000E+001
  0.95216000000E+005,  0.82450629981E+007,  0.16500000000E+002,  0.00000000000E+000,  0.10000000000E+001
  0.95221000000E+005,  0.82913798612E+007,  0.16500000000E+002,  0.00000000000E+000,  0.10000000000E+001
  0.95226000000E+005,  0.83278929450E+007,  0.16500000000E+002,  0.00000000000E+000,  0.10000000000E+001
  0.95231000000E+005,  0.83494693445E+007,  0.16500000000E+002,  0.00000000000E+000,  0.10000000000E+001
  0.95236000000E+005,  0.82937552443E+007,  0.16500000000E+002,  0.00000000000E+000,  0.10000000000E+001
  0.95241000000E+005,  0.82717637269E+007,  0.16500000000E+002,  0.00000000000E+000,  0.10000000000E+001
  0.95246000000E+005,  0.83031196879E+007,  0.16500000000E+002,  0.00000000000E+000,  0.10000000000E+001
  0.95251000000E+005,  0.83570243496E+007,  0.16500000000E+002,  0.00000000000E+000,  0.10000000000E+001
  0.95256000000E+005,  0.84106801309E+007,  0.16500000000E+002,  0.00000000000E+000,  0.10000000000E+001
  0.95261000000E+005,  0.84421488227E+007,  0.16500000000E+002,  0.00000000000E+000,  0.10000000000E+001
  0.95266000000E+005,  0.84402934221E+007,  0.16500000000E+002,  0.00000000000E+000,  0.10000000000E+001
  0.95271000000E+005,  0.84131335117E+007,  0.16500000000E+002,  0.00000000000E+000,  0.10000000000E+001
  0.95276000000E+005,  0.83140326609E+007,  0.16500000000E+002,  0.00000000000E+000,  0.10000000000E+001
  0.95281000000E+005,  0.82332726150E+007,  0.16500000000E+002,  0.00000000000E+000,  0.10000000000E+001
  0.95286000000E+005,  0.81898372729E+007,  0.16500000000E+002,  0.00000000000E+000,  0.10000000000E+001
  0.95291000000E+005,  0.81881014726E+007,  0.16500000000E+002,  0.00000000000E+000,  0.10000000000E+001
  0.95296000000E+005,  0.82193126216E+007,  0.16500000000E+002,  0.00000000000E+000,  0.10000000000E+001
  0.95301000000E+005,  0.82678672311E+007,  0.16500000000E+002,  0.00000000000E+000,  0.10000000000E+001
  0.95306000000E+005,  0.83227123783E+007,  0.16500000000E+002,  0.00000000000E+000,  0.10000000000E+001
  0.95311000000E+005,  0.83472346807E+007,  0.16500000000E+002,  0.00000000000E+000,  0.10000000000E+001
  0.95316000000E+005,  0.83640660550E+007,  0.16500000000E+002,  0.00000000000E+000,  0.10000000000E+001
  0.95321000000E+005,  0.84034759482E+007,  0.16500000000E+002,  0.00000000000E+000,  0.10000000000E+001
  0.95326000000E+005,  0.84331131449E+007,  0.16500000000E+002,  0.00000000000E+000,  0.10000000000E+001
  0.95331000000E+005,  0.84442645172E+007,  0.16500000000E+002,  0.00000000000E+000,  0.10000000000E+001
  0.95336000000E+005,  0.84492536326E+007,  0.16500000000E+002,  0.00000000000E+000,  0.10000000000E+001
  0.95341000000E+005,  0.84305312940E+007,  0.16500000000E+002,  0.00000000000E+000,  0.10000000000E+001
  0.95346000000E+005,  0.84400145420E+007,  0.16500000000E+002,  0.00000000000E+000,  0.10000000000E+001
  0.95351000000E+005,  0.84576920328E+007,  0.16500000000E+002,  0.00000000000E+000,  0.10000000000E+001
  0.95356000000E+005,  0.84942548163E+007,  0.16500000000E+002,  0.00000000000E+000,  0.10000000000E+001
  0.95361000000E+005,  0.85137303006E+007,  0.16500000000E+002,  0.00000000000E+000,  0.10000000000E+001
  0.95366000000E+005,  0.85024494381E+007,  0.16500000000E+002,  0.00000000000E+000,  0.10000000000E+001
  0.95371000000E+005,  0.85182901801E+007,  0.16500000000E+002,  0.00000000000E+000,  0.10000000000E+001
  0.95376000000E+005,  0.85497953938E+007,  0.16500000000E+002,  0.00000000000E+000,  0.10000000000E+001
  0.95381000000E+005,  0.85935502085E+007,  0.16500000000E+002,  0.00000000000E+000,  0.10000000000E+001
  0.95386000000E+005,  0.85957919331E+007,  0.16500000000E+002,  0.00000000000E+000,  0.10000000000E+001
  0.95391000000E+005,  0.85593248868E+007,  0.16500000000E+002,  0.00000000000E+000,  0.10000000000E+001
  0.95396000000E+005,  0.84908032695E+007,  0.16500000000E+002,  0.00000000000E+000,  0.10000000000E+001
  0.95401000000E+005,  0.84635878717E+007,  0.16500000000E+002,  0.00000000000E+000,  0.10000000000E+001
  0.95406000000E+005,  0.84515158092E+007,  0.16500000000E+002,  0.00000000000E+000,  0.10000000000E+001
  0.95411000000E+005,  0.84655499080E+007,  0.16500000000E+002,  0.00000000000E+000,  0.10000000000E+001
  0.95416000000E+005,  0.84626654591E+007,  0.16500000000E+002,  0.00000000000E+000,  0.10000000000E+001
  0.95421000000E+005,  0.84405500396E+007,  0.16500000000E+002,  0.00000000000E+000,  0.10000000000E+001
  0.95426000000E+005,  0.84243632013E+007,  0.16500000000E+002,  0.00000000000E+000,  0.10000000000E+001
  0.95431000000E+005,  0.84378401085E+007,  0.16500000000E+002,  0.00000000000E+000,  0.10000000000E+001
  0.95436000000E+005,  0.84365478278E+007,  0.16500000000E+002,  0.00000000000E+000,  0.10000000000E+001
  0.95441000000E+005,  0.84076447661E+007,  0.16500000000E+002,  0.00000000000E+000,  0.10000000000E+001
  0.95446000000E+005,  0.84073782891E+007,  0.16500000000E+002,  0.00000000000E+000,  0.10000000000E+001
  0.95451000000E+005,  0.84193274973E+007,  0.16500000000E+002,  0.00000000000E+000,  0.10000000000E+001
  0.95456000000E+005,  0.84336097261E+007,  0.16500000000E+002,  0.00000000000E+000,  0.10000000000E+001
  0.95461000000E+005,  0.84502892547E+007,  0.16500000000E+002,  0.00000000000E+000,  0.10000000000E+001
  0.95466000000E+005,  0.84515825837E+007,  0.16500000000E+002,  0.00000000000E+000,  0.10000000000E+001
  0.95471000000E+005,  0.84661328323E+007,  0.16500000000E+002,  0.00000000000E+000,  0.10000000000E+001
  0.95476000000E+005,  0.84428930706E+007,  0.16500000000E+002,  0.00000000000E+000,  0.10000000000E+001
  0.95481000000E+005,  0.83855010580E+007,  0.16500000000E+002,  0.00000000000E+000,  0.10000000000E+001
  0.95486000000E+005,  0.83464720409E+007,  0.16500000000E+002,  0.00000000000E+000,  0.10000000000E+001
  0.95491000000E+005,  0.83041003449E+007,  0.16500000000E+002,  0.00000000000E+000,  0.10000000000E+001
  0.95496000000E+005,  0.82658124311E+007,  0.16500000000E+002,  0.00000000000E+000,  0.10000000000E+001
  0.95501000000E+005,  0.82365954448E+007,  0.16500000000E+002,  0.00000000000E+000,  0.10000000000E+001
  0.95506000000E+005,  0.82183878559E+007,  0.16500000000E+002,  0.00000000000E+000,  0.10000000000E+001
  0.95511000000E+005,  0.82153608064E+007,  0.16500000000E+002,  0.00000000000E+000,  0.10000000000E+001
  0.95516000000E+005,  0.82074624472E+007,  0.16500000000E+002,  0.00000000000E+000,  0.10000000000E+001
  0.95521000000E+005,  0.82061307541E+007,  0.16500000000E+002,  0.00000000000E+000,  0.10000000000E+001
  0.95526000000E+005,  0.81909790722E+007,  0.16500000000E+002,  0.00000000000E+000,  0.10000000000E+001
  0.95531000000E+005,  0.81754502651E+007,  0.16500000000E+002,  0.00000000000E+000,  0.10000000000E+001
  0.95536000000E+005,  0.81795472860E+007,  0.16500000000E+002,  0.00000000000E+000,  0.10000000000E+001
  0.95541000000E+005,  0.81928027975E+007,  0.16500000000E+002,  0.00000000000E+000,  0.10000000000E+001
  0.95546000000E+005,  0.81825397892E+007,  0.16500000000E+002,  0.00000000000E+000,  0.10000000000E+001
  0.95551000000E+005,  0.81732138863E+007,  0.16500000000E+002,  0.00000000000E+000,  0.10000000000E+001
  0.95556000000E+005,  0.81732349085E+007,  0.16500000000E+002,  0.00000000000E+000,  0.10000000000E+001
  0.95561000000E+005,  0.81724703880E+007,  0.16500000000E+002,  0.00000000000E+000,  0.10000000000E+001
  0.95566000000E+005,  0.81772871385E+007,  0.16500000000E+002,  0.00000000000E+000,  0.10000000000E+001
  0.95571000000E+005,  0.81767824144E+007,  0.16500000000E+002,  0.00000000000E+000,  0.10000000000E+001
  0.95576000000E+005,  0.81632438691E+007,  0.16500000000E+002,  0.00000000000E+000,  0.10000000000E+001
  0.95581000000E+005,  0.81698660806E+007,  0.16500000000E+002,  0.00000000000E+000,  0.10000000000E+001
  0.95586000000E+005,  0.81908958735E+007,  0.16500000000E+002,  0.00000000000E+000,  0.10000000000E+001
  0.95591000000E+005,  0.82079277722E+007,  0.16500000000E+002,  0.00000000000E+000,  0.10000000000E+001
  0.95596000000E+005,  0.82114245113E+007,  0.16500000000E+002,  0.00000000000E+000,  0.10000000000E+001
  0.95601000000E+005,  0.81989833039E+007,  0.16500000000E+002,  0.00000000000E+000,  0.10000000000E+001
  0.95606000000E+005,  0.81958425925E+007,  0.16500000000E+002,  0.00000000000E+000,  0.10000000000E+001
  0.95611000000E+005,  0.82072377319E+007,  0.16500000000E+002,  0.00000000000E+000,  0.10000000000E+001
