"           TIME(S)","              PRES","              TEMP","             SAT_G","             SAT_L"
  0.94878500000E+005,  0.98086335659E+006,  0.16500000000E+002,  0.00000000000E+000,  0.10000000000E+001
  0.94881000000E+005,  0.98086335650E+006,  0.16500000000E+002,  0.00000000000E+000,  0.10000000000E+001
  0.94891000000E+005,  0.98086335614E+006,  0.16500000000E+002,  0.00000000000E+000,  0.10000000000E+001
  0.94901000000E+005,  0.98086335578E+006,  0.16500000000E+002,  0.00000000000E+000,  0.10000000000E+001
  0.94911000000E+005,  0.98086335542E+006,  0.16500000000E+002,  0.00000000000E+000,  0.10000000000E+001
  0.94921000000E+005,  0.98086335506E+006,  0.16500000000E+002,  0.00000000000E+000,  0.10000000000E+001
  0.94931000000E+005,  0.98086335471E+006,  0.16500000000E+002,  0.00000000000E+000,  0.10000000000E+001
  0.94941000000E+005,  0.98086335435E+006,  0.16500000000E+002,  0.00000000000E+000,  0.10000000000E+001
  0.94951000000E+005,  0.98086335400E+006,  0.16500000000E+002,  0.00000000000E+000,  0.10000000000E+001
  0.94961000000E+005,  0.98086335365E+006,  0.16500000000E+002,  0.00000000000E+000,  0.10000000000E+001
  0.94971000000E+005,  0.98086335331E+006,  0.16500000000E+002,  0.00000000000E+000,  0.10000000000E+001
  0.94981000000E+005,  0.98086335297E+006,  0.16500000000E+002,  0.00000000000E+000,  0.10000000000E+001
  0.94991000000E+005,  0.98086335262E+006,  0.16500000000E+002,  0.00000000000E+000,  0.10000000000E+001
  0.95001000000E+005,  0.98086335229E+006,  0.16500000000E+002,  0.00000000000E+000,  0.10000000000E+001
  0.95011000000E+005,  0.98086335195E+006,  0.16500000000E+002,  0.00000000000E+000,  0.10000000000E+001
  0.95021000000E+005,  0.98086335161E+006,  0.16500000000E+002,  0.00000000000E+000,  0.10000000000E+001
  0.95031000000E+005,  0.98086335128E+006,  0.16500000000E+002,  0.00000000000E+000,  0.10000000000E+001
  0.95041000000E+005,  0.98086335095E+006,  0.16500000000E+002,  0.00000000000E+000,  0.10000000000E+001
  0.95051000000E+005,  0.98086335062E+006,  0.16500000000E+002,  0.00000000000E+000,  0.10000000000E+001
  0.95061000000E+005,  0.98086335029E+006,  0.16500000000E+002,  0.00000000000E+000,  0.10000000000E+001
  0.95071000000E+005,  0.98086334997E+006,  0.16500000000E+002,  0.00000000000E+000,  0.10000000000E+001
  0.95081000000E+005,  0.98086334965E+006,  0.16500000000E+002,  0.00000000000E+000,  0.10000000000E+001
  0.95091000000E+005,  0.98086334933E+006,  0.16500000000E+002,  0.00000000000E+000,  0.10000000000E+001
  0.95101000000E+005,  0.98086334901E+006,  0.16500000000E+002,  0.00000000000E+000,  0.10000000000E+001
  0.95111000000E+005,  0.98086334869E+006,  0.16500000000E+002,  0.00000000000E+000,  0.10000000000E+001
  0.95121000000E+005,  0.98086334838E+006,  0.16500000000E+002,  0.00000000000E+000,  0.10000000000E+001
  0.95131000000E+005,  0.98086334807E+006,  0.16500000000E+002,  0.00000000000E+000,  0.10000000000E+001
  0.95141000000E+005,  0.98086334775E+006,  0.16500000000E+002,  0.00000000000E+000,  0.10000000000E+001
  0.95151000000E+005,  0.98086334745E+006,  0.16500000000E+002,  0.00000000000E+000,  0.10000000000E+001
  0.95161000000E+005,  0.98086334714E+006,  0.16500000000E+002,  0.00000000000E+000,  0.10000000000E+001
  0.95171000000E+005,  0.98086334683E+006,  0.16500000000E+002,  0.00000000000E+000,  0.10000000000E+001
  0.95181000000E+005,  0.98086334653E+006,  0.16500000000E+002,  0.00000000000E+000,  0.10000000000E+001
  0.95191000000E+005,  0.98086334623E+006,  0.16500000000E+002,  0.00000000000E+000,  0.10000000000E+001
  0.95201000000E+005,  0.98086334593E+006,  0.16500000000E+002,  0.00000000000E+000,  0.10000000000E+001
  0.95201500000E+005,  0.98086334592E+006,  0.16500000000E+002,  0.00000000000E+000,  0.10000000000E+001
  0.95204000000E+005,  0.98086334584E+006,  0.16500000000E+002,  0.00000000000E+000,  0.10000000000E+001
  0.95216500000E+005,  0.98086334547E+006,  0.16500000000E+002,  0.00000000000E+000,  0.10000000000E+001
  0.95279000000E+005,  0.98086334369E+006,  0.16500000000E+002,  0.00000000000E+000,  0.10000000000E+001
  0.95439000000E+005,  0.98086333953E+006,  0.16500000000E+002,  0.00000000000E+000,  0.10000000000E+001
  0.95599000000E+005,  0.98086333573E+006,  0.16500000000E+002,  0.00000000000E+000,  0.10000000000E+001
  0.95759000000E+005,  0.98086333226E+006,  0.16500000000E+002,  0.00000000000E+000,  0.10000000000E+001
  0.95919000000E+005,  0.98086332908E+006,  0.16500000000E+002,  0.00000000000E+000,  0.10000000000E+001
  0.96079000000E+005,  0.98086332618E+006,  0.16500000000E+002,  0.00000000000E+000,  0.10000000000E+001
  0.96239000000E+005,  0.98086332352E+006,  0.16500000000E+002,  0.00000000000E+000,  0.10000000000E+001
  0.96399000000E+005,  0.98086332108E+006,  0.16500000000E+002,  0.00000000000E+000,  0.10000000000E+001
  0.96559000000E+005,  0.98086331885E+006,  0.16500000000E+002,  0.00000000000E+000,  0.10000000000E+001
  0.96719000000E+005,  0.98086331680E+006,  0.16500000000E+002,  0.00000000000E+000,  0.10000000000E+001
  0.96879000000E+005,  0.98086331491E+006,  0.16500000000E+002,  0.00000000000E+000,  0.10000000000E+001
  0.97039000000E+005,  0.98086331319E+006,  0.16500000000E+002,  0.00000000000E+000,  0.10000000000E+001
  0.97199000000E+005,  0.98086331160E+006,  0.16500000000E+002,  0.00000000000E+000,  0.10000000000E+001
  0.97359000000E+005,  0.98086331015E+006,  0.16500000000E+002,  0.00000000000E+000,  0.10000000000E+001
  0.97519000000E+005,  0.98086330881E+006,  0.16500000000E+002,  0.00000000000E+000,  0.10000000000E+001
  0.97679000000E+005,  0.98086330758E+006,  0.16500000000E+002,  0.00000000000E+000,  0.10000000000E+001
  0.97839000000E+005,  0.98086330645E+006,  0.16500000000E+002,  0.00000000000E+000,  0.10000000000E+001
  0.97999000000E+005,  0.98086330541E+006,  0.16500000000E+002,  0.00000000000E+000,  0.10000000000E+001
  0.98159000000E+005,  0.98086330446E+006,  0.16500000000E+002,  0.00000000000E+000,  0.10000000000E+001
  0.98319000000E+005,  0.98086330359E+006,  0.16500000000E+002,  0.00000000000E+000,  0.10000000000E+001
  0.98479000000E+005,  0.98086330278E+006,  0.16500000000E+002,  0.00000000000E+000,  0.10000000000E+001
  0.98639000000E+005,  0.98086330204E+006,  0.16500000000E+002,  0.00000000000E+000,  0.10000000000E+001
  0.98799000000E+005,  0.98086330137E+006,  0.16500000000E+002,  0.00000000000E+000,  0.10000000000E+001
  0.98959000000E+005,  0.98086330074E+006,  0.16500000000E+002,  0.00000000000E+000,  0.10000000000E+001
  0.99119000000E+005,  0.98086330017E+006,  0.16500000000E+002,  0.00000000000E+000,  0.10000000000E+001
  0.99279000000E+005,  0.98086329965E+006,  0.16500000000E+002,  0.00000000000E+000,  0.10000000000E+001
  0.99439000000E+005,  0.98086329916E+006,  0.16500000000E+002,  0.00000000000E+000,  0.10000000000E+001
  0.99599000000E+005,  0.98086329872E+006,  0.16500000000E+002,  0.00000000000E+000,  0.10000000000E+001
  0.99759000000E+005,  0.98086329832E+006,  0.16500000000E+002,  0.00000000000E+000,  0.10000000000E+001
  0.99919000000E+005,  0.98086329795E+006,  0.16500000000E+002,  0.00000000000E+000,  0.10000000000E+001
  0.10007900000E+006,  0.98086329760E+006,  0.16500000000E+002,  0.00000000000E+000,  0.10000000000E+001
  0.10023900000E+006,  0.98086329729E+006,  0.16500000000E+002,  0.00000000000E+000,  0.10000000000E+001
  0.10039900000E+006,  0.98086329701E+006,  0.16500000000E+002,  0.00000000000E+000,  0.10000000000E+001
  0.10055900000E+006,  0.98086329675E+006,  0.16500000000E+002,  0.00000000000E+000,  0.10000000000E+001
  0.10071900000E+006,  0.98086329651E+006,  0.16500000000E+002,  0.00000000000E+000,  0.10000000000E+001
  0.10087900000E+006,  0.98086329629E+006,  0.16500000000E+002,  0.00000000000E+000,  0.10000000000E+001
  0.10103900000E+006,  0.98086329609E+006,  0.16500000000E+002,  0.00000000000E+000,  0.10000000000E+001
  0.10119900000E+006,  0.98086329591E+006,  0.16500000000E+002,  0.00000000000E+000,  0.10000000000E+001
  0.10135900000E+006,  0.98086329575E+006,  0.16500000000E+002,  0.00000000000E+000,  0.10000000000E+001
  0.10151900000E+006,  0.98086329560E+006,  0.16500000000E+002,  0.00000000000E+000,  0.10000000000E+001
  0.10167900000E+006,  0.98086329546E+006,  0.16500000000E+002,  0.00000000000E+000,  0.10000000000E+001
  0.10183900000E+006,  0.98086329534E+006,  0.16500000000E+002,  0.00000000000E+000,  0.10000000000E+001
  0.10199900000E+006,  0.98086329523E+006,  0.16500000000E+002,  0.00000000000E+000,  0.10000000000E+001
  0.10215900000E+006,  0.98086329513E+006,  0.16500000000E+002,  0.00000000000E+000,  0.10000000000E+001
  0.10231900000E+006,  0.98086329504E+006,  0.16500000000E+002,  0.00000000000E+000,  0.10000000000E+001
  0.10247900000E+006,  0.98086329496E+006,  0.16500000000E+002,  0.00000000000E+000,  0.10000000000E+001
  0.10263900000E+006,  0.98086329489E+006,  0.16500000000E+002,  0.00000000000E+000,  0.10000000000E+001
  0.10279900000E+006,  0.98086329482E+006,  0.16500000000E+002,  0.00000000000E+000,  0.10000000000E+001
  0.10295900000E+006,  0.98086329477E+006,  0.16500000000E+002,  0.00000000000E+000,  0.10000000000E+001
  0.10311900000E+006,  0.98086329473E+006,  0.16500000000E+002,  0.00000000000E+000,  0.10000000000E+001
  0.10327900000E+006,  0.98086329471E+006,  0.16500000000E+002,  0.00000000000E+000,  0.10000000000E+001
  0.10343900000E+006,  0.98086329470E+006,  0.16500000000E+002,  0.00000000000E+000,  0.10000000000E+001
  0.10359900000E+006,  0.98086329471E+006,  0.16500000000E+002,  0.00000000000E+000,  0.10000000000E+001
  0.10375900000E+006,  0.98086329475E+006,  0.16500000000E+002,  0.00000000000E+000,  0.10000000000E+001
  0.10391900000E+006,  0.98086329483E+006,  0.16500000000E+002,  0.00000000000E+000,  0.10000000000E+001
  0.10407900000E+006,  0.98086329497E+006,  0.16500000000E+002,  0.00000000000E+000,  0.10000000000E+001
  0.10423900000E+006,  0.98086329520E+006,  0.16500000000E+002,  0.00000000000E+000,  0.10000000000E+001
  0.10439900000E+006,  0.98086329553E+006,  0.16500000000E+002,  0.00000000000E+000,  0.10000000000E+001
  0.10455900000E+006,  0.98086329603E+006,  0.16500000000E+002,  0.00000000000E+000,  0.10000000000E+001
  0.10471900000E+006,  0.98086329675E+006,  0.16500000000E+002,  0.00000000000E+000,  0.10000000000E+001
  0.10487900000E+006,  0.98086329778E+006,  0.16500000000E+002,  0.00000000000E+000,  0.10000000000E+001
  0.10503900000E+006,  0.98086329923E+006,  0.16500000000E+002,  0.00000000000E+000,  0.10000000000E+001
  0.10519900000E+006,  0.98086330126E+006,  0.16500000000E+002,  0.00000000000E+000,  0.10000000000E+001
  0.10535900000E+006,  0.98086330406E+006,  0.16500000000E+002,  0.00000000000E+000,  0.10000000000E+001
  0.10551900000E+006,  0.98086330791E+006,  0.16500000000E+002,  0.00000000000E+000,  0.10000000000E+001
  0.10567900000E+006,  0.98086331313E+006,  0.16500000000E+002,  0.00000000000E+000,  0.10000000000E+001
  0.10583900000E+006,  0.98086332015E+006,  0.16500000000E+002,  0.00000000000E+000,  0.10000000000E+001
  0.10599900000E+006,  0.98086332951E+006,  0.16500000000E+002,  0.00000000000E+000,  0.10000000000E+001
  0.10615900000E+006,  0.98086334190E+006,  0.16500000000E+002,  0.00000000000E+000,  0.10000000000E+001
  0.10631900000E+006,  0.98086335814E+006,  0.16500000000E+002,  0.00000000000E+000,  0.10000000000E+001
  0.10647900000E+006,  0.98086337926E+006,  0.16500000000E+002,  0.00000000000E+000,  0.10000000000E+001
  0.10663900000E+006,  0.98086340651E+006,  0.16500000000E+002,  0.00000000000E+000,  0.10000000000E+001
  0.10679900000E+006,  0.98086344138E+006,  0.16500000000E+002,  0.00000000000E+000,  0.10000000000E+001
  0.10695900000E+006,  0.98086348567E+006,  0.16500000000E+002,  0.00000000000E+000,  0.10000000000E+001
  0.10711900000E+006,  0.98086354149E+006,  0.16500000000E+002,  0.00000000000E+000,  0.10000000000E+001
  0.10727900000E+006,  0.98086361133E+006,  0.16500000000E+002,  0.00000000000E+000,  0.10000000000E+001
  0.10743900000E+006,  0.98086369810E+006,  0.16500000000E+002,  0.00000000000E+000,  0.10000000000E+001
  0.10759900000E+006,  0.98086380517E+006,  0.16500000000E+002,  0.00000000000E+000,  0.10000000000E+001
  0.10775900000E+006,  0.98086393642E+006,  0.16500000000E+002,  0.00000000000E+000,  0.10000000000E+001
  0.10791900000E+006,  0.98086409630E+006,  0.16500000000E+002,  0.00000000000E+000,  0.10000000000E+001
  0.10807900000E+006,  0.98086428989E+006,  0.16500000000E+002,  0.00000000000E+000,  0.10000000000E+001
  0.10823900000E+006,  0.98086452296E+006,  0.16500000000E+002,  0.00000000000E+000,  0.10000000000E+001
  0.10827800000E+006,  0.98086458220E+006,  0.16500000000E+002,  0.00000000000E+000,  0.10000000000E+001
