"           TIME(S)","              PRES","              TEMP","             SAT_G","             SAT_L"
  0.94882000000E+005,  0.99758422182E+006,  0.16500000000E+002,  0.00000000000E+000,  0.10000000000E+001
  0.94883000000E+005,  0.99772222709E+006,  0.16500000000E+002,  0.00000000000E+000,  0.10000000000E+001
  0.94884000000E+005,  0.99795516945E+006,  0.16500000000E+002,  0.00000000000E+000,  0.10000000000E+001
  0.94884200000E+005,  0.99800554558E+006,  0.16500000000E+002,  0.00000000000E+000,  0.10000000000E+001
  0.94885200000E+005,  0.99835110161E+006,  0.16500000000E+002,  0.00000000000E+000,  0.10000000000E+001
  0.94886200000E+005,  0.99878929467E+006,  0.16500000000E+002,  0.00000000000E+000,  0.10000000000E+001
  0.94887200000E+005,  0.99931908733E+006,  0.16500000000E+002,  0.00000000000E+000,  0.10000000000E+001
  0.94888200000E+005,  0.99993943740E+006,  0.16500000000E+002,  0.00000000000E+000,  0.10000000000E+001
  0.94889200000E+005,  0.10006492927E+007,  0.16500000000E+002,  0.00000000000E+000,  0.10000000000E+001
  0.94890200000E+005,  0.10014475855E+007,  0.16500000000E+002,  0.00000000000E+000,  0.10000000000E+001
  0.94890700000E+005,  0.10018686747E+007,  0.16500000000E+002,  0.00000000000E+000,  0.10000000000E+001
  0.94891700000E+005,  0.10027976474E+007,  0.16500000000E+002,  0.00000000000E+000,  0.10000000000E+001
  0.94892700000E+005,  0.10038122820E+007,  0.16500000000E+002,  0.00000000000E+000,  0.10000000000E+001
  0.94893700000E+005,  0.10049114100E+007,  0.16500000000E+002,  0.00000000000E+000,  0.10000000000E+001
  0.94894700000E+005,  0.10060938192E+007,  0.16500000000E+002,  0.00000000000E+000,  0.10000000000E+001
  0.94895700000E+005,  0.10073575195E+007,  0.16500000000E+002,  0.00000000000E+000,  0.10000000000E+001
  0.94896700000E+005,  0.10086975069E+007,  0.16500000000E+002,  0.00000000000E+000,  0.10000000000E+001
  0.94897300000E+005,  0.10095253294E+007,  0.16500000000E+002,  0.00000000000E+000,  0.10000000000E+001
  0.94898000000E+005,  0.10105218570E+007,  0.16500000000E+002,  0.00000000000E+000,  0.10000000000E+001
  0.94899000000E+005,  0.10120122079E+007,  0.16500000000E+002,  0.00000000000E+000,  0.10000000000E+001
  0.94900000000E+005,  0.10135647850E+007,  0.16500000000E+002,  0.00000000000E+000,  0.10000000000E+001
  0.94901000000E+005,  0.10151709462E+007,  0.16500000000E+002,  0.00000000000E+000,  0.10000000000E+001
  0.94902000000E+005,  0.10168238614E+007,  0.16500000000E+002,  0.00000000000E+000,  0.10000000000E+001
  0.94903000000E+005,  0.10185160925E+007,  0.16500000000E+002,  0.00000000000E+000,  0.10000000000E+001
  0.94903900000E+005,  0.10200600930E+007,  0.16500000000E+002,  0.00000000000E+000,  0.10000000000E+001
  0.94904900000E+005,  0.10217972177E+007,  0.16500000000E+002,  0.00000000000E+000,  0.10000000000E+001
  0.94905900000E+005,  0.10235658120E+007,  0.16500000000E+002,  0.00000000000E+000,  0.10000000000E+001
  0.94906900000E+005,  0.10253663733E+007,  0.16500000000E+002,  0.00000000000E+000,  0.10000000000E+001
  0.94907900000E+005,  0.10271888684E+007,  0.16500000000E+002,  0.00000000000E+000,  0.10000000000E+001
  0.94908900000E+005,  0.10290314767E+007,  0.16500000000E+002,  0.00000000000E+000,  0.10000000000E+001
  0.94909900000E+005,  0.10308979565E+007,  0.16500000000E+002,  0.00000000000E+000,  0.10000000000E+001
  0.94910400000E+005,  0.10318328705E+007,  0.16500000000E+002,  0.00000000000E+000,  0.10000000000E+001
  0.94911400000E+005,  0.10336922722E+007,  0.16500000000E+002,  0.00000000000E+000,  0.10000000000E+001
  0.94912400000E+005,  0.10355209907E+007,  0.16500000000E+002,  0.00000000000E+000,  0.10000000000E+001
  0.94913400000E+005,  0.10373116476E+007,  0.16500000000E+002,  0.00000000000E+000,  0.10000000000E+001
  0.94914400000E+005,  0.10390725750E+007,  0.16500000000E+002,  0.00000000000E+000,  0.10000000000E+001
  0.94915400000E+005,  0.10408168726E+007,  0.16500000000E+002,  0.00000000000E+000,  0.10000000000E+001
  0.94916400000E+005,  0.10425746040E+007,  0.16500000000E+002,  0.00000000000E+000,  0.10000000000E+001
  0.94917000000E+005,  0.10436060950E+007,  0.16500000000E+002,  0.00000000000E+000,  0.10000000000E+001
  0.94918000000E+005,  0.10452879895E+007,  0.16500000000E+002,  0.00000000000E+000,  0.10000000000E+001
  0.94919000000E+005,  0.10469455749E+007,  0.16500000000E+002,  0.00000000000E+000,  0.10000000000E+001
  0.94920000000E+005,  0.10485973919E+007,  0.16500000000E+002,  0.00000000000E+000,  0.10000000000E+001
  0.94921000000E+005,  0.10502516932E+007,  0.16500000000E+002,  0.00000000000E+000,  0.10000000000E+001
  0.94922000000E+005,  0.10519037156E+007,  0.16500000000E+002,  0.00000000000E+000,  0.10000000000E+001
  0.94923000000E+005,  0.10535512890E+007,  0.16500000000E+002,  0.00000000000E+000,  0.10000000000E+001
  0.94923500000E+005,  0.10543735050E+007,  0.16500000000E+002,  0.00000000000E+000,  0.10000000000E+001
  0.94924500000E+005,  0.10560563727E+007,  0.16500000000E+002,  0.00000000000E+000,  0.10000000000E+001
