"           TIME(S)","              PRES","              TEMP","             SAT_G","             SAT_L"
  0.94860000000E+005,  0.99599004599E+006,  0.16500000000E+002,  0.00000000000E+000,  0.10000000000E+001
  0.94864500000E+005,  0.99599004599E+006,  0.16500000000E+002,  0.00000000000E+000,  0.10000000000E+001
  0.94871100000E+005,  0.99599004599E+006,  0.16500000000E+002,  0.00000000000E+000,  0.10000000000E+001
  0.94877600000E+005,  0.99599004599E+006,  0.16500000000E+002,  0.00000000000E+000,  0.10000000000E+001
  0.94884200000E+005,  0.12322552034E+007,  0.16500000000E+002,  0.00000000000E+000,  0.10000000000E+001
  0.94890700000E+005,  0.18091970057E+007,  0.16500000000E+002,  0.00000000000E+000,  0.10000000000E+001
  0.94897300000E+005,  0.23830460054E+007,  0.16500000000E+002,  0.00000000000E+000,  0.10000000000E+001
  0.94903900000E+005,  0.29459158610E+007,  0.16500000000E+002,  0.00000000000E+000,  0.10000000000E+001
  0.94910400000E+005,  0.34901663917E+007,  0.16500000000E+002,  0.00000000000E+000,  0.10000000000E+001
  0.94917000000E+005,  0.41286648620E+007,  0.16500000000E+002,  0.00000000000E+000,  0.10000000000E+001
  0.94923500000E+005,  0.46607471343E+007,  0.16500000000E+002,  0.00000000000E+000,  0.10000000000E+001
  0.94930100000E+005,  0.56111890165E+007,  0.16500000000E+002,  0.00000000000E+000,  0.10000000000E+001
  0.94936600000E+005,  0.76973089668E+007,  0.16500000000E+002,  0.00000000000E+000,  0.10000000000E+001
  0.94943200000E+005,  0.94957591518E+007,  0.16500000000E+002,  0.00000000000E+000,  0.10000000000E+001
  0.94949800000E+005,  0.10296839787E+008,  0.16500000000E+002,  0.00000000000E+000,  0.10000000000E+001
  0.94956300000E+005,  0.10196665694E+008,  0.16500000000E+002,  0.00000000000E+000,  0.10000000000E+001
  0.94962900000E+005,  0.98591362815E+007,  0.16500000000E+002,  0.00000000000E+000,  0.10000000000E+001
  0.94969400000E+005,  0.96229768135E+007,  0.16500000000E+002,  0.00000000000E+000,  0.10000000000E+001
  0.94976000000E+005,  0.94524161757E+007,  0.16500000000E+002,  0.00000000000E+000,  0.10000000000E+001
  0.94986000000E+005,  0.93769930250E+007,  0.16500000000E+002,  0.00000000000E+000,  0.10000000000E+001
  0.94996000000E+005,  0.92348219279E+007,  0.16500000000E+002,  0.00000000000E+000,  0.10000000000E+001
  0.95006000000E+005,  0.90569013884E+007,  0.16500000000E+002,  0.00000000000E+000,  0.10000000000E+001
  0.95016000000E+005,  0.88857080846E+007,  0.16500000000E+002,  0.00000000000E+000,  0.10000000000E+001
  0.95026000000E+005,  0.87226470637E+007,  0.16500000000E+002,  0.00000000000E+000,  0.10000000000E+001
  0.95036000000E+005,  0.85581306314E+007,  0.16500000000E+002,  0.00000000000E+000,  0.10000000000E+001
  0.95046000000E+005,  0.84307102774E+007,  0.16500000000E+002,  0.00000000000E+000,  0.10000000000E+001
  0.95056000000E+005,  0.83393111749E+007,  0.16500000000E+002,  0.00000000000E+000,  0.10000000000E+001
  0.95066000000E+005,  0.82574920638E+007,  0.16500000000E+002,  0.00000000000E+000,  0.10000000000E+001
  0.95076000000E+005,  0.81822454602E+007,  0.16500000000E+002,  0.00000000000E+000,  0.10000000000E+001
  0.95086000000E+005,  0.81254926746E+007,  0.16500000000E+002,  0.00000000000E+000,  0.10000000000E+001
  0.95096000000E+005,  0.80913194692E+007,  0.16500000000E+002,  0.00000000000E+000,  0.10000000000E+001
  0.95106000000E+005,  0.80753029191E+007,  0.16500000000E+002,  0.00000000000E+000,  0.10000000000E+001
  0.95116000000E+005,  0.80730432662E+007,  0.16500000000E+002,  0.00000000000E+000,  0.10000000000E+001
  0.95126000000E+005,  0.80788377618E+007,  0.16500000000E+002,  0.00000000000E+000,  0.10000000000E+001
  0.95136000000E+005,  0.80878435261E+007,  0.16500000000E+002,  0.00000000000E+000,  0.10000000000E+001
  0.95146000000E+005,  0.80987373925E+007,  0.16500000000E+002,  0.00000000000E+000,  0.10000000000E+001
  0.95156000000E+005,  0.81113506995E+007,  0.16500000000E+002,  0.00000000000E+000,  0.10000000000E+001
  0.95166000000E+005,  0.81258480776E+007,  0.16500000000E+002,  0.00000000000E+000,  0.10000000000E+001
  0.95176000000E+005,  0.81408638963E+007,  0.16500000000E+002,  0.00000000000E+000,  0.10000000000E+001
  0.95186000000E+005,  0.81548198269E+007,  0.16500000000E+002,  0.00000000000E+000,  0.10000000000E+001
  0.95196000000E+005,  0.81691367405E+007,  0.16500000000E+002,  0.00000000000E+000,  0.10000000000E+001
  0.95206000000E+005,  0.81849516642E+007,  0.16500000000E+002,  0.00000000000E+000,  0.10000000000E+001
  0.95216000000E+005,  0.82012203530E+007,  0.16500000000E+002,  0.00000000000E+000,  0.10000000000E+001
  0.95226000000E+005,  0.82174468797E+007,  0.16500000000E+002,  0.00000000000E+000,  0.10000000000E+001
  0.95236000000E+005,  0.82321426625E+007,  0.16500000000E+002,  0.00000000000E+000,  0.10000000000E+001
  0.95246000000E+005,  0.82445763558E+007,  0.16500000000E+002,  0.00000000000E+000,  0.10000000000E+001
  0.95256000000E+005,  0.82550586370E+007,  0.16500000000E+002,  0.00000000000E+000,  0.10000000000E+001
  0.95266000000E+005,  0.82657314128E+007,  0.16500000000E+002,  0.00000000000E+000,  0.10000000000E+001
  0.95276000000E+005,  0.82777337025E+007,  0.16500000000E+002,  0.00000000000E+000,  0.10000000000E+001
  0.95286000000E+005,  0.82899502261E+007,  0.16500000000E+002,  0.00000000000E+000,  0.10000000000E+001
  0.95296000000E+005,  0.83008740992E+007,  0.16500000000E+002,  0.00000000000E+000,  0.10000000000E+001
  0.95306000000E+005,  0.83089641428E+007,  0.16500000000E+002,  0.00000000000E+000,  0.10000000000E+001
  0.95316000000E+005,  0.83136344315E+007,  0.16500000000E+002,  0.00000000000E+000,  0.10000000000E+001
  0.95326000000E+005,  0.83156487741E+007,  0.16500000000E+002,  0.00000000000E+000,  0.10000000000E+001
  0.95336000000E+005,  0.83152057534E+007,  0.16500000000E+002,  0.00000000000E+000,  0.10000000000E+001
  0.95346000000E+005,  0.83135490609E+007,  0.16500000000E+002,  0.00000000000E+000,  0.10000000000E+001
  0.95356000000E+005,  0.83111216090E+007,  0.16500000000E+002,  0.00000000000E+000,  0.10000000000E+001
  0.95366000000E+005,  0.83090506150E+007,  0.16500000000E+002,  0.00000000000E+000,  0.10000000000E+001
  0.95376000000E+005,  0.83078066601E+007,  0.16500000000E+002,  0.00000000000E+000,  0.10000000000E+001
  0.95386000000E+005,  0.83077549537E+007,  0.16500000000E+002,  0.00000000000E+000,  0.10000000000E+001
  0.95396000000E+005,  0.83088708485E+007,  0.16500000000E+002,  0.00000000000E+000,  0.10000000000E+001
  0.95406000000E+005,  0.83104932300E+007,  0.16500000000E+002,  0.00000000000E+000,  0.10000000000E+001
  0.95416000000E+005,  0.83117638218E+007,  0.16500000000E+002,  0.00000000000E+000,  0.10000000000E+001
  0.95426000000E+005,  0.83121404191E+007,  0.16500000000E+002,  0.00000000000E+000,  0.10000000000E+001
  0.95436000000E+005,  0.83113097218E+007,  0.16500000000E+002,  0.00000000000E+000,  0.10000000000E+001
  0.95446000000E+005,  0.83093524574E+007,  0.16500000000E+002,  0.00000000000E+000,  0.10000000000E+001
  0.95456000000E+005,  0.83058982766E+007,  0.16500000000E+002,  0.00000000000E+000,  0.10000000000E+001
  0.95466000000E+005,  0.83010226213E+007,  0.16500000000E+002,  0.00000000000E+000,  0.10000000000E+001
  0.95476000000E+005,  0.82945788901E+007,  0.16500000000E+002,  0.00000000000E+000,  0.10000000000E+001
  0.95486000000E+005,  0.82859912129E+007,  0.16500000000E+002,  0.00000000000E+000,  0.10000000000E+001
  0.95496000000E+005,  0.82755259107E+007,  0.16500000000E+002,  0.00000000000E+000,  0.10000000000E+001
  0.95506000000E+005,  0.82635627219E+007,  0.16500000000E+002,  0.00000000000E+000,  0.10000000000E+001
  0.95516000000E+005,  0.82503801195E+007,  0.16500000000E+002,  0.00000000000E+000,  0.10000000000E+001
  0.95526000000E+005,  0.82365126126E+007,  0.16500000000E+002,  0.00000000000E+000,  0.10000000000E+001
  0.95536000000E+005,  0.82223389341E+007,  0.16500000000E+002,  0.00000000000E+000,  0.10000000000E+001
  0.95546000000E+005,  0.82082016200E+007,  0.16500000000E+002,  0.00000000000E+000,  0.10000000000E+001
  0.95556000000E+005,  0.81944315993E+007,  0.16500000000E+002,  0.00000000000E+000,  0.10000000000E+001
  0.95566000000E+005,  0.81812723531E+007,  0.16500000000E+002,  0.00000000000E+000,  0.10000000000E+001
  0.95576000000E+005,  0.81690612024E+007,  0.16500000000E+002,  0.00000000000E+000,  0.10000000000E+001
