"           TIME(S)","              PRES","              TEMP","             SAT_G","             SAT_L"
  0.94860000000E+005,  0.99952876317E+006,  0.16500000000E+002,  0.00000000000E+000,  0.10000000000E+001
  0.94870000000E+005,  0.99952876309E+006,  0.16500000000E+002,  0.00000000000E+000,  0.10000000000E+001
  0.94872000000E+005,  0.99952876303E+006,  0.16500000000E+002,  0.00000000000E+000,  0.10000000000E+001
  0.94874000000E+005,  0.99952876302E+006,  0.16500000000E+002,  0.00000000000E+000,  0.10000000000E+001
  0.94876000000E+005,  0.99952876301E+006,  0.16500000000E+002,  0.00000000000E+000,  0.10000000000E+001
  0.94878000000E+005,  0.99952876301E+006,  0.16500000000E+002,  0.00000000000E+000,  0.10000000000E+001
  0.94880000000E+005,  0.99952876301E+006,  0.16500000000E+002,  0.00000000000E+000,  0.10000000000E+001
  0.94882000000E+005,  0.10571988762E+007,  0.16500000000E+002,  0.00000000000E+000,  0.10000000000E+001
  0.94884000000E+005,  0.13192286789E+007,  0.16500000000E+002,  0.00000000000E+000,  0.10000000000E+001
  0.94886000000E+005,  0.15807906411E+007,  0.16500000000E+002,  0.00000000000E+000,  0.10000000000E+001
  0.94888000000E+005,  0.18418456267E+007,  0.16500000000E+002,  0.00000000000E+000,  0.10000000000E+001
  0.94890000000E+005,  0.21023376834E+007,  0.16500000000E+002,  0.00000000000E+000,  0.10000000000E+001
  0.94892000000E+005,  0.23621978921E+007,  0.16500000000E+002,  0.00000000000E+000,  0.10000000000E+001
  0.94894000000E+005,  0.26213424238E+007,  0.16500000000E+002,  0.00000000000E+000,  0.10000000000E+001
  0.94896000000E+005,  0.28796692974E+007,  0.16500000000E+002,  0.00000000000E+000,  0.10000000000E+001
  0.94898000000E+005,  0.31370532303E+007,  0.16500000000E+002,  0.00000000000E+000,  0.10000000000E+001
  0.94900000000E+005,  0.33933384197E+007,  0.16500000000E+002,  0.00000000000E+000,  0.10000000000E+001
  0.94902000000E+005,  0.36483323278E+007,  0.16500000000E+002,  0.00000000000E+000,  0.10000000000E+001
  0.94904000000E+005,  0.39017938943E+007,  0.16500000000E+002,  0.00000000000E+000,  0.10000000000E+001
  0.94906000000E+005,  0.41533001262E+007,  0.16500000000E+002,  0.00000000000E+000,  0.10000000000E+001
  0.94908000000E+005,  0.44022751130E+007,  0.16500000000E+002,  0.00000000000E+000,  0.10000000000E+001
  0.94910000000E+005,  0.46480229347E+007,  0.16500000000E+002,  0.00000000000E+000,  0.10000000000E+001
  0.94912000000E+005,  0.48886178068E+007,  0.16500000000E+002,  0.00000000000E+000,  0.10000000000E+001
  0.94914000000E+005,  0.51221596875E+007,  0.16500000000E+002,  0.00000000000E+000,  0.10000000000E+001
  0.94916000000E+005,  0.54003177817E+007,  0.16500000000E+002,  0.00000000000E+000,  0.10000000000E+001
  0.94918000000E+005,  0.56897769234E+007,  0.16500000000E+002,  0.00000000000E+000,  0.10000000000E+001
  0.94920000000E+005,  0.58854044797E+007,  0.16500000000E+002,  0.00000000000E+000,  0.10000000000E+001
  0.94922000000E+005,  0.60440150244E+007,  0.16500000000E+002,  0.00000000000E+000,  0.10000000000E+001
  0.94924000000E+005,  0.62109379838E+007,  0.16500000000E+002,  0.00000000000E+000,  0.10000000000E+001
  0.94926000000E+005,  0.64499884018E+007,  0.16500000000E+002,  0.00000000000E+000,  0.10000000000E+001
  0.94928000000E+005,  0.67191661811E+007,  0.16500000000E+002,  0.00000000000E+000,  0.10000000000E+001
  0.94930000000E+005,  0.70426132630E+007,  0.16500000000E+002,  0.00000000000E+000,  0.10000000000E+001
  0.94932000000E+005,  0.75695055542E+007,  0.16500000000E+002,  0.00000000000E+000,  0.10000000000E+001
  0.94934000000E+005,  0.81648945003E+007,  0.16500000000E+002,  0.00000000000E+000,  0.10000000000E+001
  0.94936000000E+005,  0.85223331667E+007,  0.16500000000E+002,  0.00000000000E+000,  0.10000000000E+001
  0.94938000000E+005,  0.86361010498E+007,  0.16500000000E+002,  0.00000000000E+000,  0.10000000000E+001
  0.94940000000E+005,  0.85862805830E+007,  0.16500000000E+002,  0.00000000000E+000,  0.10000000000E+001
  0.94942000000E+005,  0.83862071903E+007,  0.16500000000E+002,  0.00000000000E+000,  0.10000000000E+001
  0.94944000000E+005,  0.82171917860E+007,  0.16500000000E+002,  0.00000000000E+000,  0.10000000000E+001
