"           TIME(S)","              PRES","              TEMP","             SAT_G","             SAT_L"
  0.94888500000E+005,  0.99773967318E+006,  0.16500000000E+002,  0.00000000000E+000,  0.10000000000E+001
  0.94888700000E+005,  0.99774968836E+006,  0.16500000000E+002,  0.00000000000E+000,  0.10000000000E+001
  0.94888900000E+005,  0.99776255751E+006,  0.16500000000E+002,  0.00000000000E+000,  0.10000000000E+001
  0.94889100000E+005,  0.99777827627E+006,  0.16500000000E+002,  0.00000000000E+000,  0.10000000000E+001
  0.94889300000E+005,  0.99779684031E+006,  0.16500000000E+002,  0.00000000000E+000,  0.10000000000E+001
  0.94889500000E+005,  0.99781824535E+006,  0.16500000000E+002,  0.00000000000E+000,  0.10000000000E+001
  0.94889700000E+005,  0.99784248713E+006,  0.16500000000E+002,  0.00000000000E+000,  0.10000000000E+001
  0.94889900000E+005,  0.99786956144E+006,  0.16500000000E+002,  0.00000000000E+000,  0.10000000000E+001
  0.94890100000E+005,  0.99789946411E+006,  0.16500000000E+002,  0.00000000000E+000,  0.10000000000E+001
  0.94890300000E+005,  0.99793219100E+006,  0.16500000000E+002,  0.00000000000E+000,  0.10000000000E+001
  0.94890500000E+005,  0.99796773800E+006,  0.16500000000E+002,  0.00000000000E+000,  0.10000000000E+001
  0.94890700000E+005,  0.99800610101E+006,  0.16500000000E+002,  0.00000000000E+000,  0.10000000000E+001
  0.94890900000E+005,  0.99804727598E+006,  0.16500000000E+002,  0.00000000000E+000,  0.10000000000E+001
  0.94891100000E+005,  0.99809125890E+006,  0.16500000000E+002,  0.00000000000E+000,  0.10000000000E+001
  0.94891300000E+005,  0.99813804577E+006,  0.16500000000E+002,  0.00000000000E+000,  0.10000000000E+001
  0.94891500000E+005,  0.99818763263E+006,  0.16500000000E+002,  0.00000000000E+000,  0.10000000000E+001
  0.94891700000E+005,  0.99824001551E+006,  0.16500000000E+002,  0.00000000000E+000,  0.10000000000E+001
  0.94891900000E+005,  0.99829519049E+006,  0.16500000000E+002,  0.00000000000E+000,  0.10000000000E+001
  0.94892100000E+005,  0.99835315370E+006,  0.16500000000E+002,  0.00000000000E+000,  0.10000000000E+001
  0.94892300000E+005,  0.99841390126E+006,  0.16500000000E+002,  0.00000000000E+000,  0.10000000000E+001
  0.94892500000E+005,  0.99847742934E+006,  0.16500000000E+002,  0.00000000000E+000,  0.10000000000E+001
  0.94892700000E+005,  0.99854373408E+006,  0.16500000000E+002,  0.00000000000E+000,  0.10000000000E+001
  0.94892900000E+005,  0.99861281168E+006,  0.16500000000E+002,  0.00000000000E+000,  0.10000000000E+001
  0.94893100000E+005,  0.99868465833E+006,  0.16500000000E+002,  0.00000000000E+000,  0.10000000000E+001
  0.94893300000E+005,  0.99875927026E+006,  0.16500000000E+002,  0.00000000000E+000,  0.10000000000E+001
  0.94893500000E+005,  0.99883664372E+006,  0.16500000000E+002,  0.00000000000E+000,  0.10000000000E+001
  0.94893700000E+005,  0.99891677498E+006,  0.16500000000E+002,  0.00000000000E+000,  0.10000000000E+001
  0.94893900000E+005,  0.99899966035E+006,  0.16500000000E+002,  0.00000000000E+000,  0.10000000000E+001
  0.94894100000E+005,  0.99908529613E+006,  0.16500000000E+002,  0.00000000000E+000,  0.10000000000E+001
  0.94894300000E+005,  0.99917367864E+006,  0.16500000000E+002,  0.00000000000E+000,  0.10000000000E+001
  0.94894500000E+005,  0.99926480423E+006,  0.16500000000E+002,  0.00000000000E+000,  0.10000000000E+001
  0.94894700000E+005,  0.99935866925E+006,  0.16500000000E+002,  0.00000000000E+000,  0.10000000000E+001
  0.94894900000E+005,  0.99945527009E+006,  0.16500000000E+002,  0.00000000000E+000,  0.10000000000E+001
  0.94895100000E+005,  0.99955460311E+006,  0.16500000000E+002,  0.00000000000E+000,  0.10000000000E+001
  0.94895300000E+005,  0.99965666475E+006,  0.16500000000E+002,  0.00000000000E+000,  0.10000000000E+001
  0.94895500000E+005,  0.99976145140E+006,  0.16500000000E+002,  0.00000000000E+000,  0.10000000000E+001
  0.94895700000E+005,  0.99986895952E+006,  0.16500000000E+002,  0.00000000000E+000,  0.10000000000E+001
  0.94895900000E+005,  0.99997918554E+006,  0.16500000000E+002,  0.00000000000E+000,  0.10000000000E+001
  0.94896100000E+005,  0.10000921259E+007,  0.16500000000E+002,  0.00000000000E+000,  0.10000000000E+001
  0.94896300000E+005,  0.10002077772E+007,  0.16500000000E+002,  0.00000000000E+000,  0.10000000000E+001
  0.94896500000E+005,  0.10003261358E+007,  0.16500000000E+002,  0.00000000000E+000,  0.10000000000E+001
  0.94896700000E+005,  0.10004471982E+007,  0.16500000000E+002,  0.00000000000E+000,  0.10000000000E+001
  0.94896900000E+005,  0.10005709610E+007,  0.16500000000E+002,  0.00000000000E+000,  0.10000000000E+001
  0.94897100000E+005,  0.10006974206E+007,  0.16500000000E+002,  0.00000000000E+000,  0.10000000000E+001
  0.94897300000E+005,  0.10008265737E+007,  0.16500000000E+002,  0.00000000000E+000,  0.10000000000E+001
  0.94897500000E+005,  0.10009584167E+007,  0.16500000000E+002,  0.00000000000E+000,  0.10000000000E+001
  0.94897700000E+005,  0.10010929463E+007,  0.16500000000E+002,  0.00000000000E+000,  0.10000000000E+001
  0.94897900000E+005,  0.10012301590E+007,  0.16500000000E+002,  0.00000000000E+000,  0.10000000000E+001
  0.94898100000E+005,  0.10013700513E+007,  0.16500000000E+002,  0.00000000000E+000,  0.10000000000E+001
  0.94898300000E+005,  0.10015126199E+007,  0.16500000000E+002,  0.00000000000E+000,  0.10000000000E+001
  0.94898500000E+005,  0.10016578614E+007,  0.16500000000E+002,  0.00000000000E+000,  0.10000000000E+001
  0.94898700000E+005,  0.10018057723E+007,  0.16500000000E+002,  0.00000000000E+000,  0.10000000000E+001
  0.94898900000E+005,  0.10019563494E+007,  0.16500000000E+002,  0.00000000000E+000,  0.10000000000E+001
  0.94899100000E+005,  0.10021095891E+007,  0.16500000000E+002,  0.00000000000E+000,  0.10000000000E+001
  0.94899300000E+005,  0.10022654882E+007,  0.16500000000E+002,  0.00000000000E+000,  0.10000000000E+001
  0.94899500000E+005,  0.10024240434E+007,  0.16500000000E+002,  0.00000000000E+000,  0.10000000000E+001
  0.94899700000E+005,  0.10025852511E+007,  0.16500000000E+002,  0.00000000000E+000,  0.10000000000E+001
  0.94899900000E+005,  0.10027491082E+007,  0.16500000000E+002,  0.00000000000E+000,  0.10000000000E+001
  0.94900100000E+005,  0.10029156112E+007,  0.16500000000E+002,  0.00000000000E+000,  0.10000000000E+001
  0.94900300000E+005,  0.10030847570E+007,  0.16500000000E+002,  0.00000000000E+000,  0.10000000000E+001
  0.94900500000E+005,  0.10032565420E+007,  0.16500000000E+002,  0.00000000000E+000,  0.10000000000E+001
  0.94900700000E+005,  0.10034309630E+007,  0.16500000000E+002,  0.00000000000E+000,  0.10000000000E+001
  0.94900900000E+005,  0.10036080168E+007,  0.16500000000E+002,  0.00000000000E+000,  0.10000000000E+001
  0.94901100000E+005,  0.10037877000E+007,  0.16500000000E+002,  0.00000000000E+000,  0.10000000000E+001
  0.94901300000E+005,  0.10039700093E+007,  0.16500000000E+002,  0.00000000000E+000,  0.10000000000E+001
  0.94901500000E+005,  0.10041549415E+007,  0.16500000000E+002,  0.00000000000E+000,  0.10000000000E+001
  0.94901700000E+005,  0.10043424932E+007,  0.16500000000E+002,  0.00000000000E+000,  0.10000000000E+001
  0.94901900000E+005,  0.10045326612E+007,  0.16500000000E+002,  0.00000000000E+000,  0.10000000000E+001
  0.94902100000E+005,  0.10047254421E+007,  0.16500000000E+002,  0.00000000000E+000,  0.10000000000E+001
  0.94902300000E+005,  0.10049208329E+007,  0.16500000000E+002,  0.00000000000E+000,  0.10000000000E+001
  0.94902500000E+005,  0.10051188301E+007,  0.16500000000E+002,  0.00000000000E+000,  0.10000000000E+001
  0.94902700000E+005,  0.10053194305E+007,  0.16500000000E+002,  0.00000000000E+000,  0.10000000000E+001
  0.94902900000E+005,  0.10055226309E+007,  0.16500000000E+002,  0.00000000000E+000,  0.10000000000E+001
  0.94903100000E+005,  0.10057284280E+007,  0.16500000000E+002,  0.00000000000E+000,  0.10000000000E+001
  0.94903300000E+005,  0.10059368186E+007,  0.16500000000E+002,  0.00000000000E+000,  0.10000000000E+001
  0.94903500000E+005,  0.10061477994E+007,  0.16500000000E+002,  0.00000000000E+000,  0.10000000000E+001
  0.94903700000E+005,  0.10063613672E+007,  0.16500000000E+002,  0.00000000000E+000,  0.10000000000E+001
  0.94903900000E+005,  0.10065775188E+007,  0.16500000000E+002,  0.00000000000E+000,  0.10000000000E+001
  0.94904100000E+005,  0.10067962509E+007,  0.16500000000E+002,  0.00000000000E+000,  0.10000000000E+001
  0.94904300000E+005,  0.10070175603E+007,  0.16500000000E+002,  0.00000000000E+000,  0.10000000000E+001
  0.94904500000E+005,  0.10072414438E+007,  0.16500000000E+002,  0.00000000000E+000,  0.10000000000E+001
  0.94904700000E+005,  0.10074678981E+007,  0.16500000000E+002,  0.00000000000E+000,  0.10000000000E+001
  0.94904900000E+005,  0.10076969201E+007,  0.16500000000E+002,  0.00000000000E+000,  0.10000000000E+001
  0.94905100000E+005,  0.10079285064E+007,  0.16500000000E+002,  0.00000000000E+000,  0.10000000000E+001
  0.94905300000E+005,  0.10081626540E+007,  0.16500000000E+002,  0.00000000000E+000,  0.10000000000E+001
  0.94905500000E+005,  0.10083993595E+007,  0.16500000000E+002,  0.00000000000E+000,  0.10000000000E+001
  0.94905700000E+005,  0.10086386198E+007,  0.16500000000E+002,  0.00000000000E+000,  0.10000000000E+001
  0.94905900000E+005,  0.10088804317E+007,  0.16500000000E+002,  0.00000000000E+000,  0.10000000000E+001
  0.94906100000E+005,  0.10091247918E+007,  0.16500000000E+002,  0.00000000000E+000,  0.10000000000E+001
  0.94906300000E+005,  0.10093716971E+007,  0.16500000000E+002,  0.00000000000E+000,  0.10000000000E+001
  0.94906500000E+005,  0.10096211443E+007,  0.16500000000E+002,  0.00000000000E+000,  0.10000000000E+001
  0.94906700000E+005,  0.10098731303E+007,  0.16500000000E+002,  0.00000000000E+000,  0.10000000000E+001
  0.94906900000E+005,  0.10101276516E+007,  0.16500000000E+002,  0.00000000000E+000,  0.10000000000E+001
  0.94907100000E+005,  0.10103847053E+007,  0.16500000000E+002,  0.00000000000E+000,  0.10000000000E+001
  0.94907300000E+005,  0.10106442881E+007,  0.16500000000E+002,  0.00000000000E+000,  0.10000000000E+001
  0.94907500000E+005,  0.10109063967E+007,  0.16500000000E+002,  0.00000000000E+000,  0.10000000000E+001
  0.94907700000E+005,  0.10111710279E+007,  0.16500000000E+002,  0.00000000000E+000,  0.10000000000E+001
  0.94907900000E+005,  0.10114381786E+007,  0.16500000000E+002,  0.00000000000E+000,  0.10000000000E+001
  0.94908100000E+005,  0.10117078455E+007,  0.16500000000E+002,  0.00000000000E+000,  0.10000000000E+001
  0.94908300000E+005,  0.10119800254E+007,  0.16500000000E+002,  0.00000000000E+000,  0.10000000000E+001
  0.94908500000E+005,  0.10122547151E+007,  0.16500000000E+002,  0.00000000000E+000,  0.10000000000E+001
  0.94908700000E+005,  0.10125319113E+007,  0.16500000000E+002,  0.00000000000E+000,  0.10000000000E+001
  0.94908900000E+005,  0.10128116108E+007,  0.16500000000E+002,  0.00000000000E+000,  0.10000000000E+001
  0.94909100000E+005,  0.10130938103E+007,  0.16500000000E+002,  0.00000000000E+000,  0.10000000000E+001
  0.94909300000E+005,  0.10133785061E+007,  0.16500000000E+002,  0.00000000000E+000,  0.10000000000E+001
  0.94909500000E+005,  0.10136656944E+007,  0.16500000000E+002,  0.00000000000E+000,  0.10000000000E+001
  0.94909700000E+005,  0.10139553714E+007,  0.16500000000E+002,  0.00000000000E+000,  0.10000000000E+001
  0.94909900000E+005,  0.10142475327E+007,  0.16500000000E+002,  0.00000000000E+000,  0.10000000000E+001
  0.94910100000E+005,  0.10145421735E+007,  0.16500000000E+002,  0.00000000000E+000,  0.10000000000E+001
  0.94910300000E+005,  0.10148392886E+007,  0.16500000000E+002,  0.00000000000E+000,  0.10000000000E+001
  0.94910500000E+005,  0.10151388719E+007,  0.16500000000E+002,  0.00000000000E+000,  0.10000000000E+001
  0.94910700000E+005,  0.10154409168E+007,  0.16500000000E+002,  0.00000000000E+000,  0.10000000000E+001
  0.94910900000E+005,  0.10157454163E+007,  0.16500000000E+002,  0.00000000000E+000,  0.10000000000E+001
  0.94911100000E+005,  0.10160523629E+007,  0.16500000000E+002,  0.00000000000E+000,  0.10000000000E+001
  0.94911300000E+005,  0.10163617487E+007,  0.16500000000E+002,  0.00000000000E+000,  0.10000000000E+001
  0.94911500000E+005,  0.10166735653E+007,  0.16500000000E+002,  0.00000000000E+000,  0.10000000000E+001
  0.94911700000E+005,  0.10169878035E+007,  0.16500000000E+002,  0.00000000000E+000,  0.10000000000E+001
  0.94911900000E+005,  0.10173044536E+007,  0.16500000000E+002,  0.00000000000E+000,  0.10000000000E+001
  0.94912100000E+005,  0.10176235042E+007,  0.16500000000E+002,  0.00000000000E+000,  0.10000000000E+001
  0.94912300000E+005,  0.10179449434E+007,  0.16500000000E+002,  0.00000000000E+000,  0.10000000000E+001
  0.94912500000E+005,  0.10182687576E+007,  0.16500000000E+002,  0.00000000000E+000,  0.10000000000E+001
  0.94912700000E+005,  0.10185949464E+007,  0.16500000000E+002,  0.00000000000E+000,  0.10000000000E+001
  0.94912900000E+005,  0.10189234996E+007,  0.16500000000E+002,  0.00000000000E+000,  0.10000000000E+001
  0.94913100000E+005,  0.10192544000E+007,  0.16500000000E+002,  0.00000000000E+000,  0.10000000000E+001
  0.94913300000E+005,  0.10195876290E+007,  0.16500000000E+002,  0.00000000000E+000,  0.10000000000E+001
  0.94913500000E+005,  0.10199231674E+007,  0.16500000000E+002,  0.00000000000E+000,  0.10000000000E+001
  0.94913700000E+005,  0.10202609850E+007,  0.16500000000E+002,  0.00000000000E+000,  0.10000000000E+001
  0.94913900000E+005,  0.10206010583E+007,  0.16500000000E+002,  0.00000000000E+000,  0.10000000000E+001
  0.94914100000E+005,  0.10209433695E+007,  0.16500000000E+002,  0.00000000000E+000,  0.10000000000E+001
  0.94914300000E+005,  0.10212879020E+007,  0.16500000000E+002,  0.00000000000E+000,  0.10000000000E+001
  0.94914500000E+005,  0.10216346398E+007,  0.16500000000E+002,  0.00000000000E+000,  0.10000000000E+001
  0.94914700000E+005,  0.10219835866E+007,  0.16500000000E+002,  0.00000000000E+000,  0.10000000000E+001
  0.94914900000E+005,  0.10223347363E+007,  0.16500000000E+002,  0.00000000000E+000,  0.10000000000E+001
  0.94915100000E+005,  0.10226880754E+007,  0.16500000000E+002,  0.00000000000E+000,  0.10000000000E+001
  0.94915300000E+005,  0.10230435918E+007,  0.16500000000E+002,  0.00000000000E+000,  0.10000000000E+001
  0.94915500000E+005,  0.10234012744E+007,  0.16500000000E+002,  0.00000000000E+000,  0.10000000000E+001
  0.94915700000E+005,  0.10237631235E+007,  0.16500000000E+002,  0.00000000000E+000,  0.10000000000E+001
  0.94915900000E+005,  0.10241299826E+007,  0.16500000000E+002,  0.00000000000E+000,  0.10000000000E+001
  0.94916100000E+005,  0.10245018286E+007,  0.16500000000E+002,  0.00000000000E+000,  0.10000000000E+001
  0.94916300000E+005,  0.10248786351E+007,  0.16500000000E+002,  0.00000000000E+000,  0.10000000000E+001
  0.94916500000E+005,  0.10252603740E+007,  0.16500000000E+002,  0.00000000000E+000,  0.10000000000E+001
  0.94916700000E+005,  0.10256452156E+007,  0.16500000000E+002,  0.00000000000E+000,  0.10000000000E+001
  0.94916900000E+005,  0.10260323651E+007,  0.16500000000E+002,  0.00000000000E+000,  0.10000000000E+001
  0.94917100000E+005,  0.10264218042E+007,  0.16500000000E+002,  0.00000000000E+000,  0.10000000000E+001
  0.94917300000E+005,  0.10268134785E+007,  0.16500000000E+002,  0.00000000000E+000,  0.10000000000E+001
  0.94917500000E+005,  0.10272073944E+007,  0.16500000000E+002,  0.00000000000E+000,  0.10000000000E+001
  0.94917700000E+005,  0.10276035466E+007,  0.16500000000E+002,  0.00000000000E+000,  0.10000000000E+001
  0.94917900000E+005,  0.10280019280E+007,  0.16500000000E+002,  0.00000000000E+000,  0.10000000000E+001
  0.94918100000E+005,  0.10284025322E+007,  0.16500000000E+002,  0.00000000000E+000,  0.10000000000E+001
  0.94918300000E+005,  0.10288053526E+007,  0.16500000000E+002,  0.00000000000E+000,  0.10000000000E+001
  0.94918500000E+005,  0.10292103818E+007,  0.16500000000E+002,  0.00000000000E+000,  0.10000000000E+001
  0.94918700000E+005,  0.10296176121E+007,  0.16500000000E+002,  0.00000000000E+000,  0.10000000000E+001
  0.94918900000E+005,  0.10300270335E+007,  0.16500000000E+002,  0.00000000000E+000,  0.10000000000E+001
  0.94919100000E+005,  0.10304386330E+007,  0.16500000000E+002,  0.00000000000E+000,  0.10000000000E+001
  0.94919300000E+005,  0.10308523990E+007,  0.16500000000E+002,  0.00000000000E+000,  0.10000000000E+001
  0.94919500000E+005,  0.10312683193E+007,  0.16500000000E+002,  0.00000000000E+000,  0.10000000000E+001
  0.94919700000E+005,  0.10316863803E+007,  0.16500000000E+002,  0.00000000000E+000,  0.10000000000E+001
  0.94919900000E+005,  0.10321065669E+007,  0.16500000000E+002,  0.00000000000E+000,  0.10000000000E+001
  0.94920100000E+005,  0.10325288615E+007,  0.16500000000E+002,  0.00000000000E+000,  0.10000000000E+001
  0.94920300000E+005,  0.10329532465E+007,  0.16500000000E+002,  0.00000000000E+000,  0.10000000000E+001
  0.94920500000E+005,  0.10333797040E+007,  0.16500000000E+002,  0.00000000000E+000,  0.10000000000E+001
  0.94920700000E+005,  0.10338080017E+007,  0.16500000000E+002,  0.00000000000E+000,  0.10000000000E+001
  0.94920900000E+005,  0.10342380318E+007,  0.16500000000E+002,  0.00000000000E+000,  0.10000000000E+001
  0.94921100000E+005,  0.10346697784E+007,  0.16500000000E+002,  0.00000000000E+000,  0.10000000000E+001
  0.94921300000E+005,  0.10351032257E+007,  0.16500000000E+002,  0.00000000000E+000,  0.10000000000E+001
  0.94921500000E+005,  0.10355383570E+007,  0.16500000000E+002,  0.00000000000E+000,  0.10000000000E+001
  0.94921700000E+005,  0.10359749820E+007,  0.16500000000E+002,  0.00000000000E+000,  0.10000000000E+001
  0.94921900000E+005,  0.10364130154E+007,  0.16500000000E+002,  0.00000000000E+000,  0.10000000000E+001
  0.94922100000E+005,  0.10368524470E+007,  0.16500000000E+002,  0.00000000000E+000,  0.10000000000E+001
  0.94922300000E+005,  0.10372932664E+007,  0.16500000000E+002,  0.00000000000E+000,  0.10000000000E+001
  0.94922500000E+005,  0.10377354616E+007,  0.16500000000E+002,  0.00000000000E+000,  0.10000000000E+001
  0.94922700000E+005,  0.10381789683E+007,  0.16500000000E+002,  0.00000000000E+000,  0.10000000000E+001
  0.94922900000E+005,  0.10386237515E+007,  0.16500000000E+002,  0.00000000000E+000,  0.10000000000E+001
  0.94923100000E+005,  0.10390697974E+007,  0.16500000000E+002,  0.00000000000E+000,  0.10000000000E+001
  0.94923300000E+005,  0.10395170900E+007,  0.16500000000E+002,  0.00000000000E+000,  0.10000000000E+001
  0.94923500000E+005,  0.10399656112E+007,  0.16500000000E+002,  0.00000000000E+000,  0.10000000000E+001
  0.94923700000E+005,  0.10404169378E+007,  0.16500000000E+002,  0.00000000000E+000,  0.10000000000E+001
  0.94923900000E+005,  0.10408717065E+007,  0.16500000000E+002,  0.00000000000E+000,  0.10000000000E+001
  0.94924100000E+005,  0.10413298621E+007,  0.16500000000E+002,  0.00000000000E+000,  0.10000000000E+001
  0.94924300000E+005,  0.10417913535E+007,  0.16500000000E+002,  0.00000000000E+000,  0.10000000000E+001
  0.94924500000E+005,  0.10422561305E+007,  0.16500000000E+002,  0.00000000000E+000,  0.10000000000E+001
  0.94924700000E+005,  0.10427235072E+007,  0.16500000000E+002,  0.00000000000E+000,  0.10000000000E+001
  0.94924900000E+005,  0.10431931766E+007,  0.16500000000E+002,  0.00000000000E+000,  0.10000000000E+001
  0.94925100000E+005,  0.10436651091E+007,  0.16500000000E+002,  0.00000000000E+000,  0.10000000000E+001
  0.94925300000E+005,  0.10441392738E+007,  0.16500000000E+002,  0.00000000000E+000,  0.10000000000E+001
  0.94925500000E+005,  0.10446156372E+007,  0.16500000000E+002,  0.00000000000E+000,  0.10000000000E+001
  0.94925700000E+005,  0.10450941638E+007,  0.16500000000E+002,  0.00000000000E+000,  0.10000000000E+001
  0.94925900000E+005,  0.10455748173E+007,  0.16500000000E+002,  0.00000000000E+000,  0.10000000000E+001
  0.94926100000E+005,  0.10460575611E+007,  0.16500000000E+002,  0.00000000000E+000,  0.10000000000E+001
