"           TIME(S)","              PRES","              TEMP","             SAT_G","             SAT_L"
  0.94860000000E+005,  0.97661255450E+006,  0.16500000000E+002,  0.00000000000E+000,  0.10000000000E+001
  0.94864000000E+005,  0.97661255450E+006,  0.16500000000E+002,  0.00000000000E+000,  0.10000000000E+001
  0.94868000000E+005,  0.97661255450E+006,  0.16500000000E+002,  0.00000000000E+000,  0.10000000000E+001
  0.94872000000E+005,  0.97661255450E+006,  0.16500000000E+002,  0.00000000000E+000,  0.10000000000E+001
  0.94876000000E+005,  0.97661255450E+006,  0.16500000000E+002,  0.00000000000E+000,  0.10000000000E+001
  0.94880000000E+005,  0.97661255450E+006,  0.16500000000E+002,  0.00000000000E+000,  0.10000000000E+001
  0.94884000000E+005,  0.97661254783E+006,  0.16500000000E+002,  0.00000000000E+000,  0.10000000000E+001
  0.94888000000E+005,  0.97661254127E+006,  0.16500000000E+002,  0.00000000000E+000,  0.10000000000E+001
  0.94892000000E+005,  0.97661253482E+006,  0.16500000000E+002,  0.00000000000E+000,  0.10000000000E+001
  0.94896000000E+005,  0.97661252848E+006,  0.16500000000E+002,  0.00000000000E+000,  0.10000000000E+001
  0.94900000000E+005,  0.97661252224E+006,  0.16500000000E+002,  0.00000000000E+000,  0.10000000000E+001
  0.94904000000E+005,  0.97661251611E+006,  0.16500000000E+002,  0.00000000000E+000,  0.10000000000E+001
  0.94908000000E+005,  0.97661251008E+006,  0.16500000000E+002,  0.00000000000E+000,  0.10000000000E+001
  0.94912000000E+005,  0.97661250415E+006,  0.16500000000E+002,  0.00000000000E+000,  0.10000000000E+001
  0.94916000000E+005,  0.97661249832E+006,  0.16500000000E+002,  0.00000000000E+000,  0.10000000000E+001
  0.94920000000E+005,  0.97661249259E+006,  0.16500000000E+002,  0.00000000000E+000,  0.10000000000E+001
  0.94924000000E+005,  0.97661248695E+006,  0.16500000000E+002,  0.00000000000E+000,  0.10000000000E+001
  0.94928000000E+005,  0.97661248141E+006,  0.16500000000E+002,  0.00000000000E+000,  0.10000000000E+001
  0.94932000000E+005,  0.97661247596E+006,  0.16500000000E+002,  0.00000000000E+000,  0.10000000000E+001
  0.94936000000E+005,  0.97661247060E+006,  0.16500000000E+002,  0.00000000000E+000,  0.10000000000E+001
  0.94940000000E+005,  0.97661246533E+006,  0.16500000000E+002,  0.00000000000E+000,  0.10000000000E+001
  0.94944000000E+005,  0.97661246014E+006,  0.16500000000E+002,  0.00000000000E+000,  0.10000000000E+001
  0.94948000000E+005,  0.97661245505E+006,  0.16500000000E+002,  0.00000000000E+000,  0.10000000000E+001
  0.94952000000E+005,  0.97661245003E+006,  0.16500000000E+002,  0.00000000000E+000,  0.10000000000E+001
  0.94956000000E+005,  0.97661244510E+006,  0.16500000000E+002,  0.00000000000E+000,  0.10000000000E+001
  0.94960000000E+005,  0.97661244025E+006,  0.16500000000E+002,  0.00000000000E+000,  0.10000000000E+001
  0.94962000000E+005,  0.97661243785E+006,  0.16500000000E+002,  0.00000000000E+000,  0.10000000000E+001
  0.94972000000E+005,  0.97661242631E+006,  0.16500000000E+002,  0.00000000000E+000,  0.10000000000E+001
  0.95022000000E+005,  0.97661237864E+006,  0.16500000000E+002,  0.00000000000E+000,  0.10000000000E+001
  0.95102000000E+005,  0.97661232150E+006,  0.16500000000E+002,  0.00000000000E+000,  0.10000000000E+001
  0.95128100000E+005,  0.97661230469E+006,  0.16500000000E+002,  0.00000000000E+000,  0.10000000000E+001
  0.95208100000E+005,  0.97661226610E+006,  0.16500000000E+002,  0.00000000000E+000,  0.10000000000E+001
  0.95288100000E+005,  0.97661223720E+006,  0.16500000000E+002,  0.00000000000E+000,  0.10000000000E+001
  0.95368100000E+005,  0.97661221558E+006,  0.16500000000E+002,  0.00000000000E+000,  0.10000000000E+001
  0.95398200000E+005,  0.97661220836E+006,  0.16500000000E+002,  0.00000000000E+000,  0.10000000000E+001
  0.95478200000E+005,  0.97661219419E+006,  0.16500000000E+002,  0.00000000000E+000,  0.10000000000E+001
  0.95558200000E+005,  0.97661218510E+006,  0.16500000000E+002,  0.00000000000E+000,  0.10000000000E+001
  0.95638200000E+005,  0.97661218848E+006,  0.16500000000E+002,  0.00000000000E+000,  0.10000000000E+001
  0.95668300000E+005,  0.97661219214E+006,  0.16500000000E+002,  0.00000000000E+000,  0.10000000000E+001
  0.95748300000E+005,  0.97661229678E+006,  0.16500000000E+002,  0.00000000000E+000,  0.10000000000E+001
  0.95828300000E+005,  0.97661298023E+006,  0.16500000000E+002,  0.00000000000E+000,  0.10000000000E+001
  0.95908300000E+005,  0.97661641491E+006,  0.16500000000E+002,  0.00000000000E+000,  0.10000000000E+001
  0.95938400000E+005,  0.97661827965E+006,  0.16500000000E+002,  0.00000000000E+000,  0.10000000000E+001
  0.96018400000E+005,  0.97665549198E+006,  0.16500000000E+002,  0.00000000000E+000,  0.10000000000E+001
  0.96098400000E+005,  0.97685868547E+006,  0.16500000000E+002,  0.00000000000E+000,  0.10000000000E+001
  0.96178400000E+005,  0.97758221624E+006,  0.16500000000E+002,  0.00000000000E+000,  0.10000000000E+001
  0.96208500000E+005,  0.97797147235E+006,  0.16500000000E+002,  0.00000000000E+000,  0.10000000000E+001
  0.96288500000E+005,  0.98298675235E+006,  0.16500000000E+002,  0.00000000000E+000,  0.10000000000E+001
  0.96368500000E+005,  0.10150621612E+007,  0.16500000000E+002,  0.00000000000E+000,  0.10000000000E+001
  0.96448500000E+005,  0.10861546401E+007,  0.16500000000E+002,  0.00000000000E+000,  0.10000000000E+001
  0.96478600000E+005,  0.11435313539E+007,  0.16500000000E+002,  0.00000000000E+000,  0.10000000000E+001
  0.96558600000E+005,  0.13909639744E+007,  0.16500000000E+002,  0.00000000000E+000,  0.10000000000E+001
  0.96638600000E+005,  0.20035792413E+007,  0.16500000000E+002,  0.00000000000E+000,  0.10000000000E+001
  0.96718600000E+005,  0.26892389416E+007,  0.16500000000E+002,  0.00000000000E+000,  0.10000000000E+001
  0.96748700000E+005,  0.29426584913E+007,  0.16500000000E+002,  0.00000000000E+000,  0.10000000000E+001
  0.96828700000E+005,  0.33726468349E+007,  0.16500000000E+002,  0.00000000000E+000,  0.10000000000E+001
  0.96908700000E+005,  0.36464110718E+007,  0.16500000000E+002,  0.00000000000E+000,  0.10000000000E+001
  0.96988700000E+005,  0.37873506424E+007,  0.16500000000E+002,  0.00000000000E+000,  0.10000000000E+001
  0.97018800000E+005,  0.37728505959E+007,  0.16500000000E+002,  0.00000000000E+000,  0.10000000000E+001
  0.97098800000E+005,  0.37773493274E+007,  0.16500000000E+002,  0.00000000000E+000,  0.10000000000E+001
  0.97178800000E+005,  0.37312225571E+007,  0.16500000000E+002,  0.00000000000E+000,  0.10000000000E+001
  0.97258800000E+005,  0.37292526528E+007,  0.16500000000E+002,  0.00000000000E+000,  0.10000000000E+001
  0.97288900000E+005,  0.37271451877E+007,  0.16500000000E+002,  0.00000000000E+000,  0.10000000000E+001
  0.97368900000E+005,  0.37794696117E+007,  0.16500000000E+002,  0.00000000000E+000,  0.10000000000E+001
  0.97448900000E+005,  0.38268723893E+007,  0.16500000000E+002,  0.00000000000E+000,  0.10000000000E+001
  0.97528900000E+005,  0.38575612002E+007,  0.16500000000E+002,  0.00000000000E+000,  0.10000000000E+001
  0.97559000000E+005,  0.38547116788E+007,  0.16500000000E+002,  0.00000000000E+000,  0.10000000000E+001
  0.97639000000E+005,  0.38523509784E+007,  0.16500000000E+002,  0.00000000000E+000,  0.10000000000E+001
  0.97719000000E+005,  0.38366042319E+007,  0.16500000000E+002,  0.00000000000E+000,  0.10000000000E+001
  0.97799000000E+005,  0.38242387622E+007,  0.16500000000E+002,  0.00000000000E+000,  0.10000000000E+001
  0.97829100000E+005,  0.38136794041E+007,  0.16500000000E+002,  0.00000000000E+000,  0.10000000000E+001
  0.97909100000E+005,  0.38121217553E+007,  0.16500000000E+002,  0.00000000000E+000,  0.10000000000E+001
  0.97989100000E+005,  0.38127705539E+007,  0.16500000000E+002,  0.00000000000E+000,  0.10000000000E+001
  0.98069100000E+005,  0.38139416736E+007,  0.16500000000E+002,  0.00000000000E+000,  0.10000000000E+001
  0.98099200000E+005,  0.38096040218E+007,  0.16500000000E+002,  0.00000000000E+000,  0.10000000000E+001
  0.98179200000E+005,  0.38038437272E+007,  0.16500000000E+002,  0.00000000000E+000,  0.10000000000E+001
  0.98259200000E+005,  0.37918132562E+007,  0.16500000000E+002,  0.00000000000E+000,  0.10000000000E+001
  0.98339200000E+005,  0.37764163355E+007,  0.16500000000E+002,  0.00000000000E+000,  0.10000000000E+001
  0.98369300000E+005,  0.37666910134E+007,  0.16500000000E+002,  0.00000000000E+000,  0.10000000000E+001
