"           TIME(S)","              PRES","              TEMP","             SAT_G","             SAT_L"
  0.94888500000E+005,  0.97664392952E+006,  0.16500000000E+002,  0.00000000000E+000,  0.10000000000E+001
  0.94888700000E+005,  0.97664392951E+006,  0.16500000000E+002,  0.00000000000E+000,  0.10000000000E+001
  0.94888900000E+005,  0.97664392951E+006,  0.16500000000E+002,  0.00000000000E+000,  0.10000000000E+001
  0.94889100000E+005,  0.97664392950E+006,  0.16500000000E+002,  0.00000000000E+000,  0.10000000000E+001
  0.94889300000E+005,  0.97664392949E+006,  0.16500000000E+002,  0.00000000000E+000,  0.10000000000E+001
  0.94889500000E+005,  0.97664392948E+006,  0.16500000000E+002,  0.00000000000E+000,  0.10000000000E+001
  0.94889700000E+005,  0.97664392947E+006,  0.16500000000E+002,  0.00000000000E+000,  0.10000000000E+001
  0.94889900000E+005,  0.97664392946E+006,  0.16500000000E+002,  0.00000000000E+000,  0.10000000000E+001
  0.94890100000E+005,  0.97664392945E+006,  0.16500000000E+002,  0.00000000000E+000,  0.10000000000E+001
  0.94890300000E+005,  0.97664392944E+006,  0.16500000000E+002,  0.00000000000E+000,  0.10000000000E+001
  0.94890500000E+005,  0.97664392944E+006,  0.16500000000E+002,  0.00000000000E+000,  0.10000000000E+001
  0.94890700000E+005,  0.97664392943E+006,  0.16500000000E+002,  0.00000000000E+000,  0.10000000000E+001
  0.94890900000E+005,  0.97664392942E+006,  0.16500000000E+002,  0.00000000000E+000,  0.10000000000E+001
  0.94891100000E+005,  0.97664392941E+006,  0.16500000000E+002,  0.00000000000E+000,  0.10000000000E+001
  0.94891300000E+005,  0.97664392940E+006,  0.16500000000E+002,  0.00000000000E+000,  0.10000000000E+001
  0.94891500000E+005,  0.97664392939E+006,  0.16500000000E+002,  0.00000000000E+000,  0.10000000000E+001
  0.94891700000E+005,  0.97664392938E+006,  0.16500000000E+002,  0.00000000000E+000,  0.10000000000E+001
  0.94891900000E+005,  0.97664392937E+006,  0.16500000000E+002,  0.00000000000E+000,  0.10000000000E+001
  0.94892100000E+005,  0.97664392936E+006,  0.16500000000E+002,  0.00000000000E+000,  0.10000000000E+001
  0.94892300000E+005,  0.97664392936E+006,  0.16500000000E+002,  0.00000000000E+000,  0.10000000000E+001
  0.94892500000E+005,  0.97664392935E+006,  0.16500000000E+002,  0.00000000000E+000,  0.10000000000E+001
  0.94892700000E+005,  0.97664392934E+006,  0.16500000000E+002,  0.00000000000E+000,  0.10000000000E+001
  0.94892900000E+005,  0.97664392933E+006,  0.16500000000E+002,  0.00000000000E+000,  0.10000000000E+001
  0.94893100000E+005,  0.97664392932E+006,  0.16500000000E+002,  0.00000000000E+000,  0.10000000000E+001
  0.94893300000E+005,  0.97664392931E+006,  0.16500000000E+002,  0.00000000000E+000,  0.10000000000E+001
  0.94893500000E+005,  0.97664392930E+006,  0.16500000000E+002,  0.00000000000E+000,  0.10000000000E+001
  0.94893700000E+005,  0.97664392930E+006,  0.16500000000E+002,  0.00000000000E+000,  0.10000000000E+001
  0.94893900000E+005,  0.97664392929E+006,  0.16500000000E+002,  0.00000000000E+000,  0.10000000000E+001
  0.94894100000E+005,  0.97664392928E+006,  0.16500000000E+002,  0.00000000000E+000,  0.10000000000E+001
  0.94894300000E+005,  0.97664392927E+006,  0.16500000000E+002,  0.00000000000E+000,  0.10000000000E+001
  0.94894500000E+005,  0.97664392926E+006,  0.16500000000E+002,  0.00000000000E+000,  0.10000000000E+001
  0.94894700000E+005,  0.97664392925E+006,  0.16500000000E+002,  0.00000000000E+000,  0.10000000000E+001
  0.94894900000E+005,  0.97664392924E+006,  0.16500000000E+002,  0.00000000000E+000,  0.10000000000E+001
  0.94895100000E+005,  0.97664392923E+006,  0.16500000000E+002,  0.00000000000E+000,  0.10000000000E+001
  0.94895300000E+005,  0.97664392922E+006,  0.16500000000E+002,  0.00000000000E+000,  0.10000000000E+001
  0.94895500000E+005,  0.97664392922E+006,  0.16500000000E+002,  0.00000000000E+000,  0.10000000000E+001
  0.94895700000E+005,  0.97664392921E+006,  0.16500000000E+002,  0.00000000000E+000,  0.10000000000E+001
  0.94895900000E+005,  0.97664392920E+006,  0.16500000000E+002,  0.00000000000E+000,  0.10000000000E+001
  0.94896100000E+005,  0.97664392919E+006,  0.16500000000E+002,  0.00000000000E+000,  0.10000000000E+001
  0.94896300000E+005,  0.97664392918E+006,  0.16500000000E+002,  0.00000000000E+000,  0.10000000000E+001
  0.94896500000E+005,  0.97664392917E+006,  0.16500000000E+002,  0.00000000000E+000,  0.10000000000E+001
  0.94896700000E+005,  0.97664392916E+006,  0.16500000000E+002,  0.00000000000E+000,  0.10000000000E+001
  0.94896900000E+005,  0.97664392915E+006,  0.16500000000E+002,  0.00000000000E+000,  0.10000000000E+001
  0.94897100000E+005,  0.97664392914E+006,  0.16500000000E+002,  0.00000000000E+000,  0.10000000000E+001
  0.94897300000E+005,  0.97664392913E+006,  0.16500000000E+002,  0.00000000000E+000,  0.10000000000E+001
  0.94897500000E+005,  0.97664392912E+006,  0.16500000000E+002,  0.00000000000E+000,  0.10000000000E+001
  0.94897700000E+005,  0.97664392912E+006,  0.16500000000E+002,  0.00000000000E+000,  0.10000000000E+001
  0.94897900000E+005,  0.97664392911E+006,  0.16500000000E+002,  0.00000000000E+000,  0.10000000000E+001
  0.94898100000E+005,  0.97664392910E+006,  0.16500000000E+002,  0.00000000000E+000,  0.10000000000E+001
  0.94898300000E+005,  0.97664392909E+006,  0.16500000000E+002,  0.00000000000E+000,  0.10000000000E+001
  0.94898500000E+005,  0.97664392908E+006,  0.16500000000E+002,  0.00000000000E+000,  0.10000000000E+001
  0.94898700000E+005,  0.97664392907E+006,  0.16500000000E+002,  0.00000000000E+000,  0.10000000000E+001
  0.94898900000E+005,  0.97664392906E+006,  0.16500000000E+002,  0.00000000000E+000,  0.10000000000E+001
  0.94899100000E+005,  0.97664392905E+006,  0.16500000000E+002,  0.00000000000E+000,  0.10000000000E+001
  0.94899300000E+005,  0.97664392905E+006,  0.16500000000E+002,  0.00000000000E+000,  0.10000000000E+001
  0.94899500000E+005,  0.97664392904E+006,  0.16500000000E+002,  0.00000000000E+000,  0.10000000000E+001
  0.94899700000E+005,  0.97664392903E+006,  0.16500000000E+002,  0.00000000000E+000,  0.10000000000E+001
  0.94899900000E+005,  0.97664392902E+006,  0.16500000000E+002,  0.00000000000E+000,  0.10000000000E+001
  0.94900100000E+005,  0.97664392901E+006,  0.16500000000E+002,  0.00000000000E+000,  0.10000000000E+001
  0.94900300000E+005,  0.97664392900E+006,  0.16500000000E+002,  0.00000000000E+000,  0.10000000000E+001
  0.94900500000E+005,  0.97664392899E+006,  0.16500000000E+002,  0.00000000000E+000,  0.10000000000E+001
  0.94900700000E+005,  0.97664392898E+006,  0.16500000000E+002,  0.00000000000E+000,  0.10000000000E+001
  0.94900900000E+005,  0.97664392897E+006,  0.16500000000E+002,  0.00000000000E+000,  0.10000000000E+001
  0.94901100000E+005,  0.97664392896E+006,  0.16500000000E+002,  0.00000000000E+000,  0.10000000000E+001
  0.94901300000E+005,  0.97664392895E+006,  0.16500000000E+002,  0.00000000000E+000,  0.10000000000E+001
  0.94901500000E+005,  0.97664392894E+006,  0.16500000000E+002,  0.00000000000E+000,  0.10000000000E+001
  0.94901700000E+005,  0.97664392894E+006,  0.16500000000E+002,  0.00000000000E+000,  0.10000000000E+001
  0.94901900000E+005,  0.97664392893E+006,  0.16500000000E+002,  0.00000000000E+000,  0.10000000000E+001
  0.94902100000E+005,  0.97664392892E+006,  0.16500000000E+002,  0.00000000000E+000,  0.10000000000E+001
  0.94902300000E+005,  0.97664392891E+006,  0.16500000000E+002,  0.00000000000E+000,  0.10000000000E+001
  0.94902500000E+005,  0.97664392890E+006,  0.16500000000E+002,  0.00000000000E+000,  0.10000000000E+001
  0.94902700000E+005,  0.97664392889E+006,  0.16500000000E+002,  0.00000000000E+000,  0.10000000000E+001
  0.94902900000E+005,  0.97664392888E+006,  0.16500000000E+002,  0.00000000000E+000,  0.10000000000E+001
  0.94903100000E+005,  0.97664392887E+006,  0.16500000000E+002,  0.00000000000E+000,  0.10000000000E+001
  0.94903300000E+005,  0.97664392886E+006,  0.16500000000E+002,  0.00000000000E+000,  0.10000000000E+001
  0.94903500000E+005,  0.97664392885E+006,  0.16500000000E+002,  0.00000000000E+000,  0.10000000000E+001
  0.94903700000E+005,  0.97664392884E+006,  0.16500000000E+002,  0.00000000000E+000,  0.10000000000E+001
  0.94903900000E+005,  0.97664392884E+006,  0.16500000000E+002,  0.00000000000E+000,  0.10000000000E+001
  0.94904100000E+005,  0.97664392883E+006,  0.16500000000E+002,  0.00000000000E+000,  0.10000000000E+001
  0.94904300000E+005,  0.97664392882E+006,  0.16500000000E+002,  0.00000000000E+000,  0.10000000000E+001
  0.94904500000E+005,  0.97664392881E+006,  0.16500000000E+002,  0.00000000000E+000,  0.10000000000E+001
  0.94904700000E+005,  0.97664392880E+006,  0.16500000000E+002,  0.00000000000E+000,  0.10000000000E+001
  0.94904900000E+005,  0.97664392879E+006,  0.16500000000E+002,  0.00000000000E+000,  0.10000000000E+001
  0.94905100000E+005,  0.97664392878E+006,  0.16500000000E+002,  0.00000000000E+000,  0.10000000000E+001
  0.94905300000E+005,  0.97664392877E+006,  0.16500000000E+002,  0.00000000000E+000,  0.10000000000E+001
  0.94905500000E+005,  0.97664392876E+006,  0.16500000000E+002,  0.00000000000E+000,  0.10000000000E+001
  0.94905700000E+005,  0.97664392875E+006,  0.16500000000E+002,  0.00000000000E+000,  0.10000000000E+001
  0.94905900000E+005,  0.97664392874E+006,  0.16500000000E+002,  0.00000000000E+000,  0.10000000000E+001
  0.94906100000E+005,  0.97664392873E+006,  0.16500000000E+002,  0.00000000000E+000,  0.10000000000E+001
  0.94906300000E+005,  0.97664392873E+006,  0.16500000000E+002,  0.00000000000E+000,  0.10000000000E+001
  0.94906500000E+005,  0.97664392872E+006,  0.16500000000E+002,  0.00000000000E+000,  0.10000000000E+001
  0.94906700000E+005,  0.97664392871E+006,  0.16500000000E+002,  0.00000000000E+000,  0.10000000000E+001
  0.94906900000E+005,  0.97664392870E+006,  0.16500000000E+002,  0.00000000000E+000,  0.10000000000E+001
  0.94907100000E+005,  0.97664392869E+006,  0.16500000000E+002,  0.00000000000E+000,  0.10000000000E+001
  0.94907300000E+005,  0.97664392868E+006,  0.16500000000E+002,  0.00000000000E+000,  0.10000000000E+001
  0.94907500000E+005,  0.97664392867E+006,  0.16500000000E+002,  0.00000000000E+000,  0.10000000000E+001
  0.94907700000E+005,  0.97664392866E+006,  0.16500000000E+002,  0.00000000000E+000,  0.10000000000E+001
  0.94907900000E+005,  0.97664392865E+006,  0.16500000000E+002,  0.00000000000E+000,  0.10000000000E+001
  0.94908100000E+005,  0.97664392864E+006,  0.16500000000E+002,  0.00000000000E+000,  0.10000000000E+001
  0.94908300000E+005,  0.97664392863E+006,  0.16500000000E+002,  0.00000000000E+000,  0.10000000000E+001
  0.94908500000E+005,  0.97664392862E+006,  0.16500000000E+002,  0.00000000000E+000,  0.10000000000E+001
  0.94908700000E+005,  0.97664392862E+006,  0.16500000000E+002,  0.00000000000E+000,  0.10000000000E+001
  0.94908900000E+005,  0.97664392861E+006,  0.16500000000E+002,  0.00000000000E+000,  0.10000000000E+001
  0.94909100000E+005,  0.97664392860E+006,  0.16500000000E+002,  0.00000000000E+000,  0.10000000000E+001
  0.94909300000E+005,  0.97664392859E+006,  0.16500000000E+002,  0.00000000000E+000,  0.10000000000E+001
  0.94909500000E+005,  0.97664392858E+006,  0.16500000000E+002,  0.00000000000E+000,  0.10000000000E+001
  0.94909700000E+005,  0.97664392857E+006,  0.16500000000E+002,  0.00000000000E+000,  0.10000000000E+001
  0.94909900000E+005,  0.97664392856E+006,  0.16500000000E+002,  0.00000000000E+000,  0.10000000000E+001
  0.94910100000E+005,  0.97664392855E+006,  0.16500000000E+002,  0.00000000000E+000,  0.10000000000E+001
  0.94910300000E+005,  0.97664392854E+006,  0.16500000000E+002,  0.00000000000E+000,  0.10000000000E+001
  0.94910500000E+005,  0.97664392853E+006,  0.16500000000E+002,  0.00000000000E+000,  0.10000000000E+001
  0.94910700000E+005,  0.97664392853E+006,  0.16500000000E+002,  0.00000000000E+000,  0.10000000000E+001
  0.94910900000E+005,  0.97664392852E+006,  0.16500000000E+002,  0.00000000000E+000,  0.10000000000E+001
  0.94911100000E+005,  0.97664392851E+006,  0.16500000000E+002,  0.00000000000E+000,  0.10000000000E+001
  0.94911300000E+005,  0.97664392850E+006,  0.16500000000E+002,  0.00000000000E+000,  0.10000000000E+001
  0.94911500000E+005,  0.97664392849E+006,  0.16500000000E+002,  0.00000000000E+000,  0.10000000000E+001
  0.94911700000E+005,  0.97664392848E+006,  0.16500000000E+002,  0.00000000000E+000,  0.10000000000E+001
  0.94911900000E+005,  0.97664392847E+006,  0.16500000000E+002,  0.00000000000E+000,  0.10000000000E+001
  0.94912100000E+005,  0.97664392846E+006,  0.16500000000E+002,  0.00000000000E+000,  0.10000000000E+001
  0.94912300000E+005,  0.97664392845E+006,  0.16500000000E+002,  0.00000000000E+000,  0.10000000000E+001
  0.94912500000E+005,  0.97664392844E+006,  0.16500000000E+002,  0.00000000000E+000,  0.10000000000E+001
  0.94912700000E+005,  0.97664392843E+006,  0.16500000000E+002,  0.00000000000E+000,  0.10000000000E+001
  0.94912900000E+005,  0.97664392842E+006,  0.16500000000E+002,  0.00000000000E+000,  0.10000000000E+001
  0.94913100000E+005,  0.97664392841E+006,  0.16500000000E+002,  0.00000000000E+000,  0.10000000000E+001
  0.94913300000E+005,  0.97664392841E+006,  0.16500000000E+002,  0.00000000000E+000,  0.10000000000E+001
  0.94913500000E+005,  0.97664392840E+006,  0.16500000000E+002,  0.00000000000E+000,  0.10000000000E+001
  0.94913700000E+005,  0.97664392839E+006,  0.16500000000E+002,  0.00000000000E+000,  0.10000000000E+001
  0.94913900000E+005,  0.97664392838E+006,  0.16500000000E+002,  0.00000000000E+000,  0.10000000000E+001
  0.94914100000E+005,  0.97664392837E+006,  0.16500000000E+002,  0.00000000000E+000,  0.10000000000E+001
  0.94914300000E+005,  0.97664392836E+006,  0.16500000000E+002,  0.00000000000E+000,  0.10000000000E+001
  0.94914500000E+005,  0.97664392835E+006,  0.16500000000E+002,  0.00000000000E+000,  0.10000000000E+001
  0.94914700000E+005,  0.97664392834E+006,  0.16500000000E+002,  0.00000000000E+000,  0.10000000000E+001
  0.94914900000E+005,  0.97664392833E+006,  0.16500000000E+002,  0.00000000000E+000,  0.10000000000E+001
  0.94915100000E+005,  0.97664392832E+006,  0.16500000000E+002,  0.00000000000E+000,  0.10000000000E+001
  0.94915300000E+005,  0.97664392832E+006,  0.16500000000E+002,  0.00000000000E+000,  0.10000000000E+001
  0.94915500000E+005,  0.97664392831E+006,  0.16500000000E+002,  0.00000000000E+000,  0.10000000000E+001
  0.94915700000E+005,  0.97664392830E+006,  0.16500000000E+002,  0.00000000000E+000,  0.10000000000E+001
  0.94915900000E+005,  0.97664392829E+006,  0.16500000000E+002,  0.00000000000E+000,  0.10000000000E+001
  0.94916100000E+005,  0.97664392828E+006,  0.16500000000E+002,  0.00000000000E+000,  0.10000000000E+001
  0.94916300000E+005,  0.97664392827E+006,  0.16500000000E+002,  0.00000000000E+000,  0.10000000000E+001
  0.94916500000E+005,  0.97664392826E+006,  0.16500000000E+002,  0.00000000000E+000,  0.10000000000E+001
  0.94916700000E+005,  0.97664392825E+006,  0.16500000000E+002,  0.00000000000E+000,  0.10000000000E+001
  0.94916900000E+005,  0.97664392824E+006,  0.16500000000E+002,  0.00000000000E+000,  0.10000000000E+001
  0.94917100000E+005,  0.97664392823E+006,  0.16500000000E+002,  0.00000000000E+000,  0.10000000000E+001
  0.94917300000E+005,  0.97664392822E+006,  0.16500000000E+002,  0.00000000000E+000,  0.10000000000E+001
  0.94917500000E+005,  0.97664392821E+006,  0.16500000000E+002,  0.00000000000E+000,  0.10000000000E+001
  0.94917700000E+005,  0.97664392821E+006,  0.16500000000E+002,  0.00000000000E+000,  0.10000000000E+001
  0.94917900000E+005,  0.97664392820E+006,  0.16500000000E+002,  0.00000000000E+000,  0.10000000000E+001
  0.94918100000E+005,  0.97664392819E+006,  0.16500000000E+002,  0.00000000000E+000,  0.10000000000E+001
  0.94918300000E+005,  0.97664392818E+006,  0.16500000000E+002,  0.00000000000E+000,  0.10000000000E+001
  0.94918500000E+005,  0.97664392817E+006,  0.16500000000E+002,  0.00000000000E+000,  0.10000000000E+001
  0.94918700000E+005,  0.97664392816E+006,  0.16500000000E+002,  0.00000000000E+000,  0.10000000000E+001
  0.94918900000E+005,  0.97664392815E+006,  0.16500000000E+002,  0.00000000000E+000,  0.10000000000E+001
  0.94919100000E+005,  0.97664392814E+006,  0.16500000000E+002,  0.00000000000E+000,  0.10000000000E+001
  0.94919300000E+005,  0.97664392813E+006,  0.16500000000E+002,  0.00000000000E+000,  0.10000000000E+001
  0.94919500000E+005,  0.97664392812E+006,  0.16500000000E+002,  0.00000000000E+000,  0.10000000000E+001
  0.94919700000E+005,  0.97664392811E+006,  0.16500000000E+002,  0.00000000000E+000,  0.10000000000E+001
  0.94919900000E+005,  0.97664392810E+006,  0.16500000000E+002,  0.00000000000E+000,  0.10000000000E+001
  0.94920100000E+005,  0.97664392809E+006,  0.16500000000E+002,  0.00000000000E+000,  0.10000000000E+001
  0.94920300000E+005,  0.97664392809E+006,  0.16500000000E+002,  0.00000000000E+000,  0.10000000000E+001
  0.94920500000E+005,  0.97664392808E+006,  0.16500000000E+002,  0.00000000000E+000,  0.10000000000E+001
  0.94920700000E+005,  0.97664392807E+006,  0.16500000000E+002,  0.00000000000E+000,  0.10000000000E+001
  0.94920900000E+005,  0.97664392806E+006,  0.16500000000E+002,  0.00000000000E+000,  0.10000000000E+001
  0.94921100000E+005,  0.97664392805E+006,  0.16500000000E+002,  0.00000000000E+000,  0.10000000000E+001
  0.94921300000E+005,  0.97664392804E+006,  0.16500000000E+002,  0.00000000000E+000,  0.10000000000E+001
  0.94921500000E+005,  0.97664392803E+006,  0.16500000000E+002,  0.00000000000E+000,  0.10000000000E+001
  0.94921700000E+005,  0.97664392802E+006,  0.16500000000E+002,  0.00000000000E+000,  0.10000000000E+001
  0.94921900000E+005,  0.97664392801E+006,  0.16500000000E+002,  0.00000000000E+000,  0.10000000000E+001
  0.94922100000E+005,  0.97664392800E+006,  0.16500000000E+002,  0.00000000000E+000,  0.10000000000E+001
  0.94922300000E+005,  0.97664392799E+006,  0.16500000000E+002,  0.00000000000E+000,  0.10000000000E+001
  0.94922500000E+005,  0.97664392798E+006,  0.16500000000E+002,  0.00000000000E+000,  0.10000000000E+001
  0.94922700000E+005,  0.97664392797E+006,  0.16500000000E+002,  0.00000000000E+000,  0.10000000000E+001
  0.94922900000E+005,  0.97664392797E+006,  0.16500000000E+002,  0.00000000000E+000,  0.10000000000E+001
  0.94923100000E+005,  0.97664392796E+006,  0.16500000000E+002,  0.00000000000E+000,  0.10000000000E+001
  0.94923300000E+005,  0.97664392795E+006,  0.16500000000E+002,  0.00000000000E+000,  0.10000000000E+001
  0.94923500000E+005,  0.97664392794E+006,  0.16500000000E+002,  0.00000000000E+000,  0.10000000000E+001
  0.94923700000E+005,  0.97664392793E+006,  0.16500000000E+002,  0.00000000000E+000,  0.10000000000E+001
  0.94923900000E+005,  0.97664392792E+006,  0.16500000000E+002,  0.00000000000E+000,  0.10000000000E+001
  0.94924100000E+005,  0.97664392791E+006,  0.16500000000E+002,  0.00000000000E+000,  0.10000000000E+001
  0.94924300000E+005,  0.97664392790E+006,  0.16500000000E+002,  0.00000000000E+000,  0.10000000000E+001
  0.94924500000E+005,  0.97664392789E+006,  0.16500000000E+002,  0.00000000000E+000,  0.10000000000E+001
  0.94924700000E+005,  0.97664392788E+006,  0.16500000000E+002,  0.00000000000E+000,  0.10000000000E+001
  0.94924900000E+005,  0.97664392787E+006,  0.16500000000E+002,  0.00000000000E+000,  0.10000000000E+001
  0.94925100000E+005,  0.97664392786E+006,  0.16500000000E+002,  0.00000000000E+000,  0.10000000000E+001
  0.94925300000E+005,  0.97664392785E+006,  0.16500000000E+002,  0.00000000000E+000,  0.10000000000E+001
  0.94925500000E+005,  0.97664392785E+006,  0.16500000000E+002,  0.00000000000E+000,  0.10000000000E+001
  0.94925700000E+005,  0.97664392784E+006,  0.16500000000E+002,  0.00000000000E+000,  0.10000000000E+001
  0.94925900000E+005,  0.97664392783E+006,  0.16500000000E+002,  0.00000000000E+000,  0.10000000000E+001
  0.94926100000E+005,  0.97664392782E+006,  0.16500000000E+002,  0.00000000000E+000,  0.10000000000E+001
