"           TIME(S)","              PRES","              TEMP","             SAT_G","             SAT_L"
  0.94882000000E+005,  0.99758422182E+006,  0.16500000000E+002,  0.00000000000E+000,  0.10000000000E+001
  0.94883000000E+005,  0.99772222990E+006,  0.16500000000E+002,  0.00000000000E+000,  0.10000000000E+001
  0.94884000000E+005,  0.99795521415E+006,  0.16500000000E+002,  0.00000000000E+000,  0.10000000000E+001
  0.94884200000E+005,  0.99800560172E+006,  0.16500000000E+002,  0.00000000000E+000,  0.10000000000E+001
  0.94885200000E+005,  0.99835132167E+006,  0.16500000000E+002,  0.00000000000E+000,  0.10000000000E+001
  0.94886200000E+005,  0.99878986760E+006,  0.16500000000E+002,  0.00000000000E+000,  0.10000000000E+001
  0.94887200000E+005,  0.99932030955E+006,  0.16500000000E+002,  0.00000000000E+000,  0.10000000000E+001
  0.94888200000E+005,  0.99994173981E+006,  0.16500000000E+002,  0.00000000000E+000,  0.10000000000E+001
  0.94889200000E+005,  0.10006532695E+007,  0.16500000000E+002,  0.00000000000E+000,  0.10000000000E+001
  0.94890200000E+005,  0.10014540259E+007,  0.16500000000E+002,  0.00000000000E+000,  0.10000000000E+001
  0.94890700000E+005,  0.10018765959E+007,  0.16500000000E+002,  0.00000000000E+000,  0.10000000000E+001
  0.94891700000E+005,  0.10028096755E+007,  0.16500000000E+002,  0.00000000000E+000,  0.10000000000E+001
  0.94892700000E+005,  0.10038298505E+007,  0.16500000000E+002,  0.00000000000E+000,  0.10000000000E+001
  0.94893700000E+005,  0.10049362845E+007,  0.16500000000E+002,  0.00000000000E+000,  0.10000000000E+001
  0.94894700000E+005,  0.10061281462E+007,  0.16500000000E+002,  0.00000000000E+000,  0.10000000000E+001
  0.94895700000E+005,  0.10074043941E+007,  0.16500000000E+002,  0.00000000000E+000,  0.10000000000E+001
  0.94896700000E+005,  0.10087631680E+007,  0.16500000000E+002,  0.00000000000E+000,  0.10000000000E+001
  0.94897300000E+005,  0.10096068363E+007,  0.16500000000E+002,  0.00000000000E+000,  0.10000000000E+001
  0.94898000000E+005,  0.10106282211E+007,  0.16500000000E+002,  0.00000000000E+000,  0.10000000000E+001
  0.94899000000E+005,  0.10121596161E+007,  0.16500000000E+002,  0.00000000000E+000,  0.10000000000E+001
  0.94900000000E+005,  0.10137603109E+007,  0.16500000000E+002,  0.00000000000E+000,  0.10000000000E+001
  0.94901000000E+005,  0.10154290174E+007,  0.16500000000E+002,  0.00000000000E+000,  0.10000000000E+001
  0.94902000000E+005,  0.10171618677E+007,  0.16500000000E+002,  0.00000000000E+000,  0.10000000000E+001
  0.94903000000E+005,  0.10189539759E+007,  0.16500000000E+002,  0.00000000000E+000,  0.10000000000E+001
  0.94903900000E+005,  0.10206098199E+007,  0.16500000000E+002,  0.00000000000E+000,  0.10000000000E+001
  0.94904900000E+005,  0.10224946334E+007,  0.16500000000E+002,  0.00000000000E+000,  0.10000000000E+001
  0.94905900000E+005,  0.10244140789E+007,  0.16500000000E+002,  0.00000000000E+000,  0.10000000000E+001
  0.94906900000E+005,  0.10263624724E+007,  0.16500000000E+002,  0.00000000000E+000,  0.10000000000E+001
  0.94907900000E+005,  0.10283409407E+007,  0.16500000000E+002,  0.00000000000E+000,  0.10000000000E+001
  0.94908900000E+005,  0.10303526236E+007,  0.16500000000E+002,  0.00000000000E+000,  0.10000000000E+001
  0.94909900000E+005,  0.10323965576E+007,  0.16500000000E+002,  0.00000000000E+000,  0.10000000000E+001
  0.94910400000E+005,  0.10334251626E+007,  0.16500000000E+002,  0.00000000000E+000,  0.10000000000E+001
  0.94911400000E+005,  0.10355147247E+007,  0.16500000000E+002,  0.00000000000E+000,  0.10000000000E+001
  0.94912400000E+005,  0.10376366455E+007,  0.16500000000E+002,  0.00000000000E+000,  0.10000000000E+001
  0.94913400000E+005,  0.10397895353E+007,  0.16500000000E+002,  0.00000000000E+000,  0.10000000000E+001
  0.94914400000E+005,  0.10419647447E+007,  0.16500000000E+002,  0.00000000000E+000,  0.10000000000E+001
  0.94915400000E+005,  0.10441431052E+007,  0.16500000000E+002,  0.00000000000E+000,  0.10000000000E+001
  0.94916400000E+005,  0.10463755919E+007,  0.16500000000E+002,  0.00000000000E+000,  0.10000000000E+001
  0.94917000000E+005,  0.10477111290E+007,  0.16500000000E+002,  0.00000000000E+000,  0.10000000000E+001
  0.94918000000E+005,  0.10499187462E+007,  0.16500000000E+002,  0.00000000000E+000,  0.10000000000E+001
  0.94919000000E+005,  0.10521066421E+007,  0.16500000000E+002,  0.00000000000E+000,  0.10000000000E+001
  0.94920000000E+005,  0.10542670122E+007,  0.16500000000E+002,  0.00000000000E+000,  0.10000000000E+001
  0.94921000000E+005,  0.10563885122E+007,  0.16500000000E+002,  0.00000000000E+000,  0.10000000000E+001
  0.94922000000E+005,  0.10584592030E+007,  0.16500000000E+002,  0.00000000000E+000,  0.10000000000E+001
  0.94923000000E+005,  0.10604733056E+007,  0.16500000000E+002,  0.00000000000E+000,  0.10000000000E+001
  0.94923500000E+005,  0.10614637982E+007,  0.16500000000E+002,  0.00000000000E+000,  0.10000000000E+001
  0.94924500000E+005,  0.10634522975E+007,  0.16500000000E+002,  0.00000000000E+000,  0.10000000000E+001
  0.94925500000E+005,  0.10654366810E+007,  0.16500000000E+002,  0.00000000000E+000,  0.10000000000E+001
  0.94926500000E+005,  0.10674258953E+007,  0.16500000000E+002,  0.00000000000E+000,  0.10000000000E+001
  0.94927500000E+005,  0.10694589682E+007,  0.16500000000E+002,  0.00000000000E+000,  0.10000000000E+001
  0.94928500000E+005,  0.10715328348E+007,  0.16500000000E+002,  0.00000000000E+000,  0.10000000000E+001
  0.94929500000E+005,  0.10736500328E+007,  0.16500000000E+002,  0.00000000000E+000,  0.10000000000E+001
