"           TIME(S)","              PRES","              TEMP","             SAT_G","             SAT_L"
  0.94860000000E+005,  0.97661255450E+006,  0.16500000000E+002,  0.00000000000E+000,  0.10000000000E+001
  0.94864000000E+005,  0.97661255450E+006,  0.16500000000E+002,  0.00000000000E+000,  0.10000000000E+001
  0.94868000000E+005,  0.97661255450E+006,  0.16500000000E+002,  0.00000000000E+000,  0.10000000000E+001
  0.94872000000E+005,  0.97661255450E+006,  0.16500000000E+002,  0.00000000000E+000,  0.10000000000E+001
  0.94876000000E+005,  0.97661255450E+006,  0.16500000000E+002,  0.00000000000E+000,  0.10000000000E+001
  0.94880000000E+005,  0.97661255450E+006,  0.16500000000E+002,  0.00000000000E+000,  0.10000000000E+001
  0.94884000000E+005,  0.97661254783E+006,  0.16500000000E+002,  0.00000000000E+000,  0.10000000000E+001
  0.94888000000E+005,  0.97661254127E+006,  0.16500000000E+002,  0.00000000000E+000,  0.10000000000E+001
  0.94892000000E+005,  0.97661253482E+006,  0.16500000000E+002,  0.00000000000E+000,  0.10000000000E+001
  0.94896000000E+005,  0.97661252848E+006,  0.16500000000E+002,  0.00000000000E+000,  0.10000000000E+001
  0.94900000000E+005,  0.97661252224E+006,  0.16500000000E+002,  0.00000000000E+000,  0.10000000000E+001
  0.94904000000E+005,  0.97661251611E+006,  0.16500000000E+002,  0.00000000000E+000,  0.10000000000E+001
  0.94908000000E+005,  0.97661251008E+006,  0.16500000000E+002,  0.00000000000E+000,  0.10000000000E+001
  0.94912000000E+005,  0.97661250415E+006,  0.16500000000E+002,  0.00000000000E+000,  0.10000000000E+001
  0.94916000000E+005,  0.97661249832E+006,  0.16500000000E+002,  0.00000000000E+000,  0.10000000000E+001
  0.94920000000E+005,  0.97661249259E+006,  0.16500000000E+002,  0.00000000000E+000,  0.10000000000E+001
  0.94924000000E+005,  0.97661248695E+006,  0.16500000000E+002,  0.00000000000E+000,  0.10000000000E+001
  0.94928000000E+005,  0.97661248141E+006,  0.16500000000E+002,  0.00000000000E+000,  0.10000000000E+001
  0.94932000000E+005,  0.97661247596E+006,  0.16500000000E+002,  0.00000000000E+000,  0.10000000000E+001
  0.94936000000E+005,  0.97661247060E+006,  0.16500000000E+002,  0.00000000000E+000,  0.10000000000E+001
  0.94940000000E+005,  0.97661246533E+006,  0.16500000000E+002,  0.00000000000E+000,  0.10000000000E+001
  0.94944000000E+005,  0.97661246015E+006,  0.16500000000E+002,  0.00000000000E+000,  0.10000000000E+001
  0.94948000000E+005,  0.97661245505E+006,  0.16500000000E+002,  0.00000000000E+000,  0.10000000000E+001
  0.94952000000E+005,  0.97661245003E+006,  0.16500000000E+002,  0.00000000000E+000,  0.10000000000E+001
  0.94956000000E+005,  0.97661244510E+006,  0.16500000000E+002,  0.00000000000E+000,  0.10000000000E+001
  0.94960000000E+005,  0.97661244025E+006,  0.16500000000E+002,  0.00000000000E+000,  0.10000000000E+001
  0.94962000000E+005,  0.97661243785E+006,  0.16500000000E+002,  0.00000000000E+000,  0.10000000000E+001
  0.94972000000E+005,  0.97661242632E+006,  0.16500000000E+002,  0.00000000000E+000,  0.10000000000E+001
  0.95022000000E+005,  0.97661237865E+006,  0.16500000000E+002,  0.00000000000E+000,  0.10000000000E+001
  0.95102000000E+005,  0.97661232151E+006,  0.16500000000E+002,  0.00000000000E+000,  0.10000000000E+001
  0.95128100000E+005,  0.97661230470E+006,  0.16500000000E+002,  0.00000000000E+000,  0.10000000000E+001
  0.95208100000E+005,  0.97661226612E+006,  0.16500000000E+002,  0.00000000000E+000,  0.10000000000E+001
  0.95288100000E+005,  0.97661223723E+006,  0.16500000000E+002,  0.00000000000E+000,  0.10000000000E+001
  0.95368100000E+005,  0.97661221561E+006,  0.16500000000E+002,  0.00000000000E+000,  0.10000000000E+001
  0.95398200000E+005,  0.97661220840E+006,  0.16500000000E+002,  0.00000000000E+000,  0.10000000000E+001
  0.95478200000E+005,  0.97661219419E+006,  0.16500000000E+002,  0.00000000000E+000,  0.10000000000E+001
  0.95558200000E+005,  0.97661218467E+006,  0.16500000000E+002,  0.00000000000E+000,  0.10000000000E+001
  0.95638200000E+005,  0.97661218453E+006,  0.16500000000E+002,  0.00000000000E+000,  0.10000000000E+001
  0.95668300000E+005,  0.97661218619E+006,  0.16500000000E+002,  0.00000000000E+000,  0.10000000000E+001
  0.95748300000E+005,  0.97661225014E+006,  0.16500000000E+002,  0.00000000000E+000,  0.10000000000E+001
  0.95828300000E+005,  0.97661266782E+006,  0.16500000000E+002,  0.00000000000E+000,  0.10000000000E+001
  0.95908300000E+005,  0.97661476032E+006,  0.16500000000E+002,  0.00000000000E+000,  0.10000000000E+001
  0.95938400000E+005,  0.97661589035E+006,  0.16500000000E+002,  0.00000000000E+000,  0.10000000000E+001
  0.96018400000E+005,  0.97663417213E+006,  0.16500000000E+002,  0.00000000000E+000,  0.10000000000E+001
  0.96098400000E+005,  0.97675202034E+006,  0.16500000000E+002,  0.00000000000E+000,  0.10000000000E+001
  0.96178400000E+005,  0.97718228107E+006,  0.16500000000E+002,  0.00000000000E+000,  0.10000000000E+001
  0.96208500000E+005,  0.97741434824E+006,  0.16500000000E+002,  0.00000000000E+000,  0.10000000000E+001
  0.96288500000E+005,  0.97949621610E+006,  0.16500000000E+002,  0.00000000000E+000,  0.10000000000E+001
  0.96368500000E+005,  0.99193388536E+006,  0.16500000000E+002,  0.00000000000E+000,  0.10000000000E+001
  0.96448500000E+005,  0.10389203689E+007,  0.16500000000E+002,  0.00000000000E+000,  0.10000000000E+001
  0.96478600000E+005,  0.10630797393E+007,  0.16500000000E+002,  0.00000000000E+000,  0.10000000000E+001
  0.96558600000E+005,  0.11983413108E+007,  0.16500000000E+002,  0.00000000000E+000,  0.10000000000E+001
  0.96638600000E+005,  0.14572710461E+007,  0.16500000000E+002,  0.00000000000E+000,  0.10000000000E+001
  0.96718600000E+005,  0.21449558466E+007,  0.16500000000E+002,  0.00000000000E+000,  0.10000000000E+001
  0.96748700000E+005,  0.24519812448E+007,  0.16500000000E+002,  0.00000000000E+000,  0.10000000000E+001
  0.96828700000E+005,  0.29746974997E+007,  0.16500000000E+002,  0.00000000000E+000,  0.10000000000E+001
  0.96908700000E+005,  0.33528409800E+007,  0.16500000000E+002,  0.00000000000E+000,  0.10000000000E+001
  0.96988700000E+005,  0.35894772715E+007,  0.16500000000E+002,  0.00000000000E+000,  0.10000000000E+001
  0.97018800000E+005,  0.36403244625E+007,  0.16500000000E+002,  0.00000000000E+000,  0.10000000000E+001
  0.97098800000E+005,  0.37063801792E+007,  0.16500000000E+002,  0.00000000000E+000,  0.10000000000E+001
  0.97178800000E+005,  0.36850990340E+007,  0.16500000000E+002,  0.00000000000E+000,  0.10000000000E+001
  0.97258800000E+005,  0.36344131313E+007,  0.16500000000E+002,  0.00000000000E+000,  0.10000000000E+001
  0.97288900000E+005,  0.35996560235E+007,  0.16500000000E+002,  0.00000000000E+000,  0.10000000000E+001
  0.97368900000E+005,  0.36321873683E+007,  0.16500000000E+002,  0.00000000000E+000,  0.10000000000E+001
  0.97448900000E+005,  0.36801278898E+007,  0.16500000000E+002,  0.00000000000E+000,  0.10000000000E+001
  0.97528900000E+005,  0.37281429893E+007,  0.16500000000E+002,  0.00000000000E+000,  0.10000000000E+001
  0.97559000000E+005,  0.37355459516E+007,  0.16500000000E+002,  0.00000000000E+000,  0.10000000000E+001
  0.97639000000E+005,  0.37613222158E+007,  0.16500000000E+002,  0.00000000000E+000,  0.10000000000E+001
  0.97719000000E+005,  0.37581070286E+007,  0.16500000000E+002,  0.00000000000E+000,  0.10000000000E+001
  0.97799000000E+005,  0.37411594502E+007,  0.16500000000E+002,  0.00000000000E+000,  0.10000000000E+001
  0.97829100000E+005,  0.37241599056E+007,  0.16500000000E+002,  0.00000000000E+000,  0.10000000000E+001
  0.97909100000E+005,  0.37180621872E+007,  0.16500000000E+002,  0.00000000000E+000,  0.10000000000E+001
  0.97989100000E+005,  0.37173479985E+007,  0.16500000000E+002,  0.00000000000E+000,  0.10000000000E+001
  0.98069100000E+005,  0.37209834069E+007,  0.16500000000E+002,  0.00000000000E+000,  0.10000000000E+001
  0.98099200000E+005,  0.37180177689E+007,  0.16500000000E+002,  0.00000000000E+000,  0.10000000000E+001
  0.98179200000E+005,  0.37258548886E+007,  0.16500000000E+002,  0.00000000000E+000,  0.10000000000E+001
  0.98259200000E+005,  0.37277594620E+007,  0.16500000000E+002,  0.00000000000E+000,  0.10000000000E+001
  0.98339200000E+005,  0.37205027822E+007,  0.16500000000E+002,  0.00000000000E+000,  0.10000000000E+001
  0.98369300000E+005,  0.37120438574E+007,  0.16500000000E+002,  0.00000000000E+000,  0.10000000000E+001
  0.98449300000E+005,  0.36980806777E+007,  0.16500000000E+002,  0.00000000000E+000,  0.10000000000E+001
  0.98529300000E+005,  0.36892598237E+007,  0.16500000000E+002,  0.00000000000E+000,  0.10000000000E+001
  0.98609300000E+005,  0.36835702465E+007,  0.16500000000E+002,  0.00000000000E+000,  0.10000000000E+001
  0.98639400000E+005,  0.36794027397E+007,  0.16500000000E+002,  0.00000000000E+000,  0.10000000000E+001
  0.98719400000E+005,  0.36753070383E+007,  0.16500000000E+002,  0.00000000000E+000,  0.10000000000E+001
  0.98799400000E+005,  0.36755619545E+007,  0.16500000000E+002,  0.00000000000E+000,  0.10000000000E+001
  0.98879400000E+005,  0.36771679102E+007,  0.16500000000E+002,  0.00000000000E+000,  0.10000000000E+001
  0.98909500000E+005,  0.36751367631E+007,  0.16500000000E+002,  0.00000000000E+000,  0.10000000000E+001
  0.98989500000E+005,  0.36574825441E+007,  0.16500000000E+002,  0.00000000000E+000,  0.10000000000E+001
  0.98991500000E+005,  0.36570226598E+007,  0.16500000000E+002,  0.00000000000E+000,  0.10000000000E+001
  0.99001500000E+005,  0.36540968775E+007,  0.16500000000E+002,  0.00000000000E+000,  0.10000000000E+001
  0.99011500000E+005,  0.36505414248E+007,  0.16500000000E+002,  0.00000000000E+000,  0.10000000000E+001
  0.99021500000E+005,  0.36463852895E+007,  0.16500000000E+002,  0.00000000000E+000,  0.10000000000E+001
  0.99031500000E+005,  0.36416733010E+007,  0.16500000000E+002,  0.00000000000E+000,  0.10000000000E+001
  0.99041500000E+005,  0.36364588022E+007,  0.16500000000E+002,  0.00000000000E+000,  0.10000000000E+001
  0.99051500000E+005,  0.36308037658E+007,  0.16500000000E+002,  0.00000000000E+000,  0.10000000000E+001
  0.99061500000E+005,  0.36247719455E+007,  0.16500000000E+002,  0.00000000000E+000,  0.10000000000E+001
  0.99071500000E+005,  0.36184263368E+007,  0.16500000000E+002,  0.00000000000E+000,  0.10000000000E+001
  0.99081500000E+005,  0.36118262445E+007,  0.16500000000E+002,  0.00000000000E+000,  0.10000000000E+001
  0.99091500000E+005,  0.36050279912E+007,  0.16500000000E+002,  0.00000000000E+000,  0.10000000000E+001
  0.99101500000E+005,  0.35980830313E+007,  0.16500000000E+002,  0.00000000000E+000,  0.10000000000E+001
  0.99111500000E+005,  0.35910361585E+007,  0.16500000000E+002,  0.00000000000E+000,  0.10000000000E+001
  0.99121500000E+005,  0.35839278574E+007,  0.16500000000E+002,  0.00000000000E+000,  0.10000000000E+001
  0.99131500000E+005,  0.35767927882E+007,  0.16500000000E+002,  0.00000000000E+000,  0.10000000000E+001
  0.99141500000E+005,  0.35696599059E+007,  0.16500000000E+002,  0.00000000000E+000,  0.10000000000E+001
  0.99151500000E+005,  0.35625551302E+007,  0.16500000000E+002,  0.00000000000E+000,  0.10000000000E+001
  0.99161500000E+005,  0.35554998471E+007,  0.16500000000E+002,  0.00000000000E+000,  0.10000000000E+001
  0.99171500000E+005,  0.35485115879E+007,  0.16500000000E+002,  0.00000000000E+000,  0.10000000000E+001
  0.99179600000E+005,  0.35429000014E+007,  0.16500000000E+002,  0.00000000000E+000,  0.10000000000E+001
  0.99189600000E+005,  0.35360637749E+007,  0.16500000000E+002,  0.00000000000E+000,  0.10000000000E+001
  0.99199600000E+005,  0.35293271653E+007,  0.16500000000E+002,  0.00000000000E+000,  0.10000000000E+001
  0.99209600000E+005,  0.35226963327E+007,  0.16500000000E+002,  0.00000000000E+000,  0.10000000000E+001
  0.99219600000E+005,  0.35161752685E+007,  0.16500000000E+002,  0.00000000000E+000,  0.10000000000E+001
  0.99229600000E+005,  0.35097660564E+007,  0.16500000000E+002,  0.00000000000E+000,  0.10000000000E+001
  0.99239600000E+005,  0.35034690370E+007,  0.16500000000E+002,  0.00000000000E+000,  0.10000000000E+001
  0.99249600000E+005,  0.34972827354E+007,  0.16500000000E+002,  0.00000000000E+000,  0.10000000000E+001
  0.99259600000E+005,  0.34912049347E+007,  0.16500000000E+002,  0.00000000000E+000,  0.10000000000E+001
  0.99269600000E+005,  0.34852325148E+007,  0.16500000000E+002,  0.00000000000E+000,  0.10000000000E+001
  0.99279600000E+005,  0.34793621032E+007,  0.16500000000E+002,  0.00000000000E+000,  0.10000000000E+001
  0.99289600000E+005,  0.34735895734E+007,  0.16500000000E+002,  0.00000000000E+000,  0.10000000000E+001
