"           TIME(S)","              PRES","              TEMP","             SAT_G","             SAT_L"
  0.94900000000E+005,  0.18225151928E+007,  0.16500000000E+002,  0.00000000000E+000,  0.10000000000E+001
  0.94902500000E+005,  0.28439044121E+007,  0.16500000000E+002,  0.00000000000E+000,  0.10000000000E+001
  0.94905000000E+005,  0.38556186018E+007,  0.16500000000E+002,  0.00000000000E+000,  0.10000000000E+001
  0.94907500000E+005,  0.48542094490E+007,  0.16500000000E+002,  0.00000000000E+000,  0.10000000000E+001
  0.94910000000E+005,  0.58340234285E+007,  0.16500000000E+002,  0.00000000000E+000,  0.10000000000E+001
  0.94912500000E+005,  0.67787340515E+007,  0.16500000000E+002,  0.00000000000E+000,  0.10000000000E+001
  0.94915000000E+005,  0.76471797390E+007,  0.16500000000E+002,  0.00000000000E+000,  0.10000000000E+001
  0.94917500000E+005,  0.87502945041E+007,  0.16500000000E+002,  0.00000000000E+000,  0.10000000000E+001
  0.94920000000E+005,  0.89997177085E+007,  0.16500000000E+002,  0.00000000000E+000,  0.10000000000E+001
  0.94922500000E+005,  0.87892202770E+007,  0.16500000000E+002,  0.00000000000E+000,  0.10000000000E+001
  0.94925000000E+005,  0.89676724480E+007,  0.16500000000E+002,  0.00000000000E+000,  0.10000000000E+001
  0.94927500000E+005,  0.92736512512E+007,  0.16500000000E+002,  0.00000000000E+000,  0.10000000000E+001
  0.94930000000E+005,  0.95585535310E+007,  0.16500000000E+002,  0.00000000000E+000,  0.10000000000E+001
  0.94932500000E+005,  0.10173451495E+008,  0.16500000000E+002,  0.00000000000E+000,  0.10000000000E+001
  0.94935000000E+005,  0.10755625020E+008,  0.16500000000E+002,  0.00000000000E+000,  0.10000000000E+001
  0.94937500000E+005,  0.10575850938E+008,  0.16500000000E+002,  0.00000000000E+000,  0.10000000000E+001
  0.94940000000E+005,  0.10269440032E+008,  0.16500000000E+002,  0.00000000000E+000,  0.10000000000E+001
  0.94942500000E+005,  0.99991832773E+007,  0.16500000000E+002,  0.00000000000E+000,  0.10000000000E+001
  0.94945000000E+005,  0.97291583573E+007,  0.16500000000E+002,  0.00000000000E+000,  0.10000000000E+001
  0.94947500000E+005,  0.96649525085E+007,  0.16500000000E+002,  0.00000000000E+000,  0.10000000000E+001
  0.94950000000E+005,  0.94739141266E+007,  0.16500000000E+002,  0.00000000000E+000,  0.10000000000E+001
  0.94952500000E+005,  0.93122155199E+007,  0.16500000000E+002,  0.00000000000E+000,  0.10000000000E+001
  0.94955000000E+005,  0.92283789456E+007,  0.16500000000E+002,  0.00000000000E+000,  0.10000000000E+001
  0.94957500000E+005,  0.91365167631E+007,  0.16500000000E+002,  0.00000000000E+000,  0.10000000000E+001
  0.94960000000E+005,  0.90678539570E+007,  0.16500000000E+002,  0.00000000000E+000,  0.10000000000E+001
  0.94962500000E+005,  0.89849294351E+007,  0.16500000000E+002,  0.00000000000E+000,  0.10000000000E+001
  0.94965000000E+005,  0.88904309482E+007,  0.16500000000E+002,  0.00000000000E+000,  0.10000000000E+001
  0.94967500000E+005,  0.87971052158E+007,  0.16500000000E+002,  0.00000000000E+000,  0.10000000000E+001
  0.94970000000E+005,  0.87119297339E+007,  0.16500000000E+002,  0.00000000000E+000,  0.10000000000E+001
  0.94972500000E+005,  0.86307965110E+007,  0.16500000000E+002,  0.00000000000E+000,  0.10000000000E+001
  0.94975000000E+005,  0.85817858548E+007,  0.16500000000E+002,  0.00000000000E+000,  0.10000000000E+001
  0.94977500000E+005,  0.85466367391E+007,  0.16500000000E+002,  0.00000000000E+000,  0.10000000000E+001
  0.94980000000E+005,  0.85106897210E+007,  0.16500000000E+002,  0.00000000000E+000,  0.10000000000E+001
  0.94982500000E+005,  0.84824860915E+007,  0.16500000000E+002,  0.00000000000E+000,  0.10000000000E+001
  0.94985000000E+005,  0.84610170211E+007,  0.16500000000E+002,  0.00000000000E+000,  0.10000000000E+001
  0.94987500000E+005,  0.84468563861E+007,  0.16500000000E+002,  0.00000000000E+000,  0.10000000000E+001
  0.94990000000E+005,  0.84240244132E+007,  0.16500000000E+002,  0.00000000000E+000,  0.10000000000E+001
  0.94992500000E+005,  0.83869594136E+007,  0.16500000000E+002,  0.00000000000E+000,  0.10000000000E+001
  0.94995000000E+005,  0.83769316658E+007,  0.16500000000E+002,  0.00000000000E+000,  0.10000000000E+001
  0.94997500000E+005,  0.83366767409E+007,  0.16500000000E+002,  0.00000000000E+000,  0.10000000000E+001
  0.95000000000E+005,  0.83036315271E+007,  0.16500000000E+002,  0.00000000000E+000,  0.10000000000E+001
  0.95002000000E+005,  0.82733896143E+007,  0.16500000000E+002,  0.00000000000E+000,  0.10000000000E+001
  0.95012000000E+005,  0.84138200601E+007,  0.16500000000E+002,  0.00000000000E+000,  0.10000000000E+001
  0.95022000000E+005,  0.83741070475E+007,  0.16500000000E+002,  0.00000000000E+000,  0.10000000000E+001
  0.95032000000E+005,  0.81952015738E+007,  0.16500000000E+002,  0.00000000000E+000,  0.10000000000E+001
  0.95042000000E+005,  0.80838121244E+007,  0.16500000000E+002,  0.00000000000E+000,  0.10000000000E+001
  0.95052000000E+005,  0.80415252026E+007,  0.16500000000E+002,  0.00000000000E+000,  0.10000000000E+001
  0.95062000000E+005,  0.79823241222E+007,  0.16500000000E+002,  0.00000000000E+000,  0.10000000000E+001
  0.95072000000E+005,  0.79000371255E+007,  0.16500000000E+002,  0.00000000000E+000,  0.10000000000E+001
  0.95082000000E+005,  0.78466835509E+007,  0.16500000000E+002,  0.00000000000E+000,  0.10000000000E+001
  0.95092000000E+005,  0.78243169940E+007,  0.16500000000E+002,  0.00000000000E+000,  0.10000000000E+001
  0.95102000000E+005,  0.78184671538E+007,  0.16500000000E+002,  0.00000000000E+000,  0.10000000000E+001
  0.95112000000E+005,  0.78205201073E+007,  0.16500000000E+002,  0.00000000000E+000,  0.10000000000E+001
  0.95122000000E+005,  0.78270769658E+007,  0.16500000000E+002,  0.00000000000E+000,  0.10000000000E+001
  0.95128100000E+005,  0.78054772787E+007,  0.16500000000E+002,  0.00000000000E+000,  0.10000000000E+001
  0.95138100000E+005,  0.78087480023E+007,  0.16500000000E+002,  0.00000000000E+000,  0.10000000000E+001
  0.95148100000E+005,  0.77984089711E+007,  0.16500000000E+002,  0.00000000000E+000,  0.10000000000E+001
  0.95158100000E+005,  0.77775141509E+007,  0.16500000000E+002,  0.00000000000E+000,  0.10000000000E+001
  0.95168100000E+005,  0.77514510349E+007,  0.16500000000E+002,  0.00000000000E+000,  0.10000000000E+001
  0.95178100000E+005,  0.77343594772E+007,  0.16500000000E+002,  0.00000000000E+000,  0.10000000000E+001
  0.95188100000E+005,  0.77398586400E+007,  0.16500000000E+002,  0.00000000000E+000,  0.10000000000E+001
  0.95198100000E+005,  0.77691736053E+007,  0.16500000000E+002,  0.00000000000E+000,  0.10000000000E+001
  0.95208100000E+005,  0.78068486992E+007,  0.16500000000E+002,  0.00000000000E+000,  0.10000000000E+001
  0.95218100000E+005,  0.78491872389E+007,  0.16500000000E+002,  0.00000000000E+000,  0.10000000000E+001
  0.95228100000E+005,  0.78759433156E+007,  0.16500000000E+002,  0.00000000000E+000,  0.10000000000E+001
  0.95238100000E+005,  0.78808133095E+007,  0.16500000000E+002,  0.00000000000E+000,  0.10000000000E+001
  0.95248100000E+005,  0.78875032069E+007,  0.16500000000E+002,  0.00000000000E+000,  0.10000000000E+001
  0.95258100000E+005,  0.78921847010E+007,  0.16500000000E+002,  0.00000000000E+000,  0.10000000000E+001
  0.95268100000E+005,  0.78901303454E+007,  0.16500000000E+002,  0.00000000000E+000,  0.10000000000E+001
  0.95278100000E+005,  0.78762241561E+007,  0.16500000000E+002,  0.00000000000E+000,  0.10000000000E+001
  0.95288100000E+005,  0.78556589720E+007,  0.16500000000E+002,  0.00000000000E+000,  0.10000000000E+001
  0.95298100000E+005,  0.78364913384E+007,  0.16500000000E+002,  0.00000000000E+000,  0.10000000000E+001
  0.95308100000E+005,  0.78199744528E+007,  0.16500000000E+002,  0.00000000000E+000,  0.10000000000E+001
  0.95318100000E+005,  0.78036484638E+007,  0.16500000000E+002,  0.00000000000E+000,  0.10000000000E+001
  0.95328100000E+005,  0.77883825906E+007,  0.16500000000E+002,  0.00000000000E+000,  0.10000000000E+001
  0.95338100000E+005,  0.77741594034E+007,  0.16500000000E+002,  0.00000000000E+000,  0.10000000000E+001
  0.95348100000E+005,  0.77576283935E+007,  0.16500000000E+002,  0.00000000000E+000,  0.10000000000E+001
  0.95358100000E+005,  0.77402368220E+007,  0.16500000000E+002,  0.00000000000E+000,  0.10000000000E+001
  0.95368100000E+005,  0.77334020359E+007,  0.16500000000E+002,  0.00000000000E+000,  0.10000000000E+001
  0.95378100000E+005,  0.77230679920E+007,  0.16500000000E+002,  0.00000000000E+000,  0.10000000000E+001
  0.95388100000E+005,  0.77048954944E+007,  0.16500000000E+002,  0.00000000000E+000,  0.10000000000E+001
  0.95398100000E+005,  0.76837817678E+007,  0.16500000000E+002,  0.00000000000E+000,  0.10000000000E+001
  0.95398200000E+005,  0.76840767626E+007,  0.16500000000E+002,  0.00000000000E+000,  0.10000000000E+001
  0.95408200000E+005,  0.76630774802E+007,  0.16500000000E+002,  0.00000000000E+000,  0.10000000000E+001
  0.95418200000E+005,  0.76460273273E+007,  0.16500000000E+002,  0.00000000000E+000,  0.10000000000E+001
  0.95428200000E+005,  0.76304191960E+007,  0.16500000000E+002,  0.00000000000E+000,  0.10000000000E+001
  0.95438200000E+005,  0.76151717038E+007,  0.16500000000E+002,  0.00000000000E+000,  0.10000000000E+001
  0.95448200000E+005,  0.76025951320E+007,  0.16500000000E+002,  0.00000000000E+000,  0.10000000000E+001
  0.95458200000E+005,  0.75931949079E+007,  0.16500000000E+002,  0.00000000000E+000,  0.10000000000E+001
  0.95468200000E+005,  0.75841043088E+007,  0.16500000000E+002,  0.00000000000E+000,  0.10000000000E+001
  0.95478200000E+005,  0.75742117983E+007,  0.16500000000E+002,  0.00000000000E+000,  0.10000000000E+001
  0.95488200000E+005,  0.75647849389E+007,  0.16500000000E+002,  0.00000000000E+000,  0.10000000000E+001
  0.95498200000E+005,  0.75565249673E+007,  0.16500000000E+002,  0.00000000000E+000,  0.10000000000E+001
  0.95508200000E+005,  0.75485050124E+007,  0.16500000000E+002,  0.00000000000E+000,  0.10000000000E+001
  0.95518200000E+005,  0.75399261846E+007,  0.16500000000E+002,  0.00000000000E+000,  0.10000000000E+001
  0.95528200000E+005,  0.75306122577E+007,  0.16500000000E+002,  0.00000000000E+000,  0.10000000000E+001
  0.95538200000E+005,  0.75208945260E+007,  0.16500000000E+002,  0.00000000000E+000,  0.10000000000E+001
  0.95548200000E+005,  0.75109357681E+007,  0.16500000000E+002,  0.00000000000E+000,  0.10000000000E+001
  0.95558200000E+005,  0.75013024908E+007,  0.16500000000E+002,  0.00000000000E+000,  0.10000000000E+001
  0.95568200000E+005,  0.74921393102E+007,  0.16500000000E+002,  0.00000000000E+000,  0.10000000000E+001
  0.95578200000E+005,  0.74833766590E+007,  0.16500000000E+002,  0.00000000000E+000,  0.10000000000E+001
  0.95588200000E+005,  0.74750206524E+007,  0.16500000000E+002,  0.00000000000E+000,  0.10000000000E+001
  0.95598200000E+005,  0.74666561043E+007,  0.16500000000E+002,  0.00000000000E+000,  0.10000000000E+001
  0.95608200000E+005,  0.74582537631E+007,  0.16500000000E+002,  0.00000000000E+000,  0.10000000000E+001
  0.95618200000E+005,  0.74505337534E+007,  0.16500000000E+002,  0.00000000000E+000,  0.10000000000E+001
  0.95628200000E+005,  0.74443374520E+007,  0.16500000000E+002,  0.00000000000E+000,  0.10000000000E+001
  0.95638200000E+005,  0.74407084139E+007,  0.16500000000E+002,  0.00000000000E+000,  0.10000000000E+001
  0.95648200000E+005,  0.74380499825E+007,  0.16500000000E+002,  0.00000000000E+000,  0.10000000000E+001
  0.95658200000E+005,  0.74337562499E+007,  0.16500000000E+002,  0.00000000000E+000,  0.10000000000E+001
  0.95668200000E+005,  0.74271753845E+007,  0.16500000000E+002,  0.00000000000E+000,  0.10000000000E+001
  0.95668300000E+005,  0.74274078290E+007,  0.16500000000E+002,  0.00000000000E+000,  0.10000000000E+001
  0.95678300000E+005,  0.74190653792E+007,  0.16500000000E+002,  0.00000000000E+000,  0.10000000000E+001
  0.95688300000E+005,  0.74109362118E+007,  0.16500000000E+002,  0.00000000000E+000,  0.10000000000E+001
  0.95698300000E+005,  0.74054687114E+007,  0.16500000000E+002,  0.00000000000E+000,  0.10000000000E+001
  0.95708300000E+005,  0.74031631599E+007,  0.16500000000E+002,  0.00000000000E+000,  0.10000000000E+001
  0.95718300000E+005,  0.73998566403E+007,  0.16500000000E+002,  0.00000000000E+000,  0.10000000000E+001
  0.95728300000E+005,  0.73958204065E+007,  0.16500000000E+002,  0.00000000000E+000,  0.10000000000E+001
  0.95738300000E+005,  0.73922925090E+007,  0.16500000000E+002,  0.00000000000E+000,  0.10000000000E+001
  0.95748300000E+005,  0.73888334831E+007,  0.16500000000E+002,  0.00000000000E+000,  0.10000000000E+001
  0.95758300000E+005,  0.73853828713E+007,  0.16500000000E+002,  0.00000000000E+000,  0.10000000000E+001
  0.95768300000E+005,  0.73815035040E+007,  0.16500000000E+002,  0.00000000000E+000,  0.10000000000E+001
  0.95778300000E+005,  0.73771988032E+007,  0.16500000000E+002,  0.00000000000E+000,  0.10000000000E+001
  0.95788300000E+005,  0.73730436340E+007,  0.16500000000E+002,  0.00000000000E+000,  0.10000000000E+001
  0.95798300000E+005,  0.73690159460E+007,  0.16500000000E+002,  0.00000000000E+000,  0.10000000000E+001
  0.95808300000E+005,  0.73648973570E+007,  0.16500000000E+002,  0.00000000000E+000,  0.10000000000E+001
  0.95818300000E+005,  0.73604279417E+007,  0.16500000000E+002,  0.00000000000E+000,  0.10000000000E+001
  0.95828300000E+005,  0.73557632697E+007,  0.16500000000E+002,  0.00000000000E+000,  0.10000000000E+001
  0.95838300000E+005,  0.73510349680E+007,  0.16500000000E+002,  0.00000000000E+000,  0.10000000000E+001
  0.95848300000E+005,  0.73469365909E+007,  0.16500000000E+002,  0.00000000000E+000,  0.10000000000E+001
  0.95858300000E+005,  0.73437611206E+007,  0.16500000000E+002,  0.00000000000E+000,  0.10000000000E+001
  0.95868300000E+005,  0.73409417675E+007,  0.16500000000E+002,  0.00000000000E+000,  0.10000000000E+001
  0.95878300000E+005,  0.73381652977E+007,  0.16500000000E+002,  0.00000000000E+000,  0.10000000000E+001
  0.95888300000E+005,  0.73354509373E+007,  0.16500000000E+002,  0.00000000000E+000,  0.10000000000E+001
  0.95898300000E+005,  0.73329675535E+007,  0.16500000000E+002,  0.00000000000E+000,  0.10000000000E+001
  0.95908300000E+005,  0.73306201957E+007,  0.16500000000E+002,  0.00000000000E+000,  0.10000000000E+001
  0.95918300000E+005,  0.73276271042E+007,  0.16500000000E+002,  0.00000000000E+000,  0.10000000000E+001
  0.95928300000E+005,  0.73239893659E+007,  0.16500000000E+002,  0.00000000000E+000,  0.10000000000E+001
  0.95938300000E+005,  0.73200552005E+007,  0.16500000000E+002,  0.00000000000E+000,  0.10000000000E+001
  0.95938400000E+005,  0.73205064398E+007,  0.16500000000E+002,  0.00000000000E+000,  0.10000000000E+001
  0.95948400000E+005,  0.73162093645E+007,  0.16500000000E+002,  0.00000000000E+000,  0.10000000000E+001
  0.95958400000E+005,  0.73123547040E+007,  0.16500000000E+002,  0.00000000000E+000,  0.10000000000E+001
  0.95968400000E+005,  0.73085617338E+007,  0.16500000000E+002,  0.00000000000E+000,  0.10000000000E+001
  0.95978400000E+005,  0.73050110793E+007,  0.16500000000E+002,  0.00000000000E+000,  0.10000000000E+001
  0.95988400000E+005,  0.73017056185E+007,  0.16500000000E+002,  0.00000000000E+000,  0.10000000000E+001
  0.95998400000E+005,  0.72982638164E+007,  0.16500000000E+002,  0.00000000000E+000,  0.10000000000E+001
  0.96008400000E+005,  0.72829528577E+007,  0.16500000000E+002,  0.00000000000E+000,  0.10000000000E+001
  0.96018400000E+005,  0.72769312735E+007,  0.16500000000E+002,  0.00000000000E+000,  0.10000000000E+001
  0.96028400000E+005,  0.72739239053E+007,  0.16500000000E+002,  0.00000000000E+000,  0.10000000000E+001
  0.96038400000E+005,  0.72714058663E+007,  0.16500000000E+002,  0.00000000000E+000,  0.10000000000E+001
  0.96048400000E+005,  0.72687984384E+007,  0.16500000000E+002,  0.00000000000E+000,  0.10000000000E+001
  0.96058400000E+005,  0.72657499962E+007,  0.16500000000E+002,  0.00000000000E+000,  0.10000000000E+001
  0.96068400000E+005,  0.72623900553E+007,  0.16500000000E+002,  0.00000000000E+000,  0.10000000000E+001
  0.96078400000E+005,  0.72588808165E+007,  0.16500000000E+002,  0.00000000000E+000,  0.10000000000E+001
  0.96088400000E+005,  0.72552946663E+007,  0.16500000000E+002,  0.00000000000E+000,  0.10000000000E+001
  0.96098400000E+005,  0.72517544597E+007,  0.16500000000E+002,  0.00000000000E+000,  0.10000000000E+001
  0.96108400000E+005,  0.72482353893E+007,  0.16500000000E+002,  0.00000000000E+000,  0.10000000000E+001
  0.96118400000E+005,  0.72447419151E+007,  0.16500000000E+002,  0.00000000000E+000,  0.10000000000E+001
  0.96128400000E+005,  0.72413761435E+007,  0.16500000000E+002,  0.00000000000E+000,  0.10000000000E+001
  0.96138400000E+005,  0.72381174270E+007,  0.16500000000E+002,  0.00000000000E+000,  0.10000000000E+001
