"           TIME(S)","              PRES","              TEMP","             SAT_G","             SAT_L"
  0.94860000000E+005,  0.99606484278E+006,  0.16500000000E+002,  0.00000000000E+000,  0.10000000000E+001
  0.94870000000E+005,  0.99606484278E+006,  0.16500000000E+002,  0.00000000000E+000,  0.10000000000E+001
  0.94872000000E+005,  0.99606484278E+006,  0.16500000000E+002,  0.00000000000E+000,  0.10000000000E+001
  0.94874000000E+005,  0.99606484278E+006,  0.16500000000E+002,  0.00000000000E+000,  0.10000000000E+001
  0.94876000000E+005,  0.99606484278E+006,  0.16500000000E+002,  0.00000000000E+000,  0.10000000000E+001
  0.94878000000E+005,  0.99606484278E+006,  0.16500000000E+002,  0.00000000000E+000,  0.10000000000E+001
  0.94880000000E+005,  0.99606484278E+006,  0.16500000000E+002,  0.00000000000E+000,  0.10000000000E+001
  0.94882000000E+005,  0.12081846105E+007,  0.16500000000E+002,  0.00000000000E+000,  0.10000000000E+001
  0.94884000000E+005,  0.21707533494E+007,  0.16500000000E+002,  0.00000000000E+000,  0.10000000000E+001
  0.94886000000E+005,  0.31261762241E+007,  0.16500000000E+002,  0.00000000000E+000,  0.10000000000E+001
  0.94888000000E+005,  0.40723527077E+007,  0.16500000000E+002,  0.00000000000E+000,  0.10000000000E+001
  0.94890000000E+005,  0.50044844336E+007,  0.16500000000E+002,  0.00000000000E+000,  0.10000000000E+001
  0.94892000000E+005,  0.59089575567E+007,  0.16500000000E+002,  0.00000000000E+000,  0.10000000000E+001
  0.94894000000E+005,  0.67444015555E+007,  0.16500000000E+002,  0.00000000000E+000,  0.10000000000E+001
  0.94896000000E+005,  0.74085606055E+007,  0.16500000000E+002,  0.00000000000E+000,  0.10000000000E+001
  0.94898000000E+005,  0.78117476837E+007,  0.16500000000E+002,  0.00000000000E+000,  0.10000000000E+001
  0.94900000000E+005,  0.79971036359E+007,  0.16500000000E+002,  0.00000000000E+000,  0.10000000000E+001
  0.94902000000E+005,  0.79983515693E+007,  0.16500000000E+002,  0.00000000000E+000,  0.10000000000E+001
  0.94904000000E+005,  0.80565120266E+007,  0.16500000000E+002,  0.00000000000E+000,  0.10000000000E+001
  0.94906000000E+005,  0.81438005012E+007,  0.16500000000E+002,  0.00000000000E+000,  0.10000000000E+001
  0.94908000000E+005,  0.81799859852E+007,  0.16500000000E+002,  0.00000000000E+000,  0.10000000000E+001
  0.94910000000E+005,  0.81500244168E+007,  0.16500000000E+002,  0.00000000000E+000,  0.10000000000E+001
  0.94912000000E+005,  0.80866250194E+007,  0.16500000000E+002,  0.00000000000E+000,  0.10000000000E+001
  0.94914000000E+005,  0.80025812264E+007,  0.16500000000E+002,  0.00000000000E+000,  0.10000000000E+001
  0.94916000000E+005,  0.80383898949E+007,  0.16500000000E+002,  0.00000000000E+000,  0.10000000000E+001
  0.94918000000E+005,  0.81220583693E+007,  0.16500000000E+002,  0.00000000000E+000,  0.10000000000E+001
  0.94920000000E+005,  0.80441315499E+007,  0.16500000000E+002,  0.00000000000E+000,  0.10000000000E+001
  0.94922000000E+005,  0.79342532738E+007,  0.16500000000E+002,  0.00000000000E+000,  0.10000000000E+001
  0.94924000000E+005,  0.78749272286E+007,  0.16500000000E+002,  0.00000000000E+000,  0.10000000000E+001
  0.94926000000E+005,  0.79924676527E+007,  0.16500000000E+002,  0.00000000000E+000,  0.10000000000E+001
  0.94928000000E+005,  0.81359761405E+007,  0.16500000000E+002,  0.00000000000E+000,  0.10000000000E+001
  0.94930000000E+005,  0.83387587766E+007,  0.16500000000E+002,  0.00000000000E+000,  0.10000000000E+001
  0.94932000000E+005,  0.88813015832E+007,  0.16500000000E+002,  0.00000000000E+000,  0.10000000000E+001
  0.94934000000E+005,  0.96199228273E+007,  0.16500000000E+002,  0.00000000000E+000,  0.10000000000E+001
  0.94936000000E+005,  0.10018105677E+008,  0.16500000000E+002,  0.00000000000E+000,  0.10000000000E+001
  0.94938000000E+005,  0.10129656009E+008,  0.16500000000E+002,  0.00000000000E+000,  0.10000000000E+001
  0.94940000000E+005,  0.10143327000E+008,  0.16500000000E+002,  0.00000000000E+000,  0.10000000000E+001
  0.94942000000E+005,  0.10096785113E+008,  0.16500000000E+002,  0.00000000000E+000,  0.10000000000E+001
  0.94944000000E+005,  0.10031486121E+008,  0.16500000000E+002,  0.00000000000E+000,  0.10000000000E+001
  0.94946000000E+005,  0.10031081638E+008,  0.16500000000E+002,  0.00000000000E+000,  0.10000000000E+001
  0.94948000000E+005,  0.10293028485E+008,  0.16500000000E+002,  0.00000000000E+000,  0.10000000000E+001
  0.94950000000E+005,  0.10389547668E+008,  0.16500000000E+002,  0.00000000000E+000,  0.10000000000E+001
  0.94952000000E+005,  0.10393030091E+008,  0.16500000000E+002,  0.00000000000E+000,  0.10000000000E+001
  0.94954000000E+005,  0.10385031975E+008,  0.16500000000E+002,  0.00000000000E+000,  0.10000000000E+001
  0.94956000000E+005,  0.10301126381E+008,  0.16500000000E+002,  0.00000000000E+000,  0.10000000000E+001
  0.94958000000E+005,  0.10228541360E+008,  0.16500000000E+002,  0.00000000000E+000,  0.10000000000E+001
  0.94960000000E+005,  0.10191124136E+008,  0.16500000000E+002,  0.00000000000E+000,  0.10000000000E+001
  0.94962000000E+005,  0.10158938974E+008,  0.16500000000E+002,  0.00000000000E+000,  0.10000000000E+001
  0.94964000000E+005,  0.10123174554E+008,  0.16500000000E+002,  0.00000000000E+000,  0.10000000000E+001
  0.94966000000E+005,  0.10082488290E+008,  0.16500000000E+002,  0.00000000000E+000,  0.10000000000E+001
  0.94968000000E+005,  0.10049239974E+008,  0.16500000000E+002,  0.00000000000E+000,  0.10000000000E+001
  0.94970000000E+005,  0.10030326282E+008,  0.16500000000E+002,  0.00000000000E+000,  0.10000000000E+001
  0.94972000000E+005,  0.10011165883E+008,  0.16500000000E+002,  0.00000000000E+000,  0.10000000000E+001
  0.94974000000E+005,  0.99997697405E+007,  0.16500000000E+002,  0.00000000000E+000,  0.10000000000E+001
  0.94976000000E+005,  0.10005888015E+008,  0.16500000000E+002,  0.00000000000E+000,  0.10000000000E+001
  0.94978000000E+005,  0.10018905160E+008,  0.16500000000E+002,  0.00000000000E+000,  0.10000000000E+001
  0.94980000000E+005,  0.10034161178E+008,  0.16500000000E+002,  0.00000000000E+000,  0.10000000000E+001
  0.94982000000E+005,  0.10045163526E+008,  0.16500000000E+002,  0.00000000000E+000,  0.10000000000E+001
  0.94984000000E+005,  0.10048539791E+008,  0.16500000000E+002,  0.00000000000E+000,  0.10000000000E+001
  0.94986000000E+005,  0.10043423760E+008,  0.16500000000E+002,  0.00000000000E+000,  0.10000000000E+001
  0.94988000000E+005,  0.10054296663E+008,  0.16500000000E+002,  0.00000000000E+000,  0.10000000000E+001
  0.94990000000E+005,  0.10072297199E+008,  0.16500000000E+002,  0.00000000000E+000,  0.10000000000E+001
  0.94992000000E+005,  0.10087908335E+008,  0.16500000000E+002,  0.00000000000E+000,  0.10000000000E+001
  0.94994000000E+005,  0.10132502488E+008,  0.16500000000E+002,  0.00000000000E+000,  0.10000000000E+001
  0.94996000000E+005,  0.10184308055E+008,  0.16500000000E+002,  0.00000000000E+000,  0.10000000000E+001
  0.94998000000E+005,  0.10160280184E+008,  0.16500000000E+002,  0.00000000000E+000,  0.10000000000E+001
  0.95000000000E+005,  0.10140268359E+008,  0.16500000000E+002,  0.00000000000E+000,  0.10000000000E+001
  0.95010000000E+005,  0.10245015322E+008,  0.16500000000E+002,  0.00000000000E+000,  0.10000000000E+001
  0.95020000000E+005,  0.10439517872E+008,  0.16500000000E+002,  0.00000000000E+000,  0.10000000000E+001
  0.95030000000E+005,  0.10294110523E+008,  0.16500000000E+002,  0.00000000000E+000,  0.10000000000E+001
  0.95040000000E+005,  0.10209544102E+008,  0.16500000000E+002,  0.00000000000E+000,  0.10000000000E+001
  0.95050000000E+005,  0.10183424217E+008,  0.16500000000E+002,  0.00000000000E+000,  0.10000000000E+001
  0.95060000000E+005,  0.10096256396E+008,  0.16500000000E+002,  0.00000000000E+000,  0.10000000000E+001
  0.95070000000E+005,  0.10108845971E+008,  0.16500000000E+002,  0.00000000000E+000,  0.10000000000E+001
  0.95080000000E+005,  0.10134286421E+008,  0.16500000000E+002,  0.00000000000E+000,  0.10000000000E+001
  0.95090000000E+005,  0.10084606147E+008,  0.16500000000E+002,  0.00000000000E+000,  0.10000000000E+001
  0.95100000000E+005,  0.10013157441E+008,  0.16500000000E+002,  0.00000000000E+000,  0.10000000000E+001
  0.95110000000E+005,  0.10009045461E+008,  0.16500000000E+002,  0.00000000000E+000,  0.10000000000E+001
  0.95120000000E+005,  0.10036592284E+008,  0.16500000000E+002,  0.00000000000E+000,  0.10000000000E+001
  0.95128100000E+005,  0.10044861033E+008,  0.16500000000E+002,  0.00000000000E+000,  0.10000000000E+001
  0.95138100000E+005,  0.10030049263E+008,  0.16500000000E+002,  0.00000000000E+000,  0.10000000000E+001
  0.95148100000E+005,  0.10034251262E+008,  0.16500000000E+002,  0.00000000000E+000,  0.10000000000E+001
  0.95158100000E+005,  0.10023646861E+008,  0.16500000000E+002,  0.00000000000E+000,  0.10000000000E+001
  0.95168100000E+005,  0.99998046029E+007,  0.16500000000E+002,  0.00000000000E+000,  0.10000000000E+001
  0.95178100000E+005,  0.99799630228E+007,  0.16500000000E+002,  0.00000000000E+000,  0.10000000000E+001
  0.95188100000E+005,  0.99819146309E+007,  0.16500000000E+002,  0.00000000000E+000,  0.10000000000E+001
  0.95198100000E+005,  0.99743349986E+007,  0.16500000000E+002,  0.00000000000E+000,  0.10000000000E+001
  0.95208100000E+005,  0.99470233977E+007,  0.16500000000E+002,  0.00000000000E+000,  0.10000000000E+001
  0.95218100000E+005,  0.99042372303E+007,  0.16500000000E+002,  0.00000000000E+000,  0.10000000000E+001
  0.95228100000E+005,  0.98661743479E+007,  0.16500000000E+002,  0.00000000000E+000,  0.10000000000E+001
  0.95238100000E+005,  0.98705163704E+007,  0.16500000000E+002,  0.00000000000E+000,  0.10000000000E+001
  0.95248100000E+005,  0.98893346940E+007,  0.16500000000E+002,  0.00000000000E+000,  0.10000000000E+001
  0.95258100000E+005,  0.98922977795E+007,  0.16500000000E+002,  0.00000000000E+000,  0.10000000000E+001
  0.95268100000E+005,  0.99106128628E+007,  0.16500000000E+002,  0.00000000000E+000,  0.10000000000E+001
  0.95278100000E+005,  0.98999624640E+007,  0.16500000000E+002,  0.00000000000E+000,  0.10000000000E+001
  0.95288100000E+005,  0.98648922663E+007,  0.16500000000E+002,  0.00000000000E+000,  0.10000000000E+001
  0.95298100000E+005,  0.98413767927E+007,  0.16500000000E+002,  0.00000000000E+000,  0.10000000000E+001
  0.95308100000E+005,  0.99039029883E+007,  0.16500000000E+002,  0.00000000000E+000,  0.10000000000E+001
  0.95318100000E+005,  0.99147651481E+007,  0.16500000000E+002,  0.00000000000E+000,  0.10000000000E+001
  0.95328100000E+005,  0.99019880072E+007,  0.16500000000E+002,  0.00000000000E+000,  0.10000000000E+001
  0.95338100000E+005,  0.99188502162E+007,  0.16500000000E+002,  0.00000000000E+000,  0.10000000000E+001
  0.95348100000E+005,  0.99917906193E+007,  0.16500000000E+002,  0.00000000000E+000,  0.10000000000E+001
  0.95358100000E+005,  0.10076100719E+008,  0.16500000000E+002,  0.00000000000E+000,  0.10000000000E+001
  0.95368100000E+005,  0.10050389665E+008,  0.16500000000E+002,  0.00000000000E+000,  0.10000000000E+001
  0.95378100000E+005,  0.10030467018E+008,  0.16500000000E+002,  0.00000000000E+000,  0.10000000000E+001
  0.95388100000E+005,  0.10018199393E+008,  0.16500000000E+002,  0.00000000000E+000,  0.10000000000E+001
  0.95398100000E+005,  0.10012976837E+008,  0.16500000000E+002,  0.00000000000E+000,  0.10000000000E+001
  0.95398200000E+005,  0.10012693369E+008,  0.16500000000E+002,  0.00000000000E+000,  0.10000000000E+001
  0.95408200000E+005,  0.10010732680E+008,  0.16500000000E+002,  0.00000000000E+000,  0.10000000000E+001
  0.95418200000E+005,  0.10009179123E+008,  0.16500000000E+002,  0.00000000000E+000,  0.10000000000E+001
  0.95428200000E+005,  0.10004003413E+008,  0.16500000000E+002,  0.00000000000E+000,  0.10000000000E+001
  0.95438200000E+005,  0.99905634972E+007,  0.16500000000E+002,  0.00000000000E+000,  0.10000000000E+001
  0.95448200000E+005,  0.99783742772E+007,  0.16500000000E+002,  0.00000000000E+000,  0.10000000000E+001
  0.95458200000E+005,  0.99666220040E+007,  0.16500000000E+002,  0.00000000000E+000,  0.10000000000E+001
  0.95468200000E+005,  0.99562524942E+007,  0.16500000000E+002,  0.00000000000E+000,  0.10000000000E+001
  0.95478200000E+005,  0.99487508850E+007,  0.16500000000E+002,  0.00000000000E+000,  0.10000000000E+001
  0.95488200000E+005,  0.99394237151E+007,  0.16500000000E+002,  0.00000000000E+000,  0.10000000000E+001
  0.95498200000E+005,  0.99305837501E+007,  0.16500000000E+002,  0.00000000000E+000,  0.10000000000E+001
  0.95508200000E+005,  0.99214699997E+007,  0.16500000000E+002,  0.00000000000E+000,  0.10000000000E+001
  0.95518200000E+005,  0.99151714754E+007,  0.16500000000E+002,  0.00000000000E+000,  0.10000000000E+001
  0.95528200000E+005,  0.99097149340E+007,  0.16500000000E+002,  0.00000000000E+000,  0.10000000000E+001
  0.95538200000E+005,  0.99067813050E+007,  0.16500000000E+002,  0.00000000000E+000,  0.10000000000E+001
  0.95548200000E+005,  0.99070048735E+007,  0.16500000000E+002,  0.00000000000E+000,  0.10000000000E+001
  0.95558200000E+005,  0.99126745433E+007,  0.16500000000E+002,  0.00000000000E+000,  0.10000000000E+001
  0.95568200000E+005,  0.99139847499E+007,  0.16500000000E+002,  0.00000000000E+000,  0.10000000000E+001
  0.95578200000E+005,  0.99050252359E+007,  0.16500000000E+002,  0.00000000000E+000,  0.10000000000E+001
  0.95588200000E+005,  0.98958683829E+007,  0.16500000000E+002,  0.00000000000E+000,  0.10000000000E+001
  0.95598200000E+005,  0.98913301547E+007,  0.16500000000E+002,  0.00000000000E+000,  0.10000000000E+001
  0.95608200000E+005,  0.98883926910E+007,  0.16500000000E+002,  0.00000000000E+000,  0.10000000000E+001
  0.95618200000E+005,  0.98871807375E+007,  0.16500000000E+002,  0.00000000000E+000,  0.10000000000E+001
  0.95628200000E+005,  0.98871215431E+007,  0.16500000000E+002,  0.00000000000E+000,  0.10000000000E+001
  0.95638200000E+005,  0.98858089289E+007,  0.16500000000E+002,  0.00000000000E+000,  0.10000000000E+001
  0.95648200000E+005,  0.98842321531E+007,  0.16500000000E+002,  0.00000000000E+000,  0.10000000000E+001
  0.95658200000E+005,  0.98880808323E+007,  0.16500000000E+002,  0.00000000000E+000,  0.10000000000E+001
  0.95668200000E+005,  0.99013047416E+007,  0.16500000000E+002,  0.00000000000E+000,  0.10000000000E+001
  0.95668300000E+005,  0.99045306005E+007,  0.16500000000E+002,  0.00000000000E+000,  0.10000000000E+001
  0.95678300000E+005,  0.99135730983E+007,  0.16500000000E+002,  0.00000000000E+000,  0.10000000000E+001
  0.95688300000E+005,  0.99164529064E+007,  0.16500000000E+002,  0.00000000000E+000,  0.10000000000E+001
  0.95698300000E+005,  0.99186195590E+007,  0.16500000000E+002,  0.00000000000E+000,  0.10000000000E+001
  0.95708300000E+005,  0.99207231044E+007,  0.16500000000E+002,  0.00000000000E+000,  0.10000000000E+001
  0.95718300000E+005,  0.99218459402E+007,  0.16500000000E+002,  0.00000000000E+000,  0.10000000000E+001
  0.95728300000E+005,  0.99211529400E+007,  0.16500000000E+002,  0.00000000000E+000,  0.10000000000E+001
  0.95738300000E+005,  0.99214475229E+007,  0.16500000000E+002,  0.00000000000E+000,  0.10000000000E+001
  0.95748300000E+005,  0.99218614766E+007,  0.16500000000E+002,  0.00000000000E+000,  0.10000000000E+001
  0.95758300000E+005,  0.99206570720E+007,  0.16500000000E+002,  0.00000000000E+000,  0.10000000000E+001
  0.95768300000E+005,  0.99185255898E+007,  0.16500000000E+002,  0.00000000000E+000,  0.10000000000E+001
  0.95778300000E+005,  0.99151315996E+007,  0.16500000000E+002,  0.00000000000E+000,  0.10000000000E+001
  0.95788300000E+005,  0.99118169100E+007,  0.16500000000E+002,  0.00000000000E+000,  0.10000000000E+001
  0.95798300000E+005,  0.99080486169E+007,  0.16500000000E+002,  0.00000000000E+000,  0.10000000000E+001
  0.95808300000E+005,  0.99037607785E+007,  0.16500000000E+002,  0.00000000000E+000,  0.10000000000E+001
  0.95818300000E+005,  0.99008670367E+007,  0.16500000000E+002,  0.00000000000E+000,  0.10000000000E+001
  0.95828300000E+005,  0.98980390117E+007,  0.16500000000E+002,  0.00000000000E+000,  0.10000000000E+001
  0.95838300000E+005,  0.98964350189E+007,  0.16500000000E+002,  0.00000000000E+000,  0.10000000000E+001
  0.95848300000E+005,  0.98932289734E+007,  0.16500000000E+002,  0.00000000000E+000,  0.10000000000E+001
  0.95858300000E+005,  0.98877134063E+007,  0.16500000000E+002,  0.00000000000E+000,  0.10000000000E+001
  0.95868300000E+005,  0.98828726609E+007,  0.16500000000E+002,  0.00000000000E+000,  0.10000000000E+001
  0.95878300000E+005,  0.98784518532E+007,  0.16500000000E+002,  0.00000000000E+000,  0.10000000000E+001
  0.95888300000E+005,  0.98738178275E+007,  0.16500000000E+002,  0.00000000000E+000,  0.10000000000E+001
  0.95898300000E+005,  0.98699472372E+007,  0.16500000000E+002,  0.00000000000E+000,  0.10000000000E+001
  0.95908300000E+005,  0.98676430035E+007,  0.16500000000E+002,  0.00000000000E+000,  0.10000000000E+001
  0.95918300000E+005,  0.98656981994E+007,  0.16500000000E+002,  0.00000000000E+000,  0.10000000000E+001
  0.95928300000E+005,  0.98645502408E+007,  0.16500000000E+002,  0.00000000000E+000,  0.10000000000E+001
  0.95938300000E+005,  0.98644128908E+007,  0.16500000000E+002,  0.00000000000E+000,  0.10000000000E+001
  0.95938400000E+005,  0.98643540542E+007,  0.16500000000E+002,  0.00000000000E+000,  0.10000000000E+001
  0.95948400000E+005,  0.98651846826E+007,  0.16500000000E+002,  0.00000000000E+000,  0.10000000000E+001
  0.95958400000E+005,  0.98669602793E+007,  0.16500000000E+002,  0.00000000000E+000,  0.10000000000E+001
  0.95968400000E+005,  0.98692596068E+007,  0.16500000000E+002,  0.00000000000E+000,  0.10000000000E+001
  0.95978400000E+005,  0.98739227114E+007,  0.16500000000E+002,  0.00000000000E+000,  0.10000000000E+001
  0.95988400000E+005,  0.98834517729E+007,  0.16500000000E+002,  0.00000000000E+000,  0.10000000000E+001
  0.95998400000E+005,  0.98990466183E+007,  0.16500000000E+002,  0.00000000000E+000,  0.10000000000E+001
  0.96008400000E+005,  0.98887974481E+007,  0.16500000000E+002,  0.00000000000E+000,  0.10000000000E+001
  0.96018400000E+005,  0.99278135652E+007,  0.16500000000E+002,  0.00000000000E+000,  0.10000000000E+001
  0.96028400000E+005,  0.99406303271E+007,  0.16500000000E+002,  0.00000000000E+000,  0.10000000000E+001
  0.96038400000E+005,  0.99442420973E+007,  0.16500000000E+002,  0.00000000000E+000,  0.10000000000E+001
  0.96048400000E+005,  0.99458891986E+007,  0.16500000000E+002,  0.00000000000E+000,  0.10000000000E+001
  0.96058400000E+005,  0.99455518042E+007,  0.16500000000E+002,  0.00000000000E+000,  0.10000000000E+001
  0.96068400000E+005,  0.99461982762E+007,  0.16500000000E+002,  0.00000000000E+000,  0.10000000000E+001
  0.96078400000E+005,  0.99506713533E+007,  0.16500000000E+002,  0.00000000000E+000,  0.10000000000E+001
  0.96088400000E+005,  0.99557043148E+007,  0.16500000000E+002,  0.00000000000E+000,  0.10000000000E+001
  0.96098400000E+005,  0.99647903159E+007,  0.16500000000E+002,  0.00000000000E+000,  0.10000000000E+001
  0.96108400000E+005,  0.99750709938E+007,  0.16500000000E+002,  0.00000000000E+000,  0.10000000000E+001
  0.96118400000E+005,  0.99831777893E+007,  0.16500000000E+002,  0.00000000000E+000,  0.10000000000E+001
  0.96128400000E+005,  0.99844631112E+007,  0.16500000000E+002,  0.00000000000E+000,  0.10000000000E+001
  0.96138400000E+005,  0.99827288922E+007,  0.16500000000E+002,  0.00000000000E+000,  0.10000000000E+001
  0.96148400000E+005,  0.99815323726E+007,  0.16500000000E+002,  0.00000000000E+000,  0.10000000000E+001
  0.96158400000E+005,  0.99812238193E+007,  0.16500000000E+002,  0.00000000000E+000,  0.10000000000E+001
  0.96168400000E+005,  0.99810787057E+007,  0.16500000000E+002,  0.00000000000E+000,  0.10000000000E+001
  0.96178400000E+005,  0.99806840626E+007,  0.16500000000E+002,  0.00000000000E+000,  0.10000000000E+001
  0.96188400000E+005,  0.99804196750E+007,  0.16500000000E+002,  0.00000000000E+000,  0.10000000000E+001
