"           TIME(S)","              PRES","              TEMP","             SAT_G","             SAT_L"
  0.94860000000E+005,  0.99952876317E+006,  0.16500000000E+002,  0.00000000000E+000,  0.10000000000E+001
  0.94870000000E+005,  0.99952876309E+006,  0.16500000000E+002,  0.00000000000E+000,  0.10000000000E+001
  0.94872000000E+005,  0.99952876303E+006,  0.16500000000E+002,  0.00000000000E+000,  0.10000000000E+001
  0.94874000000E+005,  0.99952876302E+006,  0.16500000000E+002,  0.00000000000E+000,  0.10000000000E+001
  0.94876000000E+005,  0.99952876301E+006,  0.16500000000E+002,  0.00000000000E+000,  0.10000000000E+001
  0.94878000000E+005,  0.99952876301E+006,  0.16500000000E+002,  0.00000000000E+000,  0.10000000000E+001
  0.94880000000E+005,  0.99952876301E+006,  0.16500000000E+002,  0.00000000000E+000,  0.10000000000E+001
  0.94882000000E+005,  0.10568987685E+007,  0.16500000000E+002,  0.00000000000E+000,  0.10000000000E+001
  0.94884000000E+005,  0.13175655645E+007,  0.16500000000E+002,  0.00000000000E+000,  0.10000000000E+001
  0.94886000000E+005,  0.15778343194E+007,  0.16500000000E+002,  0.00000000000E+000,  0.10000000000E+001
  0.94888000000E+005,  0.18377140790E+007,  0.16500000000E+002,  0.00000000000E+000,  0.10000000000E+001
  0.94890000000E+005,  0.20972112814E+007,  0.16500000000E+002,  0.00000000000E+000,  0.10000000000E+001
  0.94892000000E+005,  0.23563304369E+007,  0.16500000000E+002,  0.00000000000E+000,  0.10000000000E+001
  0.94894000000E+005,  0.26150744940E+007,  0.16500000000E+002,  0.00000000000E+000,  0.10000000000E+001
  0.94896000000E+005,  0.28734449872E+007,  0.16500000000E+002,  0.00000000000E+000,  0.10000000000E+001
  0.94898000000E+005,  0.31314421133E+007,  0.16500000000E+002,  0.00000000000E+000,  0.10000000000E+001
  0.94900000000E+005,  0.33890647315E+007,  0.16500000000E+002,  0.00000000000E+000,  0.10000000000E+001
  0.94902000000E+005,  0.36463102725E+007,  0.16500000000E+002,  0.00000000000E+000,  0.10000000000E+001
  0.94904000000E+005,  0.39031744372E+007,  0.16500000000E+002,  0.00000000000E+000,  0.10000000000E+001
  0.94906000000E+005,  0.41596508709E+007,  0.16500000000E+002,  0.00000000000E+000,  0.10000000000E+001
  0.94908000000E+005,  0.44156106340E+007,  0.16500000000E+002,  0.00000000000E+000,  0.10000000000E+001
  0.94910000000E+005,  0.46708466327E+007,  0.16500000000E+002,  0.00000000000E+000,  0.10000000000E+001
  0.94912000000E+005,  0.49250218482E+007,  0.16500000000E+002,  0.00000000000E+000,  0.10000000000E+001
  0.94914000000E+005,  0.51780179427E+007,  0.16500000000E+002,  0.00000000000E+000,  0.10000000000E+001
  0.94916000000E+005,  0.54858481237E+007,  0.16500000000E+002,  0.00000000000E+000,  0.10000000000E+001
  0.94918000000E+005,  0.58222964315E+007,  0.16500000000E+002,  0.00000000000E+000,  0.10000000000E+001
  0.94920000000E+005,  0.60813405404E+007,  0.16500000000E+002,  0.00000000000E+000,  0.10000000000E+001
  0.94922000000E+005,  0.63028501572E+007,  0.16500000000E+002,  0.00000000000E+000,  0.10000000000E+001
  0.94924000000E+005,  0.65295148253E+007,  0.16500000000E+002,  0.00000000000E+000,  0.10000000000E+001
  0.94926000000E+005,  0.68487887147E+007,  0.16500000000E+002,  0.00000000000E+000,  0.10000000000E+001
  0.94928000000E+005,  0.72290404374E+007,  0.16500000000E+002,  0.00000000000E+000,  0.10000000000E+001
  0.94930000000E+005,  0.76575161233E+007,  0.16500000000E+002,  0.00000000000E+000,  0.10000000000E+001
  0.94932000000E+005,  0.82703015658E+007,  0.16500000000E+002,  0.00000000000E+000,  0.10000000000E+001
  0.94934000000E+005,  0.90130221097E+007,  0.16500000000E+002,  0.00000000000E+000,  0.10000000000E+001
  0.94936000000E+005,  0.95110073748E+007,  0.16500000000E+002,  0.00000000000E+000,  0.10000000000E+001
  0.94938000000E+005,  0.97626447127E+007,  0.16500000000E+002,  0.00000000000E+000,  0.10000000000E+001
  0.94940000000E+005,  0.97857061968E+007,  0.16500000000E+002,  0.00000000000E+000,  0.10000000000E+001
  0.94942000000E+005,  0.96760426767E+007,  0.16500000000E+002,  0.00000000000E+000,  0.10000000000E+001
  0.94944000000E+005,  0.94770812858E+007,  0.16500000000E+002,  0.00000000000E+000,  0.10000000000E+001
  0.94946000000E+005,  0.93808526969E+007,  0.16500000000E+002,  0.00000000000E+000,  0.10000000000E+001
  0.94948000000E+005,  0.93517816407E+007,  0.16500000000E+002,  0.00000000000E+000,  0.10000000000E+001
  0.94950000000E+005,  0.91492703754E+007,  0.16500000000E+002,  0.00000000000E+000,  0.10000000000E+001
  0.94952000000E+005,  0.89331091098E+007,  0.16500000000E+002,  0.00000000000E+000,  0.10000000000E+001
  0.94954000000E+005,  0.87972182832E+007,  0.16500000000E+002,  0.00000000000E+000,  0.10000000000E+001
  0.94956000000E+005,  0.86737011909E+007,  0.16500000000E+002,  0.00000000000E+000,  0.10000000000E+001
  0.94958000000E+005,  0.85612982055E+007,  0.16500000000E+002,  0.00000000000E+000,  0.10000000000E+001
  0.94960000000E+005,  0.84982492897E+007,  0.16500000000E+002,  0.00000000000E+000,  0.10000000000E+001
  0.94962000000E+005,  0.84349481154E+007,  0.16500000000E+002,  0.00000000000E+000,  0.10000000000E+001
  0.94964000000E+005,  0.83661269098E+007,  0.16500000000E+002,  0.00000000000E+000,  0.10000000000E+001
  0.94966000000E+005,  0.83003665485E+007,  0.16500000000E+002,  0.00000000000E+000,  0.10000000000E+001
  0.94968000000E+005,  0.82497447299E+007,  0.16500000000E+002,  0.00000000000E+000,  0.10000000000E+001
  0.94970000000E+005,  0.82041988806E+007,  0.16500000000E+002,  0.00000000000E+000,  0.10000000000E+001
  0.94972000000E+005,  0.81831153164E+007,  0.16500000000E+002,  0.00000000000E+000,  0.10000000000E+001
  0.94974000000E+005,  0.81770541296E+007,  0.16500000000E+002,  0.00000000000E+000,  0.10000000000E+001
  0.94976000000E+005,  0.81598051596E+007,  0.16500000000E+002,  0.00000000000E+000,  0.10000000000E+001
  0.94978000000E+005,  0.81155478784E+007,  0.16500000000E+002,  0.00000000000E+000,  0.10000000000E+001
  0.94980000000E+005,  0.80869328292E+007,  0.16500000000E+002,  0.00000000000E+000,  0.10000000000E+001
  0.94982000000E+005,  0.80880218318E+007,  0.16500000000E+002,  0.00000000000E+000,  0.10000000000E+001
  0.94984000000E+005,  0.80787569782E+007,  0.16500000000E+002,  0.00000000000E+000,  0.10000000000E+001
  0.94986000000E+005,  0.80200428238E+007,  0.16500000000E+002,  0.00000000000E+000,  0.10000000000E+001
  0.94988000000E+005,  0.79836855525E+007,  0.16500000000E+002,  0.00000000000E+000,  0.10000000000E+001
  0.94990000000E+005,  0.79772970960E+007,  0.16500000000E+002,  0.00000000000E+000,  0.10000000000E+001
  0.94992000000E+005,  0.79786820922E+007,  0.16500000000E+002,  0.00000000000E+000,  0.10000000000E+001
  0.94994000000E+005,  0.79680922977E+007,  0.16500000000E+002,  0.00000000000E+000,  0.10000000000E+001
  0.94996000000E+005,  0.79442401121E+007,  0.16500000000E+002,  0.00000000000E+000,  0.10000000000E+001
  0.94998000000E+005,  0.78883918429E+007,  0.16500000000E+002,  0.00000000000E+000,  0.10000000000E+001
  0.95000000000E+005,  0.78479527153E+007,  0.16500000000E+002,  0.00000000000E+000,  0.10000000000E+001
  0.95010000000E+005,  0.79971503476E+007,  0.16500000000E+002,  0.00000000000E+000,  0.10000000000E+001
  0.95060000000E+005,  0.93525440676E+007,  0.16500000000E+002,  0.00000000000E+000,  0.10000000000E+001
  0.95128100000E+005,  0.10729810783E+008,  0.16500000000E+002,  0.00000000000E+000,  0.10000000000E+001
  0.95208100000E+005,  0.90333166388E+007,  0.16500000000E+002,  0.00000000000E+000,  0.10000000000E+001
  0.95288100000E+005,  0.88253149001E+007,  0.16500000000E+002,  0.00000000000E+000,  0.10000000000E+001
  0.95368100000E+005,  0.91205013861E+007,  0.16500000000E+002,  0.00000000000E+000,  0.10000000000E+001
  0.95398200000E+005,  0.87990060730E+007,  0.16500000000E+002,  0.00000000000E+000,  0.10000000000E+001
  0.95478200000E+005,  0.10594828514E+008,  0.16500000000E+002,  0.00000000000E+000,  0.10000000000E+001
  0.95558200000E+005,  0.81256413043E+007,  0.16500000000E+002,  0.00000000000E+000,  0.10000000000E+001
  0.95638200000E+005,  0.12343071448E+008,  0.16500000000E+002,  0.00000000000E+000,  0.10000000000E+001
  0.95668300000E+005,  0.90904842279E+007,  0.16500000000E+002,  0.00000000000E+000,  0.10000000000E+001
  0.95748300000E+005,  0.11127184201E+008,  0.16500000000E+002,  0.00000000000E+000,  0.10000000000E+001
  0.95828300000E+005,  0.11488572329E+008,  0.16500000000E+002,  0.00000000000E+000,  0.10000000000E+001
  0.95908300000E+005,  0.91144365992E+007,  0.16500000000E+002,  0.00000000000E+000,  0.10000000000E+001
  0.95938400000E+005,  0.11358054188E+008,  0.16500000000E+002,  0.00000000000E+000,  0.10000000000E+001
  0.96018400000E+005,  0.11399503011E+008,  0.16500000000E+002,  0.00000000000E+000,  0.10000000000E+001
  0.96098400000E+005,  0.82122607761E+007,  0.16500000000E+002,  0.00000000000E+000,  0.10000000000E+001
  0.96178400000E+005,  0.13103025399E+008,  0.16500000000E+002,  0.00000000000E+000,  0.10000000000E+001
  0.96208500000E+005,  0.97766180305E+007,  0.16500000000E+002,  0.00000000000E+000,  0.10000000000E+001
  0.96288500000E+005,  0.10095000673E+008,  0.16500000000E+002,  0.00000000000E+000,  0.10000000000E+001
  0.96368500000E+005,  0.13531866373E+008,  0.16500000000E+002,  0.00000000000E+000,  0.10000000000E+001
  0.96448500000E+005,  0.90859560199E+007,  0.16500000000E+002,  0.00000000000E+000,  0.10000000000E+001
  0.96478600000E+005,  0.11769966553E+008,  0.16500000000E+002,  0.00000000000E+000,  0.10000000000E+001
  0.96558600000E+005,  0.13967330294E+008,  0.16500000000E+002,  0.00000000000E+000,  0.10000000000E+001
  0.96638600000E+005,  0.86054616215E+007,  0.16500000000E+002,  0.00000000000E+000,  0.10000000000E+001
  0.96718600000E+005,  0.13128174225E+008,  0.16500000000E+002,  0.00000000000E+000,  0.10000000000E+001
  0.96748700000E+005,  0.13040864816E+008,  0.16500000000E+002,  0.00000000000E+000,  0.10000000000E+001
  0.96828700000E+005,  0.85783032034E+007,  0.16500000000E+002,  0.00000000000E+000,  0.10000000000E+001
  0.96908700000E+005,  0.13494429909E+008,  0.16500000000E+002,  0.00000000000E+000,  0.10000000000E+001
  0.96988700000E+005,  0.12333654644E+008,  0.16500000000E+002,  0.00000000000E+000,  0.10000000000E+001
  0.97018800000E+005,  0.85208327429E+007,  0.16500000000E+002,  0.00000000000E+000,  0.10000000000E+001
  0.97098800000E+005,  0.13956905522E+008,  0.16500000000E+002,  0.00000000000E+000,  0.10000000000E+001
  0.97178800000E+005,  0.11863918145E+008,  0.16500000000E+002,  0.00000000000E+000,  0.10000000000E+001
  0.97258800000E+005,  0.87996409387E+007,  0.16500000000E+002,  0.00000000000E+000,  0.10000000000E+001
  0.97288900000E+005,  0.13384171456E+008,  0.16500000000E+002,  0.00000000000E+000,  0.10000000000E+001
  0.97368900000E+005,  0.12161739396E+008,  0.16500000000E+002,  0.00000000000E+000,  0.10000000000E+001
  0.97448900000E+005,  0.88901804799E+007,  0.16500000000E+002,  0.00000000000E+000,  0.10000000000E+001
  0.97528900000E+005,  0.14652453270E+008,  0.16500000000E+002,  0.00000000000E+000,  0.10000000000E+001
  0.97559000000E+005,  0.11019739994E+008,  0.16500000000E+002,  0.00000000000E+000,  0.10000000000E+001
  0.97639000000E+005,  0.11373429095E+008,  0.16500000000E+002,  0.00000000000E+000,  0.10000000000E+001
  0.97719000000E+005,  0.14991554034E+008,  0.16500000000E+002,  0.00000000000E+000,  0.10000000000E+001
  0.97799000000E+005,  0.96307400696E+007,  0.16500000000E+002,  0.00000000000E+000,  0.10000000000E+001
  0.97829100000E+005,  0.12331551877E+008,  0.16500000000E+002,  0.00000000000E+000,  0.10000000000E+001
  0.97909100000E+005,  0.15038673891E+008,  0.16500000000E+002,  0.00000000000E+000,  0.10000000000E+001
  0.97989100000E+005,  0.92113963600E+007,  0.16500000000E+002,  0.00000000000E+000,  0.10000000000E+001
  0.98069100000E+005,  0.13368779631E+008,  0.16500000000E+002,  0.00000000000E+000,  0.10000000000E+001
  0.98099200000E+005,  0.14373660709E+008,  0.16500000000E+002,  0.00000000000E+000,  0.10000000000E+001
  0.98179200000E+005,  0.98382825586E+007,  0.16500000000E+002,  0.00000000000E+000,  0.10000000000E+001
  0.98259200000E+005,  0.13466368065E+008,  0.16500000000E+002,  0.00000000000E+000,  0.10000000000E+001
  0.98339200000E+005,  0.14562930278E+008,  0.16500000000E+002,  0.00000000000E+000,  0.10000000000E+001
  0.98369300000E+005,  0.93160391923E+007,  0.16500000000E+002,  0.00000000000E+000,  0.10000000000E+001
  0.98449300000E+005,  0.13589966799E+008,  0.16500000000E+002,  0.00000000000E+000,  0.10000000000E+001
  0.98529300000E+005,  0.14601194577E+008,  0.16500000000E+002,  0.00000000000E+000,  0.10000000000E+001
  0.98609300000E+005,  0.84948753140E+007,  0.16500000000E+002,  0.00000000000E+000,  0.10000000000E+001
  0.98639400000E+005,  0.12994982923E+008,  0.16500000000E+002,  0.00000000000E+000,  0.10000000000E+001
  0.98719400000E+005,  0.14753608097E+008,  0.16500000000E+002,  0.00000000000E+000,  0.10000000000E+001
  0.98799400000E+005,  0.86204010003E+007,  0.16500000000E+002,  0.00000000000E+000,  0.10000000000E+001
  0.98879400000E+005,  0.14006570361E+008,  0.16500000000E+002,  0.00000000000E+000,  0.10000000000E+001
  0.98909500000E+005,  0.13666690771E+008,  0.16500000000E+002,  0.00000000000E+000,  0.10000000000E+001
  0.98989500000E+005,  0.70362803009E+007,  0.16500000000E+002,  0.00000000000E+000,  0.10000000000E+001
  0.98991500000E+005,  0.69623950969E+007,  0.16500000000E+002,  0.00000000000E+000,  0.10000000000E+001
  0.99001500000E+005,  0.67335958742E+007,  0.16500000000E+002,  0.00000000000E+000,  0.10000000000E+001
  0.99011500000E+005,  0.65584042352E+007,  0.16500000000E+002,  0.00000000000E+000,  0.10000000000E+001
  0.99021500000E+005,  0.64155218557E+007,  0.16500000000E+002,  0.00000000000E+000,  0.10000000000E+001
  0.99031500000E+005,  0.62954197373E+007,  0.16500000000E+002,  0.00000000000E+000,  0.10000000000E+001
  0.99041500000E+005,  0.61924089280E+007,  0.16500000000E+002,  0.00000000000E+000,  0.10000000000E+001
  0.99051500000E+005,  0.61026694402E+007,  0.16500000000E+002,  0.00000000000E+000,  0.10000000000E+001
  0.99061500000E+005,  0.60234880168E+007,  0.16500000000E+002,  0.00000000000E+000,  0.10000000000E+001
  0.99071500000E+005,  0.59528710174E+007,  0.16500000000E+002,  0.00000000000E+000,  0.10000000000E+001
  0.99081500000E+005,  0.58893165957E+007,  0.16500000000E+002,  0.00000000000E+000,  0.10000000000E+001
  0.99091500000E+005,  0.58316691198E+007,  0.16500000000E+002,  0.00000000000E+000,  0.10000000000E+001
  0.99101500000E+005,  0.57790238326E+007,  0.16500000000E+002,  0.00000000000E+000,  0.10000000000E+001
  0.99111500000E+005,  0.57306608655E+007,  0.16500000000E+002,  0.00000000000E+000,  0.10000000000E+001
  0.99121500000E+005,  0.56859987579E+007,  0.16500000000E+002,  0.00000000000E+000,  0.10000000000E+001
  0.99131500000E+005,  0.56445623839E+007,  0.16500000000E+002,  0.00000000000E+000,  0.10000000000E+001
  0.99141500000E+005,  0.56059589636E+007,  0.16500000000E+002,  0.00000000000E+000,  0.10000000000E+001
  0.99151500000E+005,  0.55698597394E+007,  0.16500000000E+002,  0.00000000000E+000,  0.10000000000E+001
  0.99161500000E+005,  0.55359878182E+007,  0.16500000000E+002,  0.00000000000E+000,  0.10000000000E+001
  0.99171500000E+005,  0.55041074765E+007,  0.16500000000E+002,  0.00000000000E+000,  0.10000000000E+001
  0.99179600000E+005,  0.54794917239E+007,  0.16500000000E+002,  0.00000000000E+000,  0.10000000000E+001
  0.99189600000E+005,  0.54507418236E+007,  0.16500000000E+002,  0.00000000000E+000,  0.10000000000E+001
  0.99199600000E+005,  0.54234775437E+007,  0.16500000000E+002,  0.00000000000E+000,  0.10000000000E+001
  0.99209600000E+005,  0.53975647448E+007,  0.16500000000E+002,  0.00000000000E+000,  0.10000000000E+001
  0.99219600000E+005,  0.53728852333E+007,  0.16500000000E+002,  0.00000000000E+000,  0.10000000000E+001
  0.99229600000E+005,  0.53493344754E+007,  0.16500000000E+002,  0.00000000000E+000,  0.10000000000E+001
  0.99239600000E+005,  0.53268197376E+007,  0.16500000000E+002,  0.00000000000E+000,  0.10000000000E+001
  0.99249600000E+005,  0.53052583936E+007,  0.16500000000E+002,  0.00000000000E+000,  0.10000000000E+001
  0.99259600000E+005,  0.52845766114E+007,  0.16500000000E+002,  0.00000000000E+000,  0.10000000000E+001
  0.99269600000E+005,  0.52647081729E+007,  0.16500000000E+002,  0.00000000000E+000,  0.10000000000E+001
  0.99279600000E+005,  0.52455934930E+007,  0.16500000000E+002,  0.00000000000E+000,  0.10000000000E+001
  0.99289600000E+005,  0.52271787893E+007,  0.16500000000E+002,  0.00000000000E+000,  0.10000000000E+001
  0.99299600000E+005,  0.52094153882E+007,  0.16500000000E+002,  0.00000000000E+000,  0.10000000000E+001
  0.99309600000E+005,  0.51922591552E+007,  0.16500000000E+002,  0.00000000000E+000,  0.10000000000E+001
  0.99319600000E+005,  0.51756699630E+007,  0.16500000000E+002,  0.00000000000E+000,  0.10000000000E+001
  0.99329600000E+005,  0.51596112084E+007,  0.16500000000E+002,  0.00000000000E+000,  0.10000000000E+001
  0.99339600000E+005,  0.51440494465E+007,  0.16500000000E+002,  0.00000000000E+000,  0.10000000000E+001
  0.99349600000E+005,  0.51289540352E+007,  0.16500000000E+002,  0.00000000000E+000,  0.10000000000E+001
  0.99359600000E+005,  0.51142968718E+007,  0.16500000000E+002,  0.00000000000E+000,  0.10000000000E+001
  0.99369600000E+005,  0.51000521242E+007,  0.16500000000E+002,  0.00000000000E+000,  0.10000000000E+001
  0.99379600000E+005,  0.50861959995E+007,  0.16500000000E+002,  0.00000000000E+000,  0.10000000000E+001
  0.99389600000E+005,  0.50727065431E+007,  0.16500000000E+002,  0.00000000000E+000,  0.10000000000E+001
  0.99399600000E+005,  0.50595634624E+007,  0.16500000000E+002,  0.00000000000E+000,  0.10000000000E+001
  0.99409600000E+005,  0.50467479861E+007,  0.16500000000E+002,  0.00000000000E+000,  0.10000000000E+001
  0.99419600000E+005,  0.50342427066E+007,  0.16500000000E+002,  0.00000000000E+000,  0.10000000000E+001
  0.99429600000E+005,  0.50220314754E+007,  0.16500000000E+002,  0.00000000000E+000,  0.10000000000E+001
  0.99439600000E+005,  0.50100992840E+007,  0.16500000000E+002,  0.00000000000E+000,  0.10000000000E+001
  0.99449600000E+005,  0.49984321654E+007,  0.16500000000E+002,  0.00000000000E+000,  0.10000000000E+001
  0.99449700000E+005,  0.49983161688E+007,  0.16500000000E+002,  0.00000000000E+000,  0.10000000000E+001
  0.99459700000E+005,  0.49869034905E+007,  0.16500000000E+002,  0.00000000000E+000,  0.10000000000E+001
  0.99469700000E+005,  0.49757306968E+007,  0.16500000000E+002,  0.00000000000E+000,  0.10000000000E+001
  0.99479700000E+005,  0.49647863532E+007,  0.16500000000E+002,  0.00000000000E+000,  0.10000000000E+001
  0.99489700000E+005,  0.49540598168E+007,  0.16500000000E+002,  0.00000000000E+000,  0.10000000000E+001
  0.99499700000E+005,  0.49435411414E+007,  0.16500000000E+002,  0.00000000000E+000,  0.10000000000E+001
  0.99509700000E+005,  0.49332210067E+007,  0.16500000000E+002,  0.00000000000E+000,  0.10000000000E+001
  0.99519700000E+005,  0.49230906790E+007,  0.16500000000E+002,  0.00000000000E+000,  0.10000000000E+001
  0.99529700000E+005,  0.49131419436E+007,  0.16500000000E+002,  0.00000000000E+000,  0.10000000000E+001
  0.99539700000E+005,  0.49033670828E+007,  0.16500000000E+002,  0.00000000000E+000,  0.10000000000E+001
  0.99549700000E+005,  0.48937588342E+007,  0.16500000000E+002,  0.00000000000E+000,  0.10000000000E+001
  0.99559700000E+005,  0.48843103630E+007,  0.16500000000E+002,  0.00000000000E+000,  0.10000000000E+001
  0.99569700000E+005,  0.48750152249E+007,  0.16500000000E+002,  0.00000000000E+000,  0.10000000000E+001
  0.99579700000E+005,  0.48658673398E+007,  0.16500000000E+002,  0.00000000000E+000,  0.10000000000E+001
  0.99589700000E+005,  0.48568609680E+007,  0.16500000000E+002,  0.00000000000E+000,  0.10000000000E+001
