"           TIME(S)","              PRES","              TEMP","             SAT_G","             SAT_L"
  0.94900000000E+005,  0.18190561985E+007,  0.16500000000E+002,  0.00000000000E+000,  0.10000000000E+001
  0.94902500000E+005,  0.28404468370E+007,  0.16500000000E+002,  0.00000000000E+000,  0.10000000000E+001
  0.94905000000E+005,  0.38521592859E+007,  0.16500000000E+002,  0.00000000000E+000,  0.10000000000E+001
  0.94907500000E+005,  0.48507555132E+007,  0.16500000000E+002,  0.00000000000E+000,  0.10000000000E+001
  0.94910000000E+005,  0.58305701639E+007,  0.16500000000E+002,  0.00000000000E+000,  0.10000000000E+001
  0.94912500000E+005,  0.67750797432E+007,  0.16500000000E+002,  0.00000000000E+000,  0.10000000000E+001
  0.94915000000E+005,  0.76424133557E+007,  0.16500000000E+002,  0.00000000000E+000,  0.10000000000E+001
  0.94917500000E+005,  0.87421028064E+007,  0.16500000000E+002,  0.00000000000E+000,  0.10000000000E+001
  0.94920000000E+005,  0.89910631166E+007,  0.16500000000E+002,  0.00000000000E+000,  0.10000000000E+001
  0.94922500000E+005,  0.87922541942E+007,  0.16500000000E+002,  0.00000000000E+000,  0.10000000000E+001
  0.94925000000E+005,  0.89707935524E+007,  0.16500000000E+002,  0.00000000000E+000,  0.10000000000E+001
  0.94927500000E+005,  0.92726322393E+007,  0.16500000000E+002,  0.00000000000E+000,  0.10000000000E+001
  0.94930000000E+005,  0.95483335189E+007,  0.16500000000E+002,  0.00000000000E+000,  0.10000000000E+001
  0.94932500000E+005,  0.10152181080E+008,  0.16500000000E+002,  0.00000000000E+000,  0.10000000000E+001
  0.94935000000E+005,  0.10735452798E+008,  0.16500000000E+002,  0.00000000000E+000,  0.10000000000E+001
  0.94937500000E+005,  0.10558846243E+008,  0.16500000000E+002,  0.00000000000E+000,  0.10000000000E+001
  0.94940000000E+005,  0.10243574353E+008,  0.16500000000E+002,  0.00000000000E+000,  0.10000000000E+001
  0.94942500000E+005,  0.99811108129E+007,  0.16500000000E+002,  0.00000000000E+000,  0.10000000000E+001
  0.94945000000E+005,  0.97153460052E+007,  0.16500000000E+002,  0.00000000000E+000,  0.10000000000E+001
  0.94947500000E+005,  0.96540883303E+007,  0.16500000000E+002,  0.00000000000E+000,  0.10000000000E+001
  0.94950000000E+005,  0.94609759587E+007,  0.16500000000E+002,  0.00000000000E+000,  0.10000000000E+001
  0.94952500000E+005,  0.92949735616E+007,  0.16500000000E+002,  0.00000000000E+000,  0.10000000000E+001
  0.94955000000E+005,  0.92087213696E+007,  0.16500000000E+002,  0.00000000000E+000,  0.10000000000E+001
  0.94957500000E+005,  0.91202185771E+007,  0.16500000000E+002,  0.00000000000E+000,  0.10000000000E+001
  0.94960000000E+005,  0.90553715888E+007,  0.16500000000E+002,  0.00000000000E+000,  0.10000000000E+001
  0.94962500000E+005,  0.89740236978E+007,  0.16500000000E+002,  0.00000000000E+000,  0.10000000000E+001
  0.94965000000E+005,  0.88793789438E+007,  0.16500000000E+002,  0.00000000000E+000,  0.10000000000E+001
  0.94967500000E+005,  0.87856116991E+007,  0.16500000000E+002,  0.00000000000E+000,  0.10000000000E+001
  0.94970000000E+005,  0.87001978066E+007,  0.16500000000E+002,  0.00000000000E+000,  0.10000000000E+001
  0.94972500000E+005,  0.86188360135E+007,  0.16500000000E+002,  0.00000000000E+000,  0.10000000000E+001
  0.94975000000E+005,  0.85697714378E+007,  0.16500000000E+002,  0.00000000000E+000,  0.10000000000E+001
  0.94977500000E+005,  0.85330587537E+007,  0.16500000000E+002,  0.00000000000E+000,  0.10000000000E+001
  0.94980000000E+005,  0.84968584885E+007,  0.16500000000E+002,  0.00000000000E+000,  0.10000000000E+001
  0.94982500000E+005,  0.84692093769E+007,  0.16500000000E+002,  0.00000000000E+000,  0.10000000000E+001
  0.94985000000E+005,  0.84489130162E+007,  0.16500000000E+002,  0.00000000000E+000,  0.10000000000E+001
  0.94987500000E+005,  0.84349077811E+007,  0.16500000000E+002,  0.00000000000E+000,  0.10000000000E+001
  0.94990000000E+005,  0.84119100417E+007,  0.16500000000E+002,  0.00000000000E+000,  0.10000000000E+001
  0.94992500000E+005,  0.83749670174E+007,  0.16500000000E+002,  0.00000000000E+000,  0.10000000000E+001
  0.94995000000E+005,  0.83641974720E+007,  0.16500000000E+002,  0.00000000000E+000,  0.10000000000E+001
  0.94997500000E+005,  0.83235542121E+007,  0.16500000000E+002,  0.00000000000E+000,  0.10000000000E+001
  0.95000000000E+005,  0.82903299768E+007,  0.16500000000E+002,  0.00000000000E+000,  0.10000000000E+001
  0.95002000000E+005,  0.82605211152E+007,  0.16500000000E+002,  0.00000000000E+000,  0.10000000000E+001
  0.95012000000E+005,  0.84030150064E+007,  0.16500000000E+002,  0.00000000000E+000,  0.10000000000E+001
  0.95022000000E+005,  0.83688303310E+007,  0.16500000000E+002,  0.00000000000E+000,  0.10000000000E+001
  0.95032000000E+005,  0.81919996045E+007,  0.16500000000E+002,  0.00000000000E+000,  0.10000000000E+001
  0.95042000000E+005,  0.80813375750E+007,  0.16500000000E+002,  0.00000000000E+000,  0.10000000000E+001
  0.95052000000E+005,  0.80378632338E+007,  0.16500000000E+002,  0.00000000000E+000,  0.10000000000E+001
  0.95062000000E+005,  0.79756289569E+007,  0.16500000000E+002,  0.00000000000E+000,  0.10000000000E+001
  0.95072000000E+005,  0.78949950145E+007,  0.16500000000E+002,  0.00000000000E+000,  0.10000000000E+001
  0.95082000000E+005,  0.78447068732E+007,  0.16500000000E+002,  0.00000000000E+000,  0.10000000000E+001
  0.95092000000E+005,  0.78247159843E+007,  0.16500000000E+002,  0.00000000000E+000,  0.10000000000E+001
  0.95102000000E+005,  0.78201404788E+007,  0.16500000000E+002,  0.00000000000E+000,  0.10000000000E+001
  0.95112000000E+005,  0.78223325892E+007,  0.16500000000E+002,  0.00000000000E+000,  0.10000000000E+001
  0.95122000000E+005,  0.78274404040E+007,  0.16500000000E+002,  0.00000000000E+000,  0.10000000000E+001
  0.95128100000E+005,  0.78052527095E+007,  0.16500000000E+002,  0.00000000000E+000,  0.10000000000E+001
  0.95138100000E+005,  0.78094677094E+007,  0.16500000000E+002,  0.00000000000E+000,  0.10000000000E+001
  0.95148100000E+005,  0.77983936473E+007,  0.16500000000E+002,  0.00000000000E+000,  0.10000000000E+001
  0.95158100000E+005,  0.77767028658E+007,  0.16500000000E+002,  0.00000000000E+000,  0.10000000000E+001
  0.95168100000E+005,  0.77502009188E+007,  0.16500000000E+002,  0.00000000000E+000,  0.10000000000E+001
  0.95178100000E+005,  0.77333504332E+007,  0.16500000000E+002,  0.00000000000E+000,  0.10000000000E+001
  0.95188100000E+005,  0.77386783405E+007,  0.16500000000E+002,  0.00000000000E+000,  0.10000000000E+001
  0.95198100000E+005,  0.77670943200E+007,  0.16500000000E+002,  0.00000000000E+000,  0.10000000000E+001
  0.95208100000E+005,  0.78037592380E+007,  0.16500000000E+002,  0.00000000000E+000,  0.10000000000E+001
  0.95218100000E+005,  0.78457429432E+007,  0.16500000000E+002,  0.00000000000E+000,  0.10000000000E+001
  0.95228100000E+005,  0.78727683248E+007,  0.16500000000E+002,  0.00000000000E+000,  0.10000000000E+001
  0.95238100000E+005,  0.78791144122E+007,  0.16500000000E+002,  0.00000000000E+000,  0.10000000000E+001
  0.95248100000E+005,  0.78848981671E+007,  0.16500000000E+002,  0.00000000000E+000,  0.10000000000E+001
  0.95258100000E+005,  0.78887560415E+007,  0.16500000000E+002,  0.00000000000E+000,  0.10000000000E+001
  0.95268100000E+005,  0.78872779054E+007,  0.16500000000E+002,  0.00000000000E+000,  0.10000000000E+001
  0.95278100000E+005,  0.78740767544E+007,  0.16500000000E+002,  0.00000000000E+000,  0.10000000000E+001
  0.95288100000E+005,  0.78543407628E+007,  0.16500000000E+002,  0.00000000000E+000,  0.10000000000E+001
  0.95298100000E+005,  0.78358430539E+007,  0.16500000000E+002,  0.00000000000E+000,  0.10000000000E+001
  0.95308100000E+005,  0.78198451493E+007,  0.16500000000E+002,  0.00000000000E+000,  0.10000000000E+001
  0.95318100000E+005,  0.78039520870E+007,  0.16500000000E+002,  0.00000000000E+000,  0.10000000000E+001
  0.95328100000E+005,  0.77888762826E+007,  0.16500000000E+002,  0.00000000000E+000,  0.10000000000E+001
  0.95338100000E+005,  0.77746122079E+007,  0.16500000000E+002,  0.00000000000E+000,  0.10000000000E+001
  0.95348100000E+005,  0.77578931335E+007,  0.16500000000E+002,  0.00000000000E+000,  0.10000000000E+001
  0.95358100000E+005,  0.77403818022E+007,  0.16500000000E+002,  0.00000000000E+000,  0.10000000000E+001
  0.95368100000E+005,  0.77338299947E+007,  0.16500000000E+002,  0.00000000000E+000,  0.10000000000E+001
  0.95378100000E+005,  0.77236947948E+007,  0.16500000000E+002,  0.00000000000E+000,  0.10000000000E+001
  0.95388100000E+005,  0.77055738393E+007,  0.16500000000E+002,  0.00000000000E+000,  0.10000000000E+001
  0.95398100000E+005,  0.76845522147E+007,  0.16500000000E+002,  0.00000000000E+000,  0.10000000000E+001
  0.95398200000E+005,  0.76849123642E+007,  0.16500000000E+002,  0.00000000000E+000,  0.10000000000E+001
  0.95408200000E+005,  0.76638653907E+007,  0.16500000000E+002,  0.00000000000E+000,  0.10000000000E+001
  0.95418200000E+005,  0.76467542752E+007,  0.16500000000E+002,  0.00000000000E+000,  0.10000000000E+001
  0.95428200000E+005,  0.76310115635E+007,  0.16500000000E+002,  0.00000000000E+000,  0.10000000000E+001
  0.95438200000E+005,  0.76156596357E+007,  0.16500000000E+002,  0.00000000000E+000,  0.10000000000E+001
  0.95448200000E+005,  0.76029746368E+007,  0.16500000000E+002,  0.00000000000E+000,  0.10000000000E+001
  0.95458200000E+005,  0.75935242694E+007,  0.16500000000E+002,  0.00000000000E+000,  0.10000000000E+001
  0.95468200000E+005,  0.75844480571E+007,  0.16500000000E+002,  0.00000000000E+000,  0.10000000000E+001
  0.95478200000E+005,  0.75746240058E+007,  0.16500000000E+002,  0.00000000000E+000,  0.10000000000E+001
  0.95488200000E+005,  0.75652306757E+007,  0.16500000000E+002,  0.00000000000E+000,  0.10000000000E+001
  0.95498200000E+005,  0.75569704199E+007,  0.16500000000E+002,  0.00000000000E+000,  0.10000000000E+001
  0.95508200000E+005,  0.75489530442E+007,  0.16500000000E+002,  0.00000000000E+000,  0.10000000000E+001
  0.95518200000E+005,  0.75403974178E+007,  0.16500000000E+002,  0.00000000000E+000,  0.10000000000E+001
  0.95528200000E+005,  0.75310818941E+007,  0.16500000000E+002,  0.00000000000E+000,  0.10000000000E+001
  0.95538200000E+005,  0.75213218433E+007,  0.16500000000E+002,  0.00000000000E+000,  0.10000000000E+001
  0.95548200000E+005,  0.75112462623E+007,  0.16500000000E+002,  0.00000000000E+000,  0.10000000000E+001
  0.95558200000E+005,  0.75014358378E+007,  0.16500000000E+002,  0.00000000000E+000,  0.10000000000E+001
  0.95568200000E+005,  0.74920839869E+007,  0.16500000000E+002,  0.00000000000E+000,  0.10000000000E+001
  0.95578200000E+005,  0.74830925482E+007,  0.16500000000E+002,  0.00000000000E+000,  0.10000000000E+001
  0.95588200000E+005,  0.74745133573E+007,  0.16500000000E+002,  0.00000000000E+000,  0.10000000000E+001
  0.95598200000E+005,  0.74658963291E+007,  0.16500000000E+002,  0.00000000000E+000,  0.10000000000E+001
  0.95608200000E+005,  0.74571939125E+007,  0.16500000000E+002,  0.00000000000E+000,  0.10000000000E+001
  0.95618200000E+005,  0.74491160730E+007,  0.16500000000E+002,  0.00000000000E+000,  0.10000000000E+001
  0.95628200000E+005,  0.74424496240E+007,  0.16500000000E+002,  0.00000000000E+000,  0.10000000000E+001
  0.95638200000E+005,  0.74381971181E+007,  0.16500000000E+002,  0.00000000000E+000,  0.10000000000E+001
  0.95648200000E+005,  0.74349473948E+007,  0.16500000000E+002,  0.00000000000E+000,  0.10000000000E+001
  0.95658200000E+005,  0.74303234471E+007,  0.16500000000E+002,  0.00000000000E+000,  0.10000000000E+001
  0.95668200000E+005,  0.74235923204E+007,  0.16500000000E+002,  0.00000000000E+000,  0.10000000000E+001
  0.95668300000E+005,  0.74236312586E+007,  0.16500000000E+002,  0.00000000000E+000,  0.10000000000E+001
  0.95678300000E+005,  0.74153695163E+007,  0.16500000000E+002,  0.00000000000E+000,  0.10000000000E+001
  0.95688300000E+005,  0.74071003831E+007,  0.16500000000E+002,  0.00000000000E+000,  0.10000000000E+001
  0.95698300000E+005,  0.74014483378E+007,  0.16500000000E+002,  0.00000000000E+000,  0.10000000000E+001
  0.95708300000E+005,  0.73989717623E+007,  0.16500000000E+002,  0.00000000000E+000,  0.10000000000E+001
  0.95718300000E+005,  0.73956966281E+007,  0.16500000000E+002,  0.00000000000E+000,  0.10000000000E+001
  0.95728300000E+005,  0.73918397042E+007,  0.16500000000E+002,  0.00000000000E+000,  0.10000000000E+001
  0.95738300000E+005,  0.73884339593E+007,  0.16500000000E+002,  0.00000000000E+000,  0.10000000000E+001
  0.95748300000E+005,  0.73850083350E+007,  0.16500000000E+002,  0.00000000000E+000,  0.10000000000E+001
  0.95758300000E+005,  0.73815145064E+007,  0.16500000000E+002,  0.00000000000E+000,  0.10000000000E+001
  0.95768300000E+005,  0.73775704253E+007,  0.16500000000E+002,  0.00000000000E+000,  0.10000000000E+001
  0.95778300000E+005,  0.73731485316E+007,  0.16500000000E+002,  0.00000000000E+000,  0.10000000000E+001
  0.95788300000E+005,  0.73688378543E+007,  0.16500000000E+002,  0.00000000000E+000,  0.10000000000E+001
  0.95798300000E+005,  0.73646139771E+007,  0.16500000000E+002,  0.00000000000E+000,  0.10000000000E+001
  0.95808300000E+005,  0.73603049997E+007,  0.16500000000E+002,  0.00000000000E+000,  0.10000000000E+001
  0.95818300000E+005,  0.73556651873E+007,  0.16500000000E+002,  0.00000000000E+000,  0.10000000000E+001
  0.95828300000E+005,  0.73508607608E+007,  0.16500000000E+002,  0.00000000000E+000,  0.10000000000E+001
  0.95838300000E+005,  0.73460218752E+007,  0.16500000000E+002,  0.00000000000E+000,  0.10000000000E+001
  0.95848300000E+005,  0.73418869670E+007,  0.16500000000E+002,  0.00000000000E+000,  0.10000000000E+001
  0.95858300000E+005,  0.73387314227E+007,  0.16500000000E+002,  0.00000000000E+000,  0.10000000000E+001
  0.95868300000E+005,  0.73359134697E+007,  0.16500000000E+002,  0.00000000000E+000,  0.10000000000E+001
  0.95878300000E+005,  0.73330779601E+007,  0.16500000000E+002,  0.00000000000E+000,  0.10000000000E+001
  0.95888300000E+005,  0.73301707004E+007,  0.16500000000E+002,  0.00000000000E+000,  0.10000000000E+001
  0.95898300000E+005,  0.73273421533E+007,  0.16500000000E+002,  0.00000000000E+000,  0.10000000000E+001
  0.95908300000E+005,  0.73246196872E+007,  0.16500000000E+002,  0.00000000000E+000,  0.10000000000E+001
  0.95918300000E+005,  0.73213507683E+007,  0.16500000000E+002,  0.00000000000E+000,  0.10000000000E+001
  0.95928300000E+005,  0.73175631497E+007,  0.16500000000E+002,  0.00000000000E+000,  0.10000000000E+001
  0.95938300000E+005,  0.73135668256E+007,  0.16500000000E+002,  0.00000000000E+000,  0.10000000000E+001
  0.95938400000E+005,  0.73140632744E+007,  0.16500000000E+002,  0.00000000000E+000,  0.10000000000E+001
  0.95948400000E+005,  0.73097093768E+007,  0.16500000000E+002,  0.00000000000E+000,  0.10000000000E+001
  0.95958400000E+005,  0.73058640504E+007,  0.16500000000E+002,  0.00000000000E+000,  0.10000000000E+001
  0.95968400000E+005,  0.73021068866E+007,  0.16500000000E+002,  0.00000000000E+000,  0.10000000000E+001
  0.95978400000E+005,  0.72986032803E+007,  0.16500000000E+002,  0.00000000000E+000,  0.10000000000E+001
  0.95988400000E+005,  0.72953457296E+007,  0.16500000000E+002,  0.00000000000E+000,  0.10000000000E+001
  0.95998400000E+005,  0.72919399399E+007,  0.16500000000E+002,  0.00000000000E+000,  0.10000000000E+001
  0.96008400000E+005,  0.72766872852E+007,  0.16500000000E+002,  0.00000000000E+000,  0.10000000000E+001
  0.96018400000E+005,  0.72705923703E+007,  0.16500000000E+002,  0.00000000000E+000,  0.10000000000E+001
  0.96028400000E+005,  0.72674534293E+007,  0.16500000000E+002,  0.00000000000E+000,  0.10000000000E+001
  0.96038400000E+005,  0.72647961770E+007,  0.16500000000E+002,  0.00000000000E+000,  0.10000000000E+001
  0.96048400000E+005,  0.72620576611E+007,  0.16500000000E+002,  0.00000000000E+000,  0.10000000000E+001
  0.96058400000E+005,  0.72589022453E+007,  0.16500000000E+002,  0.00000000000E+000,  0.10000000000E+001
  0.96068400000E+005,  0.72554922371E+007,  0.16500000000E+002,  0.00000000000E+000,  0.10000000000E+001
  0.96078400000E+005,  0.72519840227E+007,  0.16500000000E+002,  0.00000000000E+000,  0.10000000000E+001
  0.96088400000E+005,  0.72484465963E+007,  0.16500000000E+002,  0.00000000000E+000,  0.10000000000E+001
  0.96098400000E+005,  0.72449826445E+007,  0.16500000000E+002,  0.00000000000E+000,  0.10000000000E+001
  0.96108400000E+005,  0.72415624420E+007,  0.16500000000E+002,  0.00000000000E+000,  0.10000000000E+001
  0.96118400000E+005,  0.72381730282E+007,  0.16500000000E+002,  0.00000000000E+000,  0.10000000000E+001
  0.96128400000E+005,  0.72349266637E+007,  0.16500000000E+002,  0.00000000000E+000,  0.10000000000E+001
  0.96138400000E+005,  0.72317876725E+007,  0.16500000000E+002,  0.00000000000E+000,  0.10000000000E+001
