"           TIME(S)","              PRES","              TEMP","             SAT_G","             SAT_L"
  0.94882000000E+005,  0.99753534076E+006,  0.16500000000E+002,  0.00000000000E+000,  0.10000000000E+001
  0.94883000000E+005,  0.99759289792E+006,  0.16500000000E+002,  0.00000000000E+000,  0.10000000000E+001
  0.94884000000E+005,  0.99769024406E+006,  0.16500000000E+002,  0.00000000000E+000,  0.10000000000E+001
  0.94884200000E+005,  0.99771130295E+006,  0.16500000000E+002,  0.00000000000E+000,  0.10000000000E+001
  0.94885200000E+005,  0.99785612834E+006,  0.16500000000E+002,  0.00000000000E+000,  0.10000000000E+001
  0.94886200000E+005,  0.99804027444E+006,  0.16500000000E+002,  0.00000000000E+000,  0.10000000000E+001
  0.94887200000E+005,  0.99826353427E+006,  0.16500000000E+002,  0.00000000000E+000,  0.10000000000E+001
  0.94888200000E+005,  0.99852570280E+006,  0.16500000000E+002,  0.00000000000E+000,  0.10000000000E+001
  0.94889200000E+005,  0.99882657675E+006,  0.16500000000E+002,  0.00000000000E+000,  0.10000000000E+001
  0.94890200000E+005,  0.99916595432E+006,  0.16500000000E+002,  0.00000000000E+000,  0.10000000000E+001
  0.94890700000E+005,  0.99934524217E+006,  0.16500000000E+002,  0.00000000000E+000,  0.10000000000E+001
  0.94891700000E+005,  0.99974202027E+006,  0.16500000000E+002,  0.00000000000E+000,  0.10000000000E+001
  0.94892700000E+005,  0.10001768012E+007,  0.16500000000E+002,  0.00000000000E+000,  0.10000000000E+001
  0.94893700000E+005,  0.10006493860E+007,  0.16500000000E+002,  0.00000000000E+000,  0.10000000000E+001
  0.94894700000E+005,  0.10011595756E+007,  0.16500000000E+002,  0.00000000000E+000,  0.10000000000E+001
  0.94895700000E+005,  0.10017071712E+007,  0.16500000000E+002,  0.00000000000E+000,  0.10000000000E+001
  0.94896700000E+005,  0.10022919739E+007,  0.16500000000E+002,  0.00000000000E+000,  0.10000000000E+001
  0.94897300000E+005,  0.10026562029E+007,  0.16500000000E+002,  0.00000000000E+000,  0.10000000000E+001
  0.94898000000E+005,  0.10030992367E+007,  0.16500000000E+002,  0.00000000000E+000,  0.10000000000E+001
  0.94899000000E+005,  0.10037688895E+007,  0.16500000000E+002,  0.00000000000E+000,  0.10000000000E+001
  0.94900000000E+005,  0.10044750883E+007,  0.16500000000E+002,  0.00000000000E+000,  0.10000000000E+001
  0.94901000000E+005,  0.10052176311E+007,  0.16500000000E+002,  0.00000000000E+000,  0.10000000000E+001
  0.94902000000E+005,  0.10059963143E+007,  0.16500000000E+002,  0.00000000000E+000,  0.10000000000E+001
  0.94903000000E+005,  0.10068109328E+007,  0.16500000000E+002,  0.00000000000E+000,  0.10000000000E+001
  0.94903900000E+005,  0.10075730426E+007,  0.16500000000E+002,  0.00000000000E+000,  0.10000000000E+001
  0.94904900000E+005,  0.10084553718E+007,  0.16500000000E+002,  0.00000000000E+000,  0.10000000000E+001
  0.94905900000E+005,  0.10093730311E+007,  0.16500000000E+002,  0.00000000000E+000,  0.10000000000E+001
  0.94906900000E+005,  0.10103258071E+007,  0.16500000000E+002,  0.00000000000E+000,  0.10000000000E+001
  0.94907900000E+005,  0.10113134838E+007,  0.16500000000E+002,  0.00000000000E+000,  0.10000000000E+001
  0.94908900000E+005,  0.10123358423E+007,  0.16500000000E+002,  0.00000000000E+000,  0.10000000000E+001
  0.94909900000E+005,  0.10133926607E+007,  0.16500000000E+002,  0.00000000000E+000,  0.10000000000E+001
  0.94910400000E+005,  0.10139296467E+007,  0.16500000000E+002,  0.00000000000E+000,  0.10000000000E+001
  0.94911400000E+005,  0.10150377394E+007,  0.16500000000E+002,  0.00000000000E+000,  0.10000000000E+001
  0.94912400000E+005,  0.10161796550E+007,  0.16500000000E+002,  0.00000000000E+000,  0.10000000000E+001
  0.94913400000E+005,  0.10173551230E+007,  0.16500000000E+002,  0.00000000000E+000,  0.10000000000E+001
  0.94914400000E+005,  0.10185629594E+007,  0.16500000000E+002,  0.00000000000E+000,  0.10000000000E+001
  0.94915400000E+005,  0.10198018912E+007,  0.16500000000E+002,  0.00000000000E+000,  0.10000000000E+001
  0.94916400000E+005,  0.10211039476E+007,  0.16500000000E+002,  0.00000000000E+000,  0.10000000000E+001
  0.94917000000E+005,  0.10218994633E+007,  0.16500000000E+002,  0.00000000000E+000,  0.10000000000E+001
  0.94918000000E+005,  0.10232574760E+007,  0.16500000000E+002,  0.00000000000E+000,  0.10000000000E+001
  0.94919000000E+005,  0.10246482451E+007,  0.16500000000E+002,  0.00000000000E+000,  0.10000000000E+001
  0.94920000000E+005,  0.10260711611E+007,  0.16500000000E+002,  0.00000000000E+000,  0.10000000000E+001
  0.94921000000E+005,  0.10275223534E+007,  0.16500000000E+002,  0.00000000000E+000,  0.10000000000E+001
  0.94922000000E+005,  0.10289959350E+007,  0.16500000000E+002,  0.00000000000E+000,  0.10000000000E+001
  0.94923000000E+005,  0.10304887108E+007,  0.16500000000E+002,  0.00000000000E+000,  0.10000000000E+001
  0.94923500000E+005,  0.10312394136E+007,  0.16500000000E+002,  0.00000000000E+000,  0.10000000000E+001
  0.94924500000E+005,  0.10327885274E+007,  0.16500000000E+002,  0.00000000000E+000,  0.10000000000E+001
  0.94925500000E+005,  0.10343735224E+007,  0.16500000000E+002,  0.00000000000E+000,  0.10000000000E+001
  0.94926500000E+005,  0.10359912207E+007,  0.16500000000E+002,  0.00000000000E+000,  0.10000000000E+001
  0.94927500000E+005,  0.10376574787E+007,  0.16500000000E+002,  0.00000000000E+000,  0.10000000000E+001
  0.94928500000E+005,  0.10393652813E+007,  0.16500000000E+002,  0.00000000000E+000,  0.10000000000E+001
  0.94929500000E+005,  0.10411171444E+007,  0.16500000000E+002,  0.00000000000E+000,  0.10000000000E+001
  0.94930100000E+005,  0.10421921116E+007,  0.16500000000E+002,  0.00000000000E+000,  0.10000000000E+001
  0.94931100000E+005,  0.10440649317E+007,  0.16500000000E+002,  0.00000000000E+000,  0.10000000000E+001
  0.94932100000E+005,  0.10460326507E+007,  0.16500000000E+002,  0.00000000000E+000,  0.10000000000E+001
  0.94933100000E+005,  0.10481066576E+007,  0.16500000000E+002,  0.00000000000E+000,  0.10000000000E+001
  0.94934100000E+005,  0.10502878949E+007,  0.16500000000E+002,  0.00000000000E+000,  0.10000000000E+001
  0.94935100000E+005,  0.10525398828E+007,  0.16500000000E+002,  0.00000000000E+000,  0.10000000000E+001
  0.94936100000E+005,  0.10548150033E+007,  0.16500000000E+002,  0.00000000000E+000,  0.10000000000E+001
  0.94936600000E+005,  0.10559425067E+007,  0.16500000000E+002,  0.00000000000E+000,  0.10000000000E+001
  0.94937600000E+005,  0.10581909214E+007,  0.16500000000E+002,  0.00000000000E+000,  0.10000000000E+001
  0.94938600000E+005,  0.10603982022E+007,  0.16500000000E+002,  0.00000000000E+000,  0.10000000000E+001
  0.94939600000E+005,  0.10625554004E+007,  0.16500000000E+002,  0.00000000000E+000,  0.10000000000E+001
  0.94940600000E+005,  0.10646990828E+007,  0.16500000000E+002,  0.00000000000E+000,  0.10000000000E+001
  0.94941600000E+005,  0.10668262767E+007,  0.16500000000E+002,  0.00000000000E+000,  0.10000000000E+001
  0.94942600000E+005,  0.10689186044E+007,  0.16500000000E+002,  0.00000000000E+000,  0.10000000000E+001
  0.94943200000E+005,  0.10701519367E+007,  0.16500000000E+002,  0.00000000000E+000,  0.10000000000E+001
  0.94944200000E+005,  0.10721650219E+007,  0.16500000000E+002,  0.00000000000E+000,  0.10000000000E+001
  0.94945200000E+005,  0.10741219706E+007,  0.16500000000E+002,  0.00000000000E+000,  0.10000000000E+001
  0.94946200000E+005,  0.10760323294E+007,  0.16500000000E+002,  0.00000000000E+000,  0.10000000000E+001
  0.94947200000E+005,  0.10778995164E+007,  0.16500000000E+002,  0.00000000000E+000,  0.10000000000E+001
  0.94948200000E+005,  0.10797276329E+007,  0.16500000000E+002,  0.00000000000E+000,  0.10000000000E+001
  0.94949200000E+005,  0.10815189439E+007,  0.16500000000E+002,  0.00000000000E+000,  0.10000000000E+001
  0.94949800000E+005,  0.10825752589E+007,  0.16500000000E+002,  0.00000000000E+000,  0.10000000000E+001
  0.94950800000E+005,  0.10842936814E+007,  0.16500000000E+002,  0.00000000000E+000,  0.10000000000E+001
  0.94951800000E+005,  0.10859795941E+007,  0.16500000000E+002,  0.00000000000E+000,  0.10000000000E+001
  0.94952800000E+005,  0.10876493903E+007,  0.16500000000E+002,  0.00000000000E+000,  0.10000000000E+001
  0.94953800000E+005,  0.10893127276E+007,  0.16500000000E+002,  0.00000000000E+000,  0.10000000000E+001
  0.94954800000E+005,  0.10909718006E+007,  0.16500000000E+002,  0.00000000000E+000,  0.10000000000E+001
  0.94955800000E+005,  0.10926259063E+007,  0.16500000000E+002,  0.00000000000E+000,  0.10000000000E+001
  0.94956300000E+005,  0.10934513329E+007,  0.16500000000E+002,  0.00000000000E+000,  0.10000000000E+001
  0.94957300000E+005,  0.10951083636E+007,  0.16500000000E+002,  0.00000000000E+000,  0.10000000000E+001
  0.94958300000E+005,  0.10967710069E+007,  0.16500000000E+002,  0.00000000000E+000,  0.10000000000E+001
  0.94959300000E+005,  0.10984373645E+007,  0.16500000000E+002,  0.00000000000E+000,  0.10000000000E+001
  0.94960300000E+005,  0.11001064615E+007,  0.16500000000E+002,  0.00000000000E+000,  0.10000000000E+001
  0.94961300000E+005,  0.11017760647E+007,  0.16500000000E+002,  0.00000000000E+000,  0.10000000000E+001
  0.94962300000E+005,  0.11034428488E+007,  0.16500000000E+002,  0.00000000000E+000,  0.10000000000E+001
  0.94962900000E+005,  0.11044402650E+007,  0.16500000000E+002,  0.00000000000E+000,  0.10000000000E+001
  0.94963900000E+005,  0.11060949712E+007,  0.16500000000E+002,  0.00000000000E+000,  0.10000000000E+001
  0.94964900000E+005,  0.11077413604E+007,  0.16500000000E+002,  0.00000000000E+000,  0.10000000000E+001
  0.94965900000E+005,  0.11093796832E+007,  0.16500000000E+002,  0.00000000000E+000,  0.10000000000E+001
  0.94966900000E+005,  0.11110111527E+007,  0.16500000000E+002,  0.00000000000E+000,  0.10000000000E+001
  0.94967900000E+005,  0.11126367265E+007,  0.16500000000E+002,  0.00000000000E+000,  0.10000000000E+001
  0.94968900000E+005,  0.11142550331E+007,  0.16500000000E+002,  0.00000000000E+000,  0.10000000000E+001
  0.94969400000E+005,  0.11150614810E+007,  0.16500000000E+002,  0.00000000000E+000,  0.10000000000E+001
  0.94970400000E+005,  0.11166685546E+007,  0.16500000000E+002,  0.00000000000E+000,  0.10000000000E+001
  0.94971400000E+005,  0.11182680642E+007,  0.16500000000E+002,  0.00000000000E+000,  0.10000000000E+001
  0.94972400000E+005,  0.11198574635E+007,  0.16500000000E+002,  0.00000000000E+000,  0.10000000000E+001
  0.94973400000E+005,  0.11214358027E+007,  0.16500000000E+002,  0.00000000000E+000,  0.10000000000E+001
  0.94974400000E+005,  0.11230040406E+007,  0.16500000000E+002,  0.00000000000E+000,  0.10000000000E+001
  0.94975400000E+005,  0.11245623287E+007,  0.16500000000E+002,  0.00000000000E+000,  0.10000000000E+001
  0.94976000000E+005,  0.11254924393E+007,  0.16500000000E+002,  0.00000000000E+000,  0.10000000000E+001
  0.94977000000E+005,  0.11270309575E+007,  0.16500000000E+002,  0.00000000000E+000,  0.10000000000E+001
  0.94978000000E+005,  0.11285573415E+007,  0.16500000000E+002,  0.00000000000E+000,  0.10000000000E+001
  0.94979000000E+005,  0.11300703082E+007,  0.16500000000E+002,  0.00000000000E+000,  0.10000000000E+001
  0.94980000000E+005,  0.11315662422E+007,  0.16500000000E+002,  0.00000000000E+000,  0.10000000000E+001
  0.94981000000E+005,  0.11330413440E+007,  0.16500000000E+002,  0.00000000000E+000,  0.10000000000E+001
  0.94982000000E+005,  0.11344972044E+007,  0.16500000000E+002,  0.00000000000E+000,  0.10000000000E+001
  0.94983000000E+005,  0.11359381432E+007,  0.16500000000E+002,  0.00000000000E+000,  0.10000000000E+001
  0.94984000000E+005,  0.11373682091E+007,  0.16500000000E+002,  0.00000000000E+000,  0.10000000000E+001
  0.94985000000E+005,  0.11387911952E+007,  0.16500000000E+002,  0.00000000000E+000,  0.10000000000E+001
  0.94986000000E+005,  0.11402099389E+007,  0.16500000000E+002,  0.00000000000E+000,  0.10000000000E+001
  0.94987000000E+005,  0.11416252206E+007,  0.16500000000E+002,  0.00000000000E+000,  0.10000000000E+001
  0.94988000000E+005,  0.11430354558E+007,  0.16500000000E+002,  0.00000000000E+000,  0.10000000000E+001
  0.94989000000E+005,  0.11444399751E+007,  0.16500000000E+002,  0.00000000000E+000,  0.10000000000E+001
  0.94990000000E+005,  0.11458399264E+007,  0.16500000000E+002,  0.00000000000E+000,  0.10000000000E+001
  0.94991000000E+005,  0.11472366883E+007,  0.16500000000E+002,  0.00000000000E+000,  0.10000000000E+001
  0.94992000000E+005,  0.11486312902E+007,  0.16500000000E+002,  0.00000000000E+000,  0.10000000000E+001
  0.94993000000E+005,  0.11500253792E+007,  0.16500000000E+002,  0.00000000000E+000,  0.10000000000E+001
  0.94994000000E+005,  0.11514210981E+007,  0.16500000000E+002,  0.00000000000E+000,  0.10000000000E+001
  0.94995000000E+005,  0.11528189828E+007,  0.16500000000E+002,  0.00000000000E+000,  0.10000000000E+001
  0.94996000000E+005,  0.11542172433E+007,  0.16500000000E+002,  0.00000000000E+000,  0.10000000000E+001
  0.94997000000E+005,  0.11556145237E+007,  0.16500000000E+002,  0.00000000000E+000,  0.10000000000E+001
  0.94998000000E+005,  0.11570112232E+007,  0.16500000000E+002,  0.00000000000E+000,  0.10000000000E+001
  0.94999000000E+005,  0.11584073112E+007,  0.16500000000E+002,  0.00000000000E+000,  0.10000000000E+001
  0.95000000000E+005,  0.11598026992E+007,  0.16500000000E+002,  0.00000000000E+000,  0.10000000000E+001
  0.95001000000E+005,  0.11611972809E+007,  0.16500000000E+002,  0.00000000000E+000,  0.10000000000E+001
  0.95002000000E+005,  0.11625907936E+007,  0.16500000000E+002,  0.00000000000E+000,  0.10000000000E+001
  0.95003000000E+005,  0.11639827794E+007,  0.16500000000E+002,  0.00000000000E+000,  0.10000000000E+001
  0.95004000000E+005,  0.11653727351E+007,  0.16500000000E+002,  0.00000000000E+000,  0.10000000000E+001
  0.95005000000E+005,  0.11667600253E+007,  0.16500000000E+002,  0.00000000000E+000,  0.10000000000E+001
  0.95006000000E+005,  0.11681433941E+007,  0.16500000000E+002,  0.00000000000E+000,  0.10000000000E+001
  0.95007000000E+005,  0.11695215689E+007,  0.16500000000E+002,  0.00000000000E+000,  0.10000000000E+001
  0.95008000000E+005,  0.11708941717E+007,  0.16500000000E+002,  0.00000000000E+000,  0.10000000000E+001
  0.95009000000E+005,  0.11722610516E+007,  0.16500000000E+002,  0.00000000000E+000,  0.10000000000E+001
  0.95010000000E+005,  0.11736213322E+007,  0.16500000000E+002,  0.00000000000E+000,  0.10000000000E+001
  0.95011000000E+005,  0.11749734382E+007,  0.16500000000E+002,  0.00000000000E+000,  0.10000000000E+001
  0.95012000000E+005,  0.11763154419E+007,  0.16500000000E+002,  0.00000000000E+000,  0.10000000000E+001
  0.95013000000E+005,  0.11776473936E+007,  0.16500000000E+002,  0.00000000000E+000,  0.10000000000E+001
  0.95014000000E+005,  0.11789705490E+007,  0.16500000000E+002,  0.00000000000E+000,  0.10000000000E+001
  0.95015000000E+005,  0.11802857869E+007,  0.16500000000E+002,  0.00000000000E+000,  0.10000000000E+001
  0.95016000000E+005,  0.11815933143E+007,  0.16500000000E+002,  0.00000000000E+000,  0.10000000000E+001
  0.95017000000E+005,  0.11828930825E+007,  0.16500000000E+002,  0.00000000000E+000,  0.10000000000E+001
  0.95018000000E+005,  0.11841849168E+007,  0.16500000000E+002,  0.00000000000E+000,  0.10000000000E+001
  0.95019000000E+005,  0.11854686152E+007,  0.16500000000E+002,  0.00000000000E+000,  0.10000000000E+001
  0.95020000000E+005,  0.11867440618E+007,  0.16500000000E+002,  0.00000000000E+000,  0.10000000000E+001
  0.95021000000E+005,  0.11880119156E+007,  0.16500000000E+002,  0.00000000000E+000,  0.10000000000E+001
  0.95022000000E+005,  0.11892729390E+007,  0.16500000000E+002,  0.00000000000E+000,  0.10000000000E+001
  0.95023000000E+005,  0.11905266504E+007,  0.16500000000E+002,  0.00000000000E+000,  0.10000000000E+001
  0.95024000000E+005,  0.11917719848E+007,  0.16500000000E+002,  0.00000000000E+000,  0.10000000000E+001
  0.95025000000E+005,  0.11930085660E+007,  0.16500000000E+002,  0.00000000000E+000,  0.10000000000E+001
  0.95026000000E+005,  0.11942374236E+007,  0.16500000000E+002,  0.00000000000E+000,  0.10000000000E+001
  0.95027000000E+005,  0.11954592140E+007,  0.16500000000E+002,  0.00000000000E+000,  0.10000000000E+001
  0.95028000000E+005,  0.11966743401E+007,  0.16500000000E+002,  0.00000000000E+000,  0.10000000000E+001
  0.95029000000E+005,  0.11978830082E+007,  0.16500000000E+002,  0.00000000000E+000,  0.10000000000E+001
  0.95030000000E+005,  0.11990854897E+007,  0.16500000000E+002,  0.00000000000E+000,  0.10000000000E+001
  0.95031000000E+005,  0.12002823194E+007,  0.16500000000E+002,  0.00000000000E+000,  0.10000000000E+001
  0.95032000000E+005,  0.12014742101E+007,  0.16500000000E+002,  0.00000000000E+000,  0.10000000000E+001
  0.95033000000E+005,  0.12026619145E+007,  0.16500000000E+002,  0.00000000000E+000,  0.10000000000E+001
  0.95034000000E+005,  0.12038461095E+007,  0.16500000000E+002,  0.00000000000E+000,  0.10000000000E+001
  0.95035000000E+005,  0.12050273504E+007,  0.16500000000E+002,  0.00000000000E+000,  0.10000000000E+001
  0.95036000000E+005,  0.12062060480E+007,  0.16500000000E+002,  0.00000000000E+000,  0.10000000000E+001
  0.95037000000E+005,  0.12073824795E+007,  0.16500000000E+002,  0.00000000000E+000,  0.10000000000E+001
  0.95038000000E+005,  0.12085568125E+007,  0.16500000000E+002,  0.00000000000E+000,  0.10000000000E+001
  0.95039000000E+005,  0.12097291593E+007,  0.16500000000E+002,  0.00000000000E+000,  0.10000000000E+001
  0.95040000000E+005,  0.12108996134E+007,  0.16500000000E+002,  0.00000000000E+000,  0.10000000000E+001
  0.95041000000E+005,  0.12120682831E+007,  0.16500000000E+002,  0.00000000000E+000,  0.10000000000E+001
  0.95042000000E+005,  0.12132353095E+007,  0.16500000000E+002,  0.00000000000E+000,  0.10000000000E+001
  0.95043000000E+005,  0.12144008599E+007,  0.16500000000E+002,  0.00000000000E+000,  0.10000000000E+001
  0.95044000000E+005,  0.12155650863E+007,  0.16500000000E+002,  0.00000000000E+000,  0.10000000000E+001
  0.95045000000E+005,  0.12167281182E+007,  0.16500000000E+002,  0.00000000000E+000,  0.10000000000E+001
  0.95046000000E+005,  0.12178899951E+007,  0.16500000000E+002,  0.00000000000E+000,  0.10000000000E+001
  0.95047000000E+005,  0.12190506901E+007,  0.16500000000E+002,  0.00000000000E+000,  0.10000000000E+001
  0.95048000000E+005,  0.12202101461E+007,  0.16500000000E+002,  0.00000000000E+000,  0.10000000000E+001
  0.95049000000E+005,  0.12213683152E+007,  0.16500000000E+002,  0.00000000000E+000,  0.10000000000E+001
  0.95050000000E+005,  0.12225252486E+007,  0.16500000000E+002,  0.00000000000E+000,  0.10000000000E+001
  0.95051000000E+005,  0.12236810257E+007,  0.16500000000E+002,  0.00000000000E+000,  0.10000000000E+001
  0.95052000000E+005,  0.12248356404E+007,  0.16500000000E+002,  0.00000000000E+000,  0.10000000000E+001
  0.95053000000E+005,  0.12259889333E+007,  0.16500000000E+002,  0.00000000000E+000,  0.10000000000E+001
  0.95054000000E+005,  0.12271406235E+007,  0.16500000000E+002,  0.00000000000E+000,  0.10000000000E+001
  0.95055000000E+005,  0.12282903847E+007,  0.16500000000E+002,  0.00000000000E+000,  0.10000000000E+001
  0.95056000000E+005,  0.12294379269E+007,  0.16500000000E+002,  0.00000000000E+000,  0.10000000000E+001
  0.95057000000E+005,  0.12305830245E+007,  0.16500000000E+002,  0.00000000000E+000,  0.10000000000E+001
  0.95058000000E+005,  0.12317254978E+007,  0.16500000000E+002,  0.00000000000E+000,  0.10000000000E+001
  0.95059000000E+005,  0.12328651711E+007,  0.16500000000E+002,  0.00000000000E+000,  0.10000000000E+001
  0.95060000000E+005,  0.12340018474E+007,  0.16500000000E+002,  0.00000000000E+000,  0.10000000000E+001
  0.95061000000E+005,  0.12351352841E+007,  0.16500000000E+002,  0.00000000000E+000,  0.10000000000E+001
  0.95062000000E+005,  0.12362651798E+007,  0.16500000000E+002,  0.00000000000E+000,  0.10000000000E+001
  0.95063000000E+005,  0.12373911949E+007,  0.16500000000E+002,  0.00000000000E+000,  0.10000000000E+001
