"           TIME(S)","              PRES","              TEMP","             SAT_G","             SAT_L"
  0.94882000000E+005,  0.97661255354E+006,  0.16500000000E+002,  0.00000000000E+000,  0.10000000000E+001
  0.94883000000E+005,  0.97661255138E+006,  0.16500000000E+002,  0.00000000000E+000,  0.10000000000E+001
  0.94884000000E+005,  0.97661254924E+006,  0.16500000000E+002,  0.00000000000E+000,  0.10000000000E+001
  0.94884200000E+005,  0.97661254881E+006,  0.16500000000E+002,  0.00000000000E+000,  0.10000000000E+001
  0.94885200000E+005,  0.97661254667E+006,  0.16500000000E+002,  0.00000000000E+000,  0.10000000000E+001
  0.94886200000E+005,  0.97661254455E+006,  0.16500000000E+002,  0.00000000000E+000,  0.10000000000E+001
  0.94887200000E+005,  0.97661254244E+006,  0.16500000000E+002,  0.00000000000E+000,  0.10000000000E+001
  0.94888200000E+005,  0.97661254034E+006,  0.16500000000E+002,  0.00000000000E+000,  0.10000000000E+001
  0.94889200000E+005,  0.97661253825E+006,  0.16500000000E+002,  0.00000000000E+000,  0.10000000000E+001
  0.94890200000E+005,  0.97661253617E+006,  0.16500000000E+002,  0.00000000000E+000,  0.10000000000E+001
  0.94890700000E+005,  0.97661253514E+006,  0.16500000000E+002,  0.00000000000E+000,  0.10000000000E+001
  0.94891700000E+005,  0.97661253308E+006,  0.16500000000E+002,  0.00000000000E+000,  0.10000000000E+001
  0.94892700000E+005,  0.97661253103E+006,  0.16500000000E+002,  0.00000000000E+000,  0.10000000000E+001
  0.94893700000E+005,  0.97661252899E+006,  0.16500000000E+002,  0.00000000000E+000,  0.10000000000E+001
  0.94894700000E+005,  0.97661252697E+006,  0.16500000000E+002,  0.00000000000E+000,  0.10000000000E+001
  0.94895700000E+005,  0.97661252495E+006,  0.16500000000E+002,  0.00000000000E+000,  0.10000000000E+001
  0.94896700000E+005,  0.97661252295E+006,  0.16500000000E+002,  0.00000000000E+000,  0.10000000000E+001
  0.94897300000E+005,  0.97661252175E+006,  0.16500000000E+002,  0.00000000000E+000,  0.10000000000E+001
  0.94898000000E+005,  0.97661252035E+006,  0.16500000000E+002,  0.00000000000E+000,  0.10000000000E+001
  0.94899000000E+005,  0.97661251837E+006,  0.16500000000E+002,  0.00000000000E+000,  0.10000000000E+001
  0.94900000000E+005,  0.97661251641E+006,  0.16500000000E+002,  0.00000000000E+000,  0.10000000000E+001
  0.94901000000E+005,  0.97661251445E+006,  0.16500000000E+002,  0.00000000000E+000,  0.10000000000E+001
  0.94902000000E+005,  0.97661251250E+006,  0.16500000000E+002,  0.00000000000E+000,  0.10000000000E+001
  0.94903000000E+005,  0.97661251056E+006,  0.16500000000E+002,  0.00000000000E+000,  0.10000000000E+001
  0.94903900000E+005,  0.97661250883E+006,  0.16500000000E+002,  0.00000000000E+000,  0.10000000000E+001
  0.94904900000E+005,  0.97661250691E+006,  0.16500000000E+002,  0.00000000000E+000,  0.10000000000E+001
  0.94905900000E+005,  0.97661250500E+006,  0.16500000000E+002,  0.00000000000E+000,  0.10000000000E+001
  0.94906900000E+005,  0.97661250311E+006,  0.16500000000E+002,  0.00000000000E+000,  0.10000000000E+001
  0.94907900000E+005,  0.97661250122E+006,  0.16500000000E+002,  0.00000000000E+000,  0.10000000000E+001
  0.94908900000E+005,  0.97661249935E+006,  0.16500000000E+002,  0.00000000000E+000,  0.10000000000E+001
  0.94909900000E+005,  0.97661249748E+006,  0.16500000000E+002,  0.00000000000E+000,  0.10000000000E+001
  0.94910400000E+005,  0.97661249655E+006,  0.16500000000E+002,  0.00000000000E+000,  0.10000000000E+001
  0.94911400000E+005,  0.97661249470E+006,  0.16500000000E+002,  0.00000000000E+000,  0.10000000000E+001
  0.94912400000E+005,  0.97661249286E+006,  0.16500000000E+002,  0.00000000000E+000,  0.10000000000E+001
  0.94913400000E+005,  0.97661249103E+006,  0.16500000000E+002,  0.00000000000E+000,  0.10000000000E+001
  0.94914400000E+005,  0.97661248921E+006,  0.16500000000E+002,  0.00000000000E+000,  0.10000000000E+001
  0.94915400000E+005,  0.97661248739E+006,  0.16500000000E+002,  0.00000000000E+000,  0.10000000000E+001
  0.94916400000E+005,  0.97661248559E+006,  0.16500000000E+002,  0.00000000000E+000,  0.10000000000E+001
  0.94917000000E+005,  0.97661248451E+006,  0.16500000000E+002,  0.00000000000E+000,  0.10000000000E+001
  0.94918000000E+005,  0.97661248273E+006,  0.16500000000E+002,  0.00000000000E+000,  0.10000000000E+001
  0.94919000000E+005,  0.97661248095E+006,  0.16500000000E+002,  0.00000000000E+000,  0.10000000000E+001
  0.94920000000E+005,  0.97661247919E+006,  0.16500000000E+002,  0.00000000000E+000,  0.10000000000E+001
  0.94921000000E+005,  0.97661247743E+006,  0.16500000000E+002,  0.00000000000E+000,  0.10000000000E+001
  0.94922000000E+005,  0.97661247568E+006,  0.16500000000E+002,  0.00000000000E+000,  0.10000000000E+001
  0.94923000000E+005,  0.97661247394E+006,  0.16500000000E+002,  0.00000000000E+000,  0.10000000000E+001
  0.94923500000E+005,  0.97661247308E+006,  0.16500000000E+002,  0.00000000000E+000,  0.10000000000E+001
  0.94924500000E+005,  0.97661247135E+006,  0.16500000000E+002,  0.00000000000E+000,  0.10000000000E+001
  0.94925500000E+005,  0.97661246964E+006,  0.16500000000E+002,  0.00000000000E+000,  0.10000000000E+001
  0.94926500000E+005,  0.97661246793E+006,  0.16500000000E+002,  0.00000000000E+000,  0.10000000000E+001
  0.94927500000E+005,  0.97661246624E+006,  0.16500000000E+002,  0.00000000000E+000,  0.10000000000E+001
  0.94928500000E+005,  0.97661246455E+006,  0.16500000000E+002,  0.00000000000E+000,  0.10000000000E+001
  0.94929500000E+005,  0.97661246287E+006,  0.16500000000E+002,  0.00000000000E+000,  0.10000000000E+001
  0.94930100000E+005,  0.97661246187E+006,  0.16500000000E+002,  0.00000000000E+000,  0.10000000000E+001
  0.94931100000E+005,  0.97661246020E+006,  0.16500000000E+002,  0.00000000000E+000,  0.10000000000E+001
  0.94932100000E+005,  0.97661245855E+006,  0.16500000000E+002,  0.00000000000E+000,  0.10000000000E+001
  0.94933100000E+005,  0.97661245690E+006,  0.16500000000E+002,  0.00000000000E+000,  0.10000000000E+001
  0.94934100000E+005,  0.97661245526E+006,  0.16500000000E+002,  0.00000000000E+000,  0.10000000000E+001
  0.94935100000E+005,  0.97661245364E+006,  0.16500000000E+002,  0.00000000000E+000,  0.10000000000E+001
  0.94936100000E+005,  0.97661245202E+006,  0.16500000000E+002,  0.00000000000E+000,  0.10000000000E+001
  0.94936600000E+005,  0.97661245121E+006,  0.16500000000E+002,  0.00000000000E+000,  0.10000000000E+001
  0.94937600000E+005,  0.97661244960E+006,  0.16500000000E+002,  0.00000000000E+000,  0.10000000000E+001
  0.94938600000E+005,  0.97661244800E+006,  0.16500000000E+002,  0.00000000000E+000,  0.10000000000E+001
  0.94939600000E+005,  0.97661244641E+006,  0.16500000000E+002,  0.00000000000E+000,  0.10000000000E+001
  0.94940600000E+005,  0.97661244483E+006,  0.16500000000E+002,  0.00000000000E+000,  0.10000000000E+001
  0.94941600000E+005,  0.97661244326E+006,  0.16500000000E+002,  0.00000000000E+000,  0.10000000000E+001
  0.94942600000E+005,  0.97661244170E+006,  0.16500000000E+002,  0.00000000000E+000,  0.10000000000E+001
  0.94943200000E+005,  0.97661244076E+006,  0.16500000000E+002,  0.00000000000E+000,  0.10000000000E+001
  0.94944200000E+005,  0.97661243921E+006,  0.16500000000E+002,  0.00000000000E+000,  0.10000000000E+001
  0.94945200000E+005,  0.97661243767E+006,  0.16500000000E+002,  0.00000000000E+000,  0.10000000000E+001
  0.94946200000E+005,  0.97661243614E+006,  0.16500000000E+002,  0.00000000000E+000,  0.10000000000E+001
  0.94947200000E+005,  0.97661243461E+006,  0.16500000000E+002,  0.00000000000E+000,  0.10000000000E+001
  0.94948200000E+005,  0.97661243309E+006,  0.16500000000E+002,  0.00000000000E+000,  0.10000000000E+001
  0.94949200000E+005,  0.97661243158E+006,  0.16500000000E+002,  0.00000000000E+000,  0.10000000000E+001
  0.94949800000E+005,  0.97661243068E+006,  0.16500000000E+002,  0.00000000000E+000,  0.10000000000E+001
  0.94950800000E+005,  0.97661242918E+006,  0.16500000000E+002,  0.00000000000E+000,  0.10000000000E+001
  0.94951800000E+005,  0.97661242770E+006,  0.16500000000E+002,  0.00000000000E+000,  0.10000000000E+001
  0.94952800000E+005,  0.97661242622E+006,  0.16500000000E+002,  0.00000000000E+000,  0.10000000000E+001
  0.94953800000E+005,  0.97661242474E+006,  0.16500000000E+002,  0.00000000000E+000,  0.10000000000E+001
  0.94954800000E+005,  0.97661242328E+006,  0.16500000000E+002,  0.00000000000E+000,  0.10000000000E+001
  0.94955800000E+005,  0.97661242182E+006,  0.16500000000E+002,  0.00000000000E+000,  0.10000000000E+001
  0.94956300000E+005,  0.97661242110E+006,  0.16500000000E+002,  0.00000000000E+000,  0.10000000000E+001
  0.94957300000E+005,  0.97661241965E+006,  0.16500000000E+002,  0.00000000000E+000,  0.10000000000E+001
  0.94958300000E+005,  0.97661241822E+006,  0.16500000000E+002,  0.00000000000E+000,  0.10000000000E+001
  0.94959300000E+005,  0.97661241679E+006,  0.16500000000E+002,  0.00000000000E+000,  0.10000000000E+001
  0.94960300000E+005,  0.97661241536E+006,  0.16500000000E+002,  0.00000000000E+000,  0.10000000000E+001
  0.94961300000E+005,  0.97661241395E+006,  0.16500000000E+002,  0.00000000000E+000,  0.10000000000E+001
  0.94962300000E+005,  0.97661241254E+006,  0.16500000000E+002,  0.00000000000E+000,  0.10000000000E+001
  0.94962900000E+005,  0.97661241170E+006,  0.16500000000E+002,  0.00000000000E+000,  0.10000000000E+001
  0.94963900000E+005,  0.97661241031E+006,  0.16500000000E+002,  0.00000000000E+000,  0.10000000000E+001
  0.94964900000E+005,  0.97661240892E+006,  0.16500000000E+002,  0.00000000000E+000,  0.10000000000E+001
  0.94965900000E+005,  0.97661240754E+006,  0.16500000000E+002,  0.00000000000E+000,  0.10000000000E+001
  0.94966900000E+005,  0.97661240617E+006,  0.16500000000E+002,  0.00000000000E+000,  0.10000000000E+001
  0.94967900000E+005,  0.97661240480E+006,  0.16500000000E+002,  0.00000000000E+000,  0.10000000000E+001
  0.94968900000E+005,  0.97661240345E+006,  0.16500000000E+002,  0.00000000000E+000,  0.10000000000E+001
  0.94969400000E+005,  0.97661240277E+006,  0.16500000000E+002,  0.00000000000E+000,  0.10000000000E+001
  0.94970400000E+005,  0.97661240142E+006,  0.16500000000E+002,  0.00000000000E+000,  0.10000000000E+001
  0.94971400000E+005,  0.97661240008E+006,  0.16500000000E+002,  0.00000000000E+000,  0.10000000000E+001
  0.94972400000E+005,  0.97661239875E+006,  0.16500000000E+002,  0.00000000000E+000,  0.10000000000E+001
  0.94973400000E+005,  0.97661239743E+006,  0.16500000000E+002,  0.00000000000E+000,  0.10000000000E+001
  0.94974400000E+005,  0.97661239611E+006,  0.16500000000E+002,  0.00000000000E+000,  0.10000000000E+001
  0.94975400000E+005,  0.97661239480E+006,  0.16500000000E+002,  0.00000000000E+000,  0.10000000000E+001
  0.94976000000E+005,  0.97661239401E+006,  0.16500000000E+002,  0.00000000000E+000,  0.10000000000E+001
  0.94977000000E+005,  0.97661239271E+006,  0.16500000000E+002,  0.00000000000E+000,  0.10000000000E+001
  0.94978000000E+005,  0.97661239142E+006,  0.16500000000E+002,  0.00000000000E+000,  0.10000000000E+001
  0.94979000000E+005,  0.97661239013E+006,  0.16500000000E+002,  0.00000000000E+000,  0.10000000000E+001
  0.94980000000E+005,  0.97661238885E+006,  0.16500000000E+002,  0.00000000000E+000,  0.10000000000E+001
  0.94981000000E+005,  0.97661238758E+006,  0.16500000000E+002,  0.00000000000E+000,  0.10000000000E+001
  0.94982000000E+005,  0.97661238632E+006,  0.16500000000E+002,  0.00000000000E+000,  0.10000000000E+001
  0.94983000000E+005,  0.97661238506E+006,  0.16500000000E+002,  0.00000000000E+000,  0.10000000000E+001
  0.94984000000E+005,  0.97661238380E+006,  0.16500000000E+002,  0.00000000000E+000,  0.10000000000E+001
  0.94985000000E+005,  0.97661238256E+006,  0.16500000000E+002,  0.00000000000E+000,  0.10000000000E+001
  0.94986000000E+005,  0.97661238132E+006,  0.16500000000E+002,  0.00000000000E+000,  0.10000000000E+001
  0.94987000000E+005,  0.97661238009E+006,  0.16500000000E+002,  0.00000000000E+000,  0.10000000000E+001
  0.94988000000E+005,  0.97661237886E+006,  0.16500000000E+002,  0.00000000000E+000,  0.10000000000E+001
  0.94989000000E+005,  0.97661237764E+006,  0.16500000000E+002,  0.00000000000E+000,  0.10000000000E+001
  0.94990000000E+005,  0.97661237643E+006,  0.16500000000E+002,  0.00000000000E+000,  0.10000000000E+001
  0.94991000000E+005,  0.97661237523E+006,  0.16500000000E+002,  0.00000000000E+000,  0.10000000000E+001
  0.94992000000E+005,  0.97661237403E+006,  0.16500000000E+002,  0.00000000000E+000,  0.10000000000E+001
  0.94993000000E+005,  0.97661237283E+006,  0.16500000000E+002,  0.00000000000E+000,  0.10000000000E+001
