"           TIME(S)","              PRES","              TEMP","             SAT_G","             SAT_L"
  0.94900000000E+005,  0.18225151928E+007,  0.16500000000E+002,  0.00000000000E+000,  0.10000000000E+001
  0.94902500000E+005,  0.28439044121E+007,  0.16500000000E+002,  0.00000000000E+000,  0.10000000000E+001
  0.94905000000E+005,  0.38556186018E+007,  0.16500000000E+002,  0.00000000000E+000,  0.10000000000E+001
  0.94907500000E+005,  0.48542094490E+007,  0.16500000000E+002,  0.00000000000E+000,  0.10000000000E+001
  0.94910000000E+005,  0.58340234285E+007,  0.16500000000E+002,  0.00000000000E+000,  0.10000000000E+001
  0.94912500000E+005,  0.67787340515E+007,  0.16500000000E+002,  0.00000000000E+000,  0.10000000000E+001
  0.94915000000E+005,  0.76471797390E+007,  0.16500000000E+002,  0.00000000000E+000,  0.10000000000E+001
  0.94917500000E+005,  0.87502945041E+007,  0.16500000000E+002,  0.00000000000E+000,  0.10000000000E+001
  0.94920000000E+005,  0.89997177085E+007,  0.16500000000E+002,  0.00000000000E+000,  0.10000000000E+001
  0.94922500000E+005,  0.87892202770E+007,  0.16500000000E+002,  0.00000000000E+000,  0.10000000000E+001
  0.94925000000E+005,  0.89676724480E+007,  0.16500000000E+002,  0.00000000000E+000,  0.10000000000E+001
  0.94927500000E+005,  0.92736512512E+007,  0.16500000000E+002,  0.00000000000E+000,  0.10000000000E+001
  0.94930000000E+005,  0.95585535310E+007,  0.16500000000E+002,  0.00000000000E+000,  0.10000000000E+001
  0.94932500000E+005,  0.10173451495E+008,  0.16500000000E+002,  0.00000000000E+000,  0.10000000000E+001
  0.94935000000E+005,  0.10755625020E+008,  0.16500000000E+002,  0.00000000000E+000,  0.10000000000E+001
  0.94937500000E+005,  0.10575850938E+008,  0.16500000000E+002,  0.00000000000E+000,  0.10000000000E+001
  0.94940000000E+005,  0.10269440032E+008,  0.16500000000E+002,  0.00000000000E+000,  0.10000000000E+001
  0.94942500000E+005,  0.99991832773E+007,  0.16500000000E+002,  0.00000000000E+000,  0.10000000000E+001
  0.94945000000E+005,  0.97291583573E+007,  0.16500000000E+002,  0.00000000000E+000,  0.10000000000E+001
  0.94947500000E+005,  0.96649525085E+007,  0.16500000000E+002,  0.00000000000E+000,  0.10000000000E+001
  0.94950000000E+005,  0.94739141266E+007,  0.16500000000E+002,  0.00000000000E+000,  0.10000000000E+001
  0.94952500000E+005,  0.93122155199E+007,  0.16500000000E+002,  0.00000000000E+000,  0.10000000000E+001
  0.94955000000E+005,  0.92283789456E+007,  0.16500000000E+002,  0.00000000000E+000,  0.10000000000E+001
  0.94957500000E+005,  0.91365167631E+007,  0.16500000000E+002,  0.00000000000E+000,  0.10000000000E+001
  0.94960000000E+005,  0.90678539570E+007,  0.16500000000E+002,  0.00000000000E+000,  0.10000000000E+001
  0.94962500000E+005,  0.89849294351E+007,  0.16500000000E+002,  0.00000000000E+000,  0.10000000000E+001
  0.94965000000E+005,  0.88904309482E+007,  0.16500000000E+002,  0.00000000000E+000,  0.10000000000E+001
  0.94967500000E+005,  0.87971052158E+007,  0.16500000000E+002,  0.00000000000E+000,  0.10000000000E+001
  0.94970000000E+005,  0.87119297339E+007,  0.16500000000E+002,  0.00000000000E+000,  0.10000000000E+001
  0.94972500000E+005,  0.86307965110E+007,  0.16500000000E+002,  0.00000000000E+000,  0.10000000000E+001
  0.94975000000E+005,  0.85817858548E+007,  0.16500000000E+002,  0.00000000000E+000,  0.10000000000E+001
  0.94977500000E+005,  0.85466367391E+007,  0.16500000000E+002,  0.00000000000E+000,  0.10000000000E+001
  0.94980000000E+005,  0.85106897210E+007,  0.16500000000E+002,  0.00000000000E+000,  0.10000000000E+001
  0.94982500000E+005,  0.84824860915E+007,  0.16500000000E+002,  0.00000000000E+000,  0.10000000000E+001
  0.94985000000E+005,  0.84610170211E+007,  0.16500000000E+002,  0.00000000000E+000,  0.10000000000E+001
  0.94987500000E+005,  0.84468563861E+007,  0.16500000000E+002,  0.00000000000E+000,  0.10000000000E+001
  0.94990000000E+005,  0.84240244132E+007,  0.16500000000E+002,  0.00000000000E+000,  0.10000000000E+001
  0.94992500000E+005,  0.83869594136E+007,  0.16500000000E+002,  0.00000000000E+000,  0.10000000000E+001
  0.94995000000E+005,  0.83769316658E+007,  0.16500000000E+002,  0.00000000000E+000,  0.10000000000E+001
  0.94997500000E+005,  0.83366767409E+007,  0.16500000000E+002,  0.00000000000E+000,  0.10000000000E+001
  0.95000000000E+005,  0.83036315271E+007,  0.16500000000E+002,  0.00000000000E+000,  0.10000000000E+001
  0.95002000000E+005,  0.82733896143E+007,  0.16500000000E+002,  0.00000000000E+000,  0.10000000000E+001
  0.95012000000E+005,  0.84138200601E+007,  0.16500000000E+002,  0.00000000000E+000,  0.10000000000E+001
  0.95022000000E+005,  0.83741070475E+007,  0.16500000000E+002,  0.00000000000E+000,  0.10000000000E+001
  0.95032000000E+005,  0.81952015738E+007,  0.16500000000E+002,  0.00000000000E+000,  0.10000000000E+001
  0.95042000000E+005,  0.80838121244E+007,  0.16500000000E+002,  0.00000000000E+000,  0.10000000000E+001
  0.95052000000E+005,  0.80415252026E+007,  0.16500000000E+002,  0.00000000000E+000,  0.10000000000E+001
  0.95062000000E+005,  0.79823241222E+007,  0.16500000000E+002,  0.00000000000E+000,  0.10000000000E+001
  0.95072000000E+005,  0.79000371255E+007,  0.16500000000E+002,  0.00000000000E+000,  0.10000000000E+001
  0.95082000000E+005,  0.78466835509E+007,  0.16500000000E+002,  0.00000000000E+000,  0.10000000000E+001
  0.95092000000E+005,  0.78243169940E+007,  0.16500000000E+002,  0.00000000000E+000,  0.10000000000E+001
  0.95102000000E+005,  0.78184671538E+007,  0.16500000000E+002,  0.00000000000E+000,  0.10000000000E+001
  0.95112000000E+005,  0.78205201073E+007,  0.16500000000E+002,  0.00000000000E+000,  0.10000000000E+001
  0.95122000000E+005,  0.78270769658E+007,  0.16500000000E+002,  0.00000000000E+000,  0.10000000000E+001
  0.95128100000E+005,  0.78054772787E+007,  0.16500000000E+002,  0.00000000000E+000,  0.10000000000E+001
  0.95138100000E+005,  0.78087480023E+007,  0.16500000000E+002,  0.00000000000E+000,  0.10000000000E+001
  0.95148100000E+005,  0.77984089711E+007,  0.16500000000E+002,  0.00000000000E+000,  0.10000000000E+001
  0.95158100000E+005,  0.77775141509E+007,  0.16500000000E+002,  0.00000000000E+000,  0.10000000000E+001
  0.95168100000E+005,  0.77514510349E+007,  0.16500000000E+002,  0.00000000000E+000,  0.10000000000E+001
  0.95178100000E+005,  0.77343594772E+007,  0.16500000000E+002,  0.00000000000E+000,  0.10000000000E+001
  0.95188100000E+005,  0.77398586400E+007,  0.16500000000E+002,  0.00000000000E+000,  0.10000000000E+001
  0.95198100000E+005,  0.77691736053E+007,  0.16500000000E+002,  0.00000000000E+000,  0.10000000000E+001
  0.95208100000E+005,  0.78068486992E+007,  0.16500000000E+002,  0.00000000000E+000,  0.10000000000E+001
  0.95218100000E+005,  0.78491872389E+007,  0.16500000000E+002,  0.00000000000E+000,  0.10000000000E+001
  0.95228100000E+005,  0.78759433156E+007,  0.16500000000E+002,  0.00000000000E+000,  0.10000000000E+001
  0.95238100000E+005,  0.78808133095E+007,  0.16500000000E+002,  0.00000000000E+000,  0.10000000000E+001
  0.95248100000E+005,  0.78875032069E+007,  0.16500000000E+002,  0.00000000000E+000,  0.10000000000E+001
  0.95258100000E+005,  0.78921847010E+007,  0.16500000000E+002,  0.00000000000E+000,  0.10000000000E+001
  0.95268100000E+005,  0.78901303454E+007,  0.16500000000E+002,  0.00000000000E+000,  0.10000000000E+001
  0.95278100000E+005,  0.78762241561E+007,  0.16500000000E+002,  0.00000000000E+000,  0.10000000000E+001
  0.95288100000E+005,  0.78556589720E+007,  0.16500000000E+002,  0.00000000000E+000,  0.10000000000E+001
  0.95298100000E+005,  0.78364913384E+007,  0.16500000000E+002,  0.00000000000E+000,  0.10000000000E+001
  0.95308100000E+005,  0.78199744528E+007,  0.16500000000E+002,  0.00000000000E+000,  0.10000000000E+001
  0.95318100000E+005,  0.78036484638E+007,  0.16500000000E+002,  0.00000000000E+000,  0.10000000000E+001
  0.95328100000E+005,  0.77883825906E+007,  0.16500000000E+002,  0.00000000000E+000,  0.10000000000E+001
  0.95338100000E+005,  0.77741594034E+007,  0.16500000000E+002,  0.00000000000E+000,  0.10000000000E+001
  0.95348100000E+005,  0.77576283935E+007,  0.16500000000E+002,  0.00000000000E+000,  0.10000000000E+001
  0.95358100000E+005,  0.77402368220E+007,  0.16500000000E+002,  0.00000000000E+000,  0.10000000000E+001
  0.95368100000E+005,  0.77334020359E+007,  0.16500000000E+002,  0.00000000000E+000,  0.10000000000E+001
