"           TIME(S)","              PRES","              TEMP","             SAT_G","             SAT_L"
  0.94895500000E+005,  0.10765313669E+007,  0.16500000000E+002,  0.00000000000E+000,  0.10000000000E+001
  0.94896500000E+005,  0.12286556806E+007,  0.16500000000E+002,  0.00000000000E+000,  0.10000000000E+001
  0.94897500000E+005,  0.13798247501E+007,  0.16500000000E+002,  0.00000000000E+000,  0.10000000000E+001
  0.94898500000E+005,  0.15300768592E+007,  0.16500000000E+002,  0.00000000000E+000,  0.10000000000E+001
  0.94899500000E+005,  0.16794432102E+007,  0.16500000000E+002,  0.00000000000E+000,  0.10000000000E+001
  0.94900500000E+005,  0.18279510201E+007,  0.16500000000E+002,  0.00000000000E+000,  0.10000000000E+001
  0.94901500000E+005,  0.19756239927E+007,  0.16500000000E+002,  0.00000000000E+000,  0.10000000000E+001
  0.94902500000E+005,  0.21224828704E+007,  0.16500000000E+002,  0.00000000000E+000,  0.10000000000E+001
  0.94903500000E+005,  0.22685457974E+007,  0.16500000000E+002,  0.00000000000E+000,  0.10000000000E+001
  0.94904500000E+005,  0.24138285042E+007,  0.16500000000E+002,  0.00000000000E+000,  0.10000000000E+001
  0.94905500000E+005,  0.25583447020E+007,  0.16500000000E+002,  0.00000000000E+000,  0.10000000000E+001
  0.94906500000E+005,  0.27021062604E+007,  0.16500000000E+002,  0.00000000000E+000,  0.10000000000E+001
  0.94907500000E+005,  0.28451232676E+007,  0.16500000000E+002,  0.00000000000E+000,  0.10000000000E+001
  0.94908500000E+005,  0.29874042592E+007,  0.16500000000E+002,  0.00000000000E+000,  0.10000000000E+001
  0.94909500000E+005,  0.31289562694E+007,  0.16500000000E+002,  0.00000000000E+000,  0.10000000000E+001
  0.94910500000E+005,  0.32697848785E+007,  0.16500000000E+002,  0.00000000000E+000,  0.10000000000E+001
  0.94911500000E+005,  0.34098945097E+007,  0.16500000000E+002,  0.00000000000E+000,  0.10000000000E+001
  0.94912500000E+005,  0.35492881514E+007,  0.16500000000E+002,  0.00000000000E+000,  0.10000000000E+001
  0.94913500000E+005,  0.36889980532E+007,  0.16500000000E+002,  0.00000000000E+000,  0.10000000000E+001
  0.94914500000E+005,  0.38271770758E+007,  0.16500000000E+002,  0.00000000000E+000,  0.10000000000E+001
  0.94915500000E+005,  0.39659457763E+007,  0.16500000000E+002,  0.00000000000E+000,  0.10000000000E+001
  0.94916500000E+005,  0.42469169179E+007,  0.16500000000E+002,  0.00000000000E+000,  0.10000000000E+001
  0.94917500000E+005,  0.44042764022E+007,  0.16500000000E+002,  0.00000000000E+000,  0.10000000000E+001
  0.94918500000E+005,  0.45478740749E+007,  0.16500000000E+002,  0.00000000000E+000,  0.10000000000E+001
  0.94919500000E+005,  0.46857401534E+007,  0.16500000000E+002,  0.00000000000E+000,  0.10000000000E+001
  0.94920500000E+005,  0.48189096204E+007,  0.16500000000E+002,  0.00000000000E+000,  0.10000000000E+001
  0.94921500000E+005,  0.49328699896E+007,  0.16500000000E+002,  0.00000000000E+000,  0.10000000000E+001
  0.94922500000E+005,  0.50307852903E+007,  0.16500000000E+002,  0.00000000000E+000,  0.10000000000E+001
  0.94923500000E+005,  0.51222293499E+007,  0.16500000000E+002,  0.00000000000E+000,  0.10000000000E+001
  0.94924500000E+005,  0.53218737844E+007,  0.16500000000E+002,  0.00000000000E+000,  0.10000000000E+001
  0.94925500000E+005,  0.54730986020E+007,  0.16500000000E+002,  0.00000000000E+000,  0.10000000000E+001
  0.94926500000E+005,  0.56140685242E+007,  0.16500000000E+002,  0.00000000000E+000,  0.10000000000E+001
  0.94927500000E+005,  0.58226926389E+007,  0.16500000000E+002,  0.00000000000E+000,  0.10000000000E+001
  0.94928500000E+005,  0.60225178333E+007,  0.16500000000E+002,  0.00000000000E+000,  0.10000000000E+001
  0.94929500000E+005,  0.62241159607E+007,  0.16500000000E+002,  0.00000000000E+000,  0.10000000000E+001
  0.94930500000E+005,  0.64943691235E+007,  0.16500000000E+002,  0.00000000000E+000,  0.10000000000E+001
  0.94931500000E+005,  0.68250482790E+007,  0.16500000000E+002,  0.00000000000E+000,  0.10000000000E+001
  0.94932500000E+005,  0.72196147722E+007,  0.16500000000E+002,  0.00000000000E+000,  0.10000000000E+001
  0.94933500000E+005,  0.76498909442E+007,  0.16500000000E+002,  0.00000000000E+000,  0.10000000000E+001
  0.94934500000E+005,  0.80352639685E+007,  0.16500000000E+002,  0.00000000000E+000,  0.10000000000E+001
  0.94935500000E+005,  0.83613054337E+007,  0.16500000000E+002,  0.00000000000E+000,  0.10000000000E+001
  0.94936500000E+005,  0.86137388841E+007,  0.16500000000E+002,  0.00000000000E+000,  0.10000000000E+001
  0.94937500000E+005,  0.88016213907E+007,  0.16500000000E+002,  0.00000000000E+000,  0.10000000000E+001
  0.94938500000E+005,  0.89425823028E+007,  0.16500000000E+002,  0.00000000000E+000,  0.10000000000E+001
  0.94939500000E+005,  0.90381493981E+007,  0.16500000000E+002,  0.00000000000E+000,  0.10000000000E+001
  0.94940500000E+005,  0.90826722391E+007,  0.16500000000E+002,  0.00000000000E+000,  0.10000000000E+001
  0.94941500000E+005,  0.90956060875E+007,  0.16500000000E+002,  0.00000000000E+000,  0.10000000000E+001
  0.94942500000E+005,  0.90941846886E+007,  0.16500000000E+002,  0.00000000000E+000,  0.10000000000E+001
  0.94943500000E+005,  0.90741039097E+007,  0.16500000000E+002,  0.00000000000E+000,  0.10000000000E+001
  0.94944500000E+005,  0.90329476730E+007,  0.16500000000E+002,  0.00000000000E+000,  0.10000000000E+001
  0.94945500000E+005,  0.89551693436E+007,  0.16500000000E+002,  0.00000000000E+000,  0.10000000000E+001
  0.94946500000E+005,  0.89836839650E+007,  0.16500000000E+002,  0.00000000000E+000,  0.10000000000E+001
  0.94947500000E+005,  0.90093646003E+007,  0.16500000000E+002,  0.00000000000E+000,  0.10000000000E+001
  0.94948500000E+005,  0.90333480959E+007,  0.16500000000E+002,  0.00000000000E+000,  0.10000000000E+001
  0.94949500000E+005,  0.90223679389E+007,  0.16500000000E+002,  0.00000000000E+000,  0.10000000000E+001
  0.94950500000E+005,  0.90170197179E+007,  0.16500000000E+002,  0.00000000000E+000,  0.10000000000E+001
  0.94951500000E+005,  0.90100889142E+007,  0.16500000000E+002,  0.00000000000E+000,  0.10000000000E+001
  0.94952500000E+005,  0.90116222446E+007,  0.16500000000E+002,  0.00000000000E+000,  0.10000000000E+001
  0.94953500000E+005,  0.90120605278E+007,  0.16500000000E+002,  0.00000000000E+000,  0.10000000000E+001
  0.94954500000E+005,  0.89992284879E+007,  0.16500000000E+002,  0.00000000000E+000,  0.10000000000E+001
  0.94955500000E+005,  0.89515560187E+007,  0.16500000000E+002,  0.00000000000E+000,  0.10000000000E+001
  0.94956500000E+005,  0.89104799217E+007,  0.16500000000E+002,  0.00000000000E+000,  0.10000000000E+001
  0.94957500000E+005,  0.88798132154E+007,  0.16500000000E+002,  0.00000000000E+000,  0.10000000000E+001
  0.94958500000E+005,  0.88549094107E+007,  0.16500000000E+002,  0.00000000000E+000,  0.10000000000E+001
  0.94959500000E+005,  0.88315358423E+007,  0.16500000000E+002,  0.00000000000E+000,  0.10000000000E+001
  0.94960500000E+005,  0.88076827453E+007,  0.16500000000E+002,  0.00000000000E+000,  0.10000000000E+001
  0.94961500000E+005,  0.87833071426E+007,  0.16500000000E+002,  0.00000000000E+000,  0.10000000000E+001
  0.94962500000E+005,  0.87596588880E+007,  0.16500000000E+002,  0.00000000000E+000,  0.10000000000E+001
  0.94963500000E+005,  0.87380871416E+007,  0.16500000000E+002,  0.00000000000E+000,  0.10000000000E+001
  0.94964500000E+005,  0.87199147498E+007,  0.16500000000E+002,  0.00000000000E+000,  0.10000000000E+001
  0.94965500000E+005,  0.87054874379E+007,  0.16500000000E+002,  0.00000000000E+000,  0.10000000000E+001
  0.94966500000E+005,  0.86945378563E+007,  0.16500000000E+002,  0.00000000000E+000,  0.10000000000E+001
  0.94967500000E+005,  0.86864838905E+007,  0.16500000000E+002,  0.00000000000E+000,  0.10000000000E+001
  0.94968500000E+005,  0.86807357772E+007,  0.16500000000E+002,  0.00000000000E+000,  0.10000000000E+001
  0.94969500000E+005,  0.86716743026E+007,  0.16500000000E+002,  0.00000000000E+000,  0.10000000000E+001
  0.94970500000E+005,  0.86592399918E+007,  0.16500000000E+002,  0.00000000000E+000,  0.10000000000E+001
  0.94971500000E+005,  0.86438699665E+007,  0.16500000000E+002,  0.00000000000E+000,  0.10000000000E+001
  0.94972500000E+005,  0.86275013950E+007,  0.16500000000E+002,  0.00000000000E+000,  0.10000000000E+001
  0.94973500000E+005,  0.86124457550E+007,  0.16500000000E+002,  0.00000000000E+000,  0.10000000000E+001
