"           TIME(S)","              PRES","              TEMP","             SAT_G","             SAT_L"
  0.94860000000E+005,  0.10416050731E+007,  0.16500000000E+002,  0.00000000000E+000,  0.10000000000E+001
  0.94864500000E+005,  0.10416050731E+007,  0.16500000000E+002,  0.00000000000E+000,  0.10000000000E+001
  0.94871100000E+005,  0.10416050731E+007,  0.16500000000E+002,  0.00000000000E+000,  0.10000000000E+001
  0.94877600000E+005,  0.10416050731E+007,  0.16500000000E+002,  0.00000000000E+000,  0.10000000000E+001
  0.94884200000E+005,  0.10416050735E+007,  0.16500000000E+002,  0.00000000000E+000,  0.10000000000E+001
  0.94890700000E+005,  0.10416050740E+007,  0.16500000000E+002,  0.00000000000E+000,  0.10000000000E+001
  0.94897300000E+005,  0.10416050746E+007,  0.16500000000E+002,  0.00000000000E+000,  0.10000000000E+001
  0.94903900000E+005,  0.10416050753E+007,  0.16500000000E+002,  0.00000000000E+000,  0.10000000000E+001
  0.94910400000E+005,  0.10416050760E+007,  0.16500000000E+002,  0.00000000000E+000,  0.10000000000E+001
  0.94917000000E+005,  0.10416050768E+007,  0.16500000000E+002,  0.00000000000E+000,  0.10000000000E+001
  0.94923500000E+005,  0.10416050776E+007,  0.16500000000E+002,  0.00000000000E+000,  0.10000000000E+001
  0.94930100000E+005,  0.10416050784E+007,  0.16500000000E+002,  0.00000000000E+000,  0.10000000000E+001
  0.94936600000E+005,  0.10416050793E+007,  0.16500000000E+002,  0.00000000000E+000,  0.10000000000E+001
  0.94943200000E+005,  0.10416050802E+007,  0.16500000000E+002,  0.00000000000E+000,  0.10000000000E+001
  0.94949800000E+005,  0.10416050810E+007,  0.16500000000E+002,  0.00000000000E+000,  0.10000000000E+001
  0.94956300000E+005,  0.10416050819E+007,  0.16500000000E+002,  0.00000000000E+000,  0.10000000000E+001
  0.94962900000E+005,  0.10416050828E+007,  0.16500000000E+002,  0.00000000000E+000,  0.10000000000E+001
  0.94969400000E+005,  0.10416050836E+007,  0.16500000000E+002,  0.00000000000E+000,  0.10000000000E+001
  0.94976000000E+005,  0.10416050845E+007,  0.16500000000E+002,  0.00000000000E+000,  0.10000000000E+001
  0.94986000000E+005,  0.10416050858E+007,  0.16500000000E+002,  0.00000000000E+000,  0.10000000000E+001
  0.94996000000E+005,  0.10416050871E+007,  0.16500000000E+002,  0.00000000000E+000,  0.10000000000E+001
  0.95006000000E+005,  0.10416050883E+007,  0.16500000000E+002,  0.00000000000E+000,  0.10000000000E+001
  0.95016000000E+005,  0.10416050895E+007,  0.16500000000E+002,  0.00000000000E+000,  0.10000000000E+001
  0.95026000000E+005,  0.10416050907E+007,  0.16500000000E+002,  0.00000000000E+000,  0.10000000000E+001
  0.95036000000E+005,  0.10416050918E+007,  0.16500000000E+002,  0.00000000000E+000,  0.10000000000E+001
  0.95046000000E+005,  0.10416050929E+007,  0.16500000000E+002,  0.00000000000E+000,  0.10000000000E+001
  0.95056000000E+005,  0.10416050939E+007,  0.16500000000E+002,  0.00000000000E+000,  0.10000000000E+001
  0.95066000000E+005,  0.10416050949E+007,  0.16500000000E+002,  0.00000000000E+000,  0.10000000000E+001
  0.95076000000E+005,  0.10416050959E+007,  0.16500000000E+002,  0.00000000000E+000,  0.10000000000E+001
  0.95086000000E+005,  0.10416050969E+007,  0.16500000000E+002,  0.00000000000E+000,  0.10000000000E+001
  0.95096000000E+005,  0.10416050978E+007,  0.16500000000E+002,  0.00000000000E+000,  0.10000000000E+001
  0.95106000000E+005,  0.10416050986E+007,  0.16500000000E+002,  0.00000000000E+000,  0.10000000000E+001
  0.95116000000E+005,  0.10416050995E+007,  0.16500000000E+002,  0.00000000000E+000,  0.10000000000E+001
  0.95126000000E+005,  0.10416051003E+007,  0.16500000000E+002,  0.00000000000E+000,  0.10000000000E+001
  0.95136000000E+005,  0.10416051011E+007,  0.16500000000E+002,  0.00000000000E+000,  0.10000000000E+001
  0.95146000000E+005,  0.10416051018E+007,  0.16500000000E+002,  0.00000000000E+000,  0.10000000000E+001
  0.95156000000E+005,  0.10416051025E+007,  0.16500000000E+002,  0.00000000000E+000,  0.10000000000E+001
  0.95166000000E+005,  0.10416051032E+007,  0.16500000000E+002,  0.00000000000E+000,  0.10000000000E+001
  0.95176000000E+005,  0.10416051039E+007,  0.16500000000E+002,  0.00000000000E+000,  0.10000000000E+001
  0.95186000000E+005,  0.10416051045E+007,  0.16500000000E+002,  0.00000000000E+000,  0.10000000000E+001
  0.95196000000E+005,  0.10416051052E+007,  0.16500000000E+002,  0.00000000000E+000,  0.10000000000E+001
  0.95206000000E+005,  0.10416051058E+007,  0.16500000000E+002,  0.00000000000E+000,  0.10000000000E+001
  0.95216000000E+005,  0.10416051063E+007,  0.16500000000E+002,  0.00000000000E+000,  0.10000000000E+001
  0.95226000000E+005,  0.10416051069E+007,  0.16500000000E+002,  0.00000000000E+000,  0.10000000000E+001
  0.95236000000E+005,  0.10416051074E+007,  0.16500000000E+002,  0.00000000000E+000,  0.10000000000E+001
  0.95246000000E+005,  0.10416051080E+007,  0.16500000000E+002,  0.00000000000E+000,  0.10000000000E+001
  0.95256000000E+005,  0.10416051085E+007,  0.16500000000E+002,  0.00000000000E+000,  0.10000000000E+001
  0.95266000000E+005,  0.10416051090E+007,  0.16500000000E+002,  0.00000000000E+000,  0.10000000000E+001
  0.95276000000E+005,  0.10416051094E+007,  0.16500000000E+002,  0.00000000000E+000,  0.10000000000E+001
  0.95286000000E+005,  0.10416051099E+007,  0.16500000000E+002,  0.00000000000E+000,  0.10000000000E+001
  0.95296000000E+005,  0.10416051103E+007,  0.16500000000E+002,  0.00000000000E+000,  0.10000000000E+001
  0.95306000000E+005,  0.10416051108E+007,  0.16500000000E+002,  0.00000000000E+000,  0.10000000000E+001
  0.95316000000E+005,  0.10416051112E+007,  0.16500000000E+002,  0.00000000000E+000,  0.10000000000E+001
  0.95326000000E+005,  0.10416051116E+007,  0.16500000000E+002,  0.00000000000E+000,  0.10000000000E+001
  0.95336000000E+005,  0.10416051120E+007,  0.16500000000E+002,  0.00000000000E+000,  0.10000000000E+001
  0.95346000000E+005,  0.10416051124E+007,  0.16500000000E+002,  0.00000000000E+000,  0.10000000000E+001
  0.95356000000E+005,  0.10416051128E+007,  0.16500000000E+002,  0.00000000000E+000,  0.10000000000E+001
  0.95366000000E+005,  0.10416051131E+007,  0.16500000000E+002,  0.00000000000E+000,  0.10000000000E+001
  0.95376000000E+005,  0.10416051135E+007,  0.16500000000E+002,  0.00000000000E+000,  0.10000000000E+001
  0.95386000000E+005,  0.10416051138E+007,  0.16500000000E+002,  0.00000000000E+000,  0.10000000000E+001
  0.95396000000E+005,  0.10416051142E+007,  0.16500000000E+002,  0.00000000000E+000,  0.10000000000E+001
  0.95406000000E+005,  0.10416051145E+007,  0.16500000000E+002,  0.00000000000E+000,  0.10000000000E+001
  0.95416000000E+005,  0.10416051148E+007,  0.16500000000E+002,  0.00000000000E+000,  0.10000000000E+001
  0.95426000000E+005,  0.10416051151E+007,  0.16500000000E+002,  0.00000000000E+000,  0.10000000000E+001
  0.95436000000E+005,  0.10416051155E+007,  0.16500000000E+002,  0.00000000000E+000,  0.10000000000E+001
  0.95446000000E+005,  0.10416051158E+007,  0.16500000000E+002,  0.00000000000E+000,  0.10000000000E+001
  0.95456000000E+005,  0.10416051161E+007,  0.16500000000E+002,  0.00000000000E+000,  0.10000000000E+001
  0.95466000000E+005,  0.10416051164E+007,  0.16500000000E+002,  0.00000000000E+000,  0.10000000000E+001
  0.95476000000E+005,  0.10416051166E+007,  0.16500000000E+002,  0.00000000000E+000,  0.10000000000E+001
  0.95486000000E+005,  0.10416051169E+007,  0.16500000000E+002,  0.00000000000E+000,  0.10000000000E+001
  0.95496000000E+005,  0.10416051172E+007,  0.16500000000E+002,  0.00000000000E+000,  0.10000000000E+001
  0.95506000000E+005,  0.10416051175E+007,  0.16500000000E+002,  0.00000000000E+000,  0.10000000000E+001
  0.95516000000E+005,  0.10416051177E+007,  0.16500000000E+002,  0.00000000000E+000,  0.10000000000E+001
  0.95526000000E+005,  0.10416051180E+007,  0.16500000000E+002,  0.00000000000E+000,  0.10000000000E+001
  0.95536000000E+005,  0.10416051183E+007,  0.16500000000E+002,  0.00000000000E+000,  0.10000000000E+001
  0.95546000000E+005,  0.10416051185E+007,  0.16500000000E+002,  0.00000000000E+000,  0.10000000000E+001
  0.95556000000E+005,  0.10416051188E+007,  0.16500000000E+002,  0.00000000000E+000,  0.10000000000E+001
  0.95566000000E+005,  0.10416051190E+007,  0.16500000000E+002,  0.00000000000E+000,  0.10000000000E+001
  0.95576000000E+005,  0.10416051193E+007,  0.16500000000E+002,  0.00000000000E+000,  0.10000000000E+001
  0.95586000000E+005,  0.10416051195E+007,  0.16500000000E+002,  0.00000000000E+000,  0.10000000000E+001
  0.95596000000E+005,  0.10416051198E+007,  0.16500000000E+002,  0.00000000000E+000,  0.10000000000E+001
  0.95606000000E+005,  0.10416051200E+007,  0.16500000000E+002,  0.00000000000E+000,  0.10000000000E+001
  0.95616000000E+005,  0.10416051203E+007,  0.16500000000E+002,  0.00000000000E+000,  0.10000000000E+001
  0.95626000000E+005,  0.10416051205E+007,  0.16500000000E+002,  0.00000000000E+000,  0.10000000000E+001
  0.95636000000E+005,  0.10416051208E+007,  0.16500000000E+002,  0.00000000000E+000,  0.10000000000E+001
  0.95646000000E+005,  0.10416051210E+007,  0.16500000000E+002,  0.00000000000E+000,  0.10000000000E+001
  0.95656000000E+005,  0.10416051213E+007,  0.16500000000E+002,  0.00000000000E+000,  0.10000000000E+001
  0.95666000000E+005,  0.10416051216E+007,  0.16500000000E+002,  0.00000000000E+000,  0.10000000000E+001
  0.95676000000E+005,  0.10416051219E+007,  0.16500000000E+002,  0.00000000000E+000,  0.10000000000E+001
  0.95686000000E+005,  0.10416051223E+007,  0.16500000000E+002,  0.00000000000E+000,  0.10000000000E+001
  0.95696000000E+005,  0.10416051227E+007,  0.16500000000E+002,  0.00000000000E+000,  0.10000000000E+001
  0.95706000000E+005,  0.10416051231E+007,  0.16500000000E+002,  0.00000000000E+000,  0.10000000000E+001
  0.95716000000E+005,  0.10416051237E+007,  0.16500000000E+002,  0.00000000000E+000,  0.10000000000E+001
  0.95726000000E+005,  0.10416051245E+007,  0.16500000000E+002,  0.00000000000E+000,  0.10000000000E+001
  0.95736000000E+005,  0.10416051254E+007,  0.16500000000E+002,  0.00000000000E+000,  0.10000000000E+001
  0.95746000000E+005,  0.10416051267E+007,  0.16500000000E+002,  0.00000000000E+000,  0.10000000000E+001
  0.95756000000E+005,  0.10416051284E+007,  0.16500000000E+002,  0.00000000000E+000,  0.10000000000E+001
  0.95766000000E+005,  0.10416051306E+007,  0.16500000000E+002,  0.00000000000E+000,  0.10000000000E+001
  0.95776000000E+005,  0.10416051336E+007,  0.16500000000E+002,  0.00000000000E+000,  0.10000000000E+001
  0.95786000000E+005,  0.10416051377E+007,  0.16500000000E+002,  0.00000000000E+000,  0.10000000000E+001
  0.95796000000E+005,  0.10416051431E+007,  0.16500000000E+002,  0.00000000000E+000,  0.10000000000E+001
  0.95806000000E+005,  0.10416051504E+007,  0.16500000000E+002,  0.00000000000E+000,  0.10000000000E+001
  0.95816000000E+005,  0.10416051601E+007,  0.16500000000E+002,  0.00000000000E+000,  0.10000000000E+001
  0.95826000000E+005,  0.10416051730E+007,  0.16500000000E+002,  0.00000000000E+000,  0.10000000000E+001
  0.95836000000E+005,  0.10416051902E+007,  0.16500000000E+002,  0.00000000000E+000,  0.10000000000E+001
  0.95846000000E+005,  0.10416052129E+007,  0.16500000000E+002,  0.00000000000E+000,  0.10000000000E+001
  0.95856000000E+005,  0.10416052428E+007,  0.16500000000E+002,  0.00000000000E+000,  0.10000000000E+001
  0.95866000000E+005,  0.10416052821E+007,  0.16500000000E+002,  0.00000000000E+000,  0.10000000000E+001
  0.95876000000E+005,  0.10416053335E+007,  0.16500000000E+002,  0.00000000000E+000,  0.10000000000E+001
  0.95886000000E+005,  0.10416054005E+007,  0.16500000000E+002,  0.00000000000E+000,  0.10000000000E+001
  0.95896000000E+005,  0.10416054874E+007,  0.16500000000E+002,  0.00000000000E+000,  0.10000000000E+001
  0.95906000000E+005,  0.10416055997E+007,  0.16500000000E+002,  0.00000000000E+000,  0.10000000000E+001
  0.95916000000E+005,  0.10416057440E+007,  0.16500000000E+002,  0.00000000000E+000,  0.10000000000E+001
  0.95926000000E+005,  0.10416059286E+007,  0.16500000000E+002,  0.00000000000E+000,  0.10000000000E+001
  0.95936000000E+005,  0.10416061637E+007,  0.16500000000E+002,  0.00000000000E+000,  0.10000000000E+001
  0.95946000000E+005,  0.10416064625E+007,  0.16500000000E+002,  0.00000000000E+000,  0.10000000000E+001
  0.95956000000E+005,  0.10416068417E+007,  0.16500000000E+002,  0.00000000000E+000,  0.10000000000E+001
  0.95966000000E+005,  0.10416073236E+007,  0.16500000000E+002,  0.00000000000E+000,  0.10000000000E+001
  0.95976000000E+005,  0.10416079376E+007,  0.16500000000E+002,  0.00000000000E+000,  0.10000000000E+001
  0.95986000000E+005,  0.10416087235E+007,  0.16500000000E+002,  0.00000000000E+000,  0.10000000000E+001
  0.95992600000E+005,  0.10416093308E+007,  0.16500000000E+002,  0.00000000000E+000,  0.10000000000E+001
