"           TIME(S)","              PRES","              TEMP","             SAT_G","             SAT_L"
  0.94878500000E+005,  0.10411735430E+007,  0.16500000000E+002,  0.00000000000E+000,  0.10000000000E+001
  0.94881000000E+005,  0.10411735429E+007,  0.16500000000E+002,  0.00000000000E+000,  0.10000000000E+001
  0.94891000000E+005,  0.10411735427E+007,  0.16500000000E+002,  0.00000000000E+000,  0.10000000000E+001
  0.94901000000E+005,  0.10411735425E+007,  0.16500000000E+002,  0.00000000000E+000,  0.10000000000E+001
  0.94911000000E+005,  0.10411735423E+007,  0.16500000000E+002,  0.00000000000E+000,  0.10000000000E+001
  0.94921000000E+005,  0.10411735420E+007,  0.16500000000E+002,  0.00000000000E+000,  0.10000000000E+001
  0.94931000000E+005,  0.10411735418E+007,  0.16500000000E+002,  0.00000000000E+000,  0.10000000000E+001
  0.94941000000E+005,  0.10411735416E+007,  0.16500000000E+002,  0.00000000000E+000,  0.10000000000E+001
  0.94951000000E+005,  0.10411735414E+007,  0.16500000000E+002,  0.00000000000E+000,  0.10000000000E+001
  0.94961000000E+005,  0.10411735412E+007,  0.16500000000E+002,  0.00000000000E+000,  0.10000000000E+001
  0.94971000000E+005,  0.10411735410E+007,  0.16500000000E+002,  0.00000000000E+000,  0.10000000000E+001
  0.94981000000E+005,  0.10411735408E+007,  0.16500000000E+002,  0.00000000000E+000,  0.10000000000E+001
  0.94991000000E+005,  0.10411735406E+007,  0.16500000000E+002,  0.00000000000E+000,  0.10000000000E+001
  0.95001000000E+005,  0.10411735404E+007,  0.16500000000E+002,  0.00000000000E+000,  0.10000000000E+001
  0.95011000000E+005,  0.10411735402E+007,  0.16500000000E+002,  0.00000000000E+000,  0.10000000000E+001
  0.95021000000E+005,  0.10411735399E+007,  0.16500000000E+002,  0.00000000000E+000,  0.10000000000E+001
  0.95031000000E+005,  0.10411735397E+007,  0.16500000000E+002,  0.00000000000E+000,  0.10000000000E+001
  0.95041000000E+005,  0.10411735395E+007,  0.16500000000E+002,  0.00000000000E+000,  0.10000000000E+001
  0.95051000000E+005,  0.10411735393E+007,  0.16500000000E+002,  0.00000000000E+000,  0.10000000000E+001
  0.95061000000E+005,  0.10411735391E+007,  0.16500000000E+002,  0.00000000000E+000,  0.10000000000E+001
  0.95071000000E+005,  0.10411735389E+007,  0.16500000000E+002,  0.00000000000E+000,  0.10000000000E+001
  0.95081000000E+005,  0.10411735387E+007,  0.16500000000E+002,  0.00000000000E+000,  0.10000000000E+001
  0.95091000000E+005,  0.10411735385E+007,  0.16500000000E+002,  0.00000000000E+000,  0.10000000000E+001
  0.95101000000E+005,  0.10411735383E+007,  0.16500000000E+002,  0.00000000000E+000,  0.10000000000E+001
  0.95111000000E+005,  0.10411735381E+007,  0.16500000000E+002,  0.00000000000E+000,  0.10000000000E+001
  0.95121000000E+005,  0.10411735379E+007,  0.16500000000E+002,  0.00000000000E+000,  0.10000000000E+001
  0.95131000000E+005,  0.10411735377E+007,  0.16500000000E+002,  0.00000000000E+000,  0.10000000000E+001
  0.95141000000E+005,  0.10411735375E+007,  0.16500000000E+002,  0.00000000000E+000,  0.10000000000E+001
  0.95151000000E+005,  0.10411735374E+007,  0.16500000000E+002,  0.00000000000E+000,  0.10000000000E+001
  0.95161000000E+005,  0.10411735372E+007,  0.16500000000E+002,  0.00000000000E+000,  0.10000000000E+001
  0.95171000000E+005,  0.10411735370E+007,  0.16500000000E+002,  0.00000000000E+000,  0.10000000000E+001
  0.95181000000E+005,  0.10411735368E+007,  0.16500000000E+002,  0.00000000000E+000,  0.10000000000E+001
  0.95191000000E+005,  0.10411735366E+007,  0.16500000000E+002,  0.00000000000E+000,  0.10000000000E+001
  0.95201000000E+005,  0.10411735364E+007,  0.16500000000E+002,  0.00000000000E+000,  0.10000000000E+001
  0.95201500000E+005,  0.10411735364E+007,  0.16500000000E+002,  0.00000000000E+000,  0.10000000000E+001
  0.95204000000E+005,  0.10411735363E+007,  0.16500000000E+002,  0.00000000000E+000,  0.10000000000E+001
  0.95216500000E+005,  0.10411735361E+007,  0.16500000000E+002,  0.00000000000E+000,  0.10000000000E+001
  0.95276500000E+005,  0.10411735350E+007,  0.16500000000E+002,  0.00000000000E+000,  0.10000000000E+001
  0.95336500000E+005,  0.10411735339E+007,  0.16500000000E+002,  0.00000000000E+000,  0.10000000000E+001
  0.95396500000E+005,  0.10411735329E+007,  0.16500000000E+002,  0.00000000000E+000,  0.10000000000E+001
  0.95456500000E+005,  0.10411735318E+007,  0.16500000000E+002,  0.00000000000E+000,  0.10000000000E+001
  0.95516500000E+005,  0.10411735308E+007,  0.16500000000E+002,  0.00000000000E+000,  0.10000000000E+001
  0.95576500000E+005,  0.10411735299E+007,  0.16500000000E+002,  0.00000000000E+000,  0.10000000000E+001
  0.95636500000E+005,  0.10411735289E+007,  0.16500000000E+002,  0.00000000000E+000,  0.10000000000E+001
  0.95696500000E+005,  0.10411735280E+007,  0.16500000000E+002,  0.00000000000E+000,  0.10000000000E+001
  0.95756500000E+005,  0.10411735271E+007,  0.16500000000E+002,  0.00000000000E+000,  0.10000000000E+001
  0.95816500000E+005,  0.10411735266E+007,  0.16500000000E+002,  0.00000000000E+000,  0.10000000000E+001
  0.95876500000E+005,  0.10411735284E+007,  0.16500000000E+002,  0.00000000000E+000,  0.10000000000E+001
  0.95936500000E+005,  0.10411735456E+007,  0.16500000000E+002,  0.00000000000E+000,  0.10000000000E+001
  0.95996500000E+005,  0.10411736860E+007,  0.16500000000E+002,  0.00000000000E+000,  0.10000000000E+001
  0.96056500000E+005,  0.10411753055E+007,  0.16500000000E+002,  0.00000000000E+000,  0.10000000000E+001
  0.96116500000E+005,  0.10412103779E+007,  0.16500000000E+002,  0.00000000000E+000,  0.10000000000E+001
  0.96176500000E+005,  0.10417446214E+007,  0.16500000000E+002,  0.00000000000E+000,  0.10000000000E+001
  0.96194400000E+005,  0.10420706658E+007,  0.16500000000E+002,  0.00000000000E+000,  0.10000000000E+001
  0.96254400000E+005,  0.10470765213E+007,  0.16500000000E+002,  0.00000000000E+000,  0.10000000000E+001
  0.96314400000E+005,  0.10700209935E+007,  0.16500000000E+002,  0.00000000000E+000,  0.10000000000E+001
  0.96374400000E+005,  0.12296127805E+007,  0.16500000000E+002,  0.00000000000E+000,  0.10000000000E+001
  0.96434400000E+005,  0.18058424310E+007,  0.16500000000E+002,  0.00000000000E+000,  0.10000000000E+001
  0.96494400000E+005,  0.27650031560E+007,  0.16500000000E+002,  0.00000000000E+000,  0.10000000000E+001
  0.96554400000E+005,  0.36201359439E+007,  0.16500000000E+002,  0.00000000000E+000,  0.10000000000E+001
  0.96614400000E+005,  0.41246373758E+007,  0.16500000000E+002,  0.00000000000E+000,  0.10000000000E+001
  0.96674400000E+005,  0.43840785955E+007,  0.16500000000E+002,  0.00000000000E+000,  0.10000000000E+001
  0.96734400000E+005,  0.45327188923E+007,  0.16500000000E+002,  0.00000000000E+000,  0.10000000000E+001
  0.96794400000E+005,  0.46575807361E+007,  0.16500000000E+002,  0.00000000000E+000,  0.10000000000E+001
  0.96854400000E+005,  0.47819303964E+007,  0.16500000000E+002,  0.00000000000E+000,  0.10000000000E+001
  0.96914400000E+005,  0.48872148711E+007,  0.16500000000E+002,  0.00000000000E+000,  0.10000000000E+001
  0.96974400000E+005,  0.49579714228E+007,  0.16500000000E+002,  0.00000000000E+000,  0.10000000000E+001
  0.97034400000E+005,  0.49975314782E+007,  0.16500000000E+002,  0.00000000000E+000,  0.10000000000E+001
  0.97094400000E+005,  0.50077128897E+007,  0.16500000000E+002,  0.00000000000E+000,  0.10000000000E+001
  0.97154400000E+005,  0.49907918954E+007,  0.16500000000E+002,  0.00000000000E+000,  0.10000000000E+001
  0.97214400000E+005,  0.49551442803E+007,  0.16500000000E+002,  0.00000000000E+000,  0.10000000000E+001
  0.97274400000E+005,  0.49086081508E+007,  0.16500000000E+002,  0.00000000000E+000,  0.10000000000E+001
  0.97334400000E+005,  0.48596996006E+007,  0.16500000000E+002,  0.00000000000E+000,  0.10000000000E+001
  0.97394400000E+005,  0.48151185402E+007,  0.16500000000E+002,  0.00000000000E+000,  0.10000000000E+001
  0.97454400000E+005,  0.47799853420E+007,  0.16500000000E+002,  0.00000000000E+000,  0.10000000000E+001
  0.97510800000E+005,  0.47553746773E+007,  0.16500000000E+002,  0.00000000000E+000,  0.10000000000E+001
  0.97570800000E+005,  0.47415710120E+007,  0.16500000000E+002,  0.00000000000E+000,  0.10000000000E+001
  0.97630800000E+005,  0.47350495611E+007,  0.16500000000E+002,  0.00000000000E+000,  0.10000000000E+001
  0.97690800000E+005,  0.47300691154E+007,  0.16500000000E+002,  0.00000000000E+000,  0.10000000000E+001
  0.97750800000E+005,  0.47217252241E+007,  0.16500000000E+002,  0.00000000000E+000,  0.10000000000E+001
  0.97810800000E+005,  0.47092849383E+007,  0.16500000000E+002,  0.00000000000E+000,  0.10000000000E+001
  0.97870800000E+005,  0.46935870638E+007,  0.16500000000E+002,  0.00000000000E+000,  0.10000000000E+001
  0.97930800000E+005,  0.46756512552E+007,  0.16500000000E+002,  0.00000000000E+000,  0.10000000000E+001
  0.97990800000E+005,  0.46564295542E+007,  0.16500000000E+002,  0.00000000000E+000,  0.10000000000E+001
  0.98050800000E+005,  0.46371034645E+007,  0.16500000000E+002,  0.00000000000E+000,  0.10000000000E+001
  0.98110800000E+005,  0.46206240253E+007,  0.16500000000E+002,  0.00000000000E+000,  0.10000000000E+001
  0.98170800000E+005,  0.46094325010E+007,  0.16500000000E+002,  0.00000000000E+000,  0.10000000000E+001
  0.98230800000E+005,  0.46042741281E+007,  0.16500000000E+002,  0.00000000000E+000,  0.10000000000E+001
  0.98290800000E+005,  0.46043186260E+007,  0.16500000000E+002,  0.00000000000E+000,  0.10000000000E+001
  0.98350800000E+005,  0.46080293352E+007,  0.16500000000E+002,  0.00000000000E+000,  0.10000000000E+001
  0.98410800000E+005,  0.46137890742E+007,  0.16500000000E+002,  0.00000000000E+000,  0.10000000000E+001
  0.98470800000E+005,  0.46203588942E+007,  0.16500000000E+002,  0.00000000000E+000,  0.10000000000E+001
  0.98530800000E+005,  0.46263641616E+007,  0.16500000000E+002,  0.00000000000E+000,  0.10000000000E+001
  0.98590800000E+005,  0.46304729944E+007,  0.16500000000E+002,  0.00000000000E+000,  0.10000000000E+001
  0.98650800000E+005,  0.46318807664E+007,  0.16500000000E+002,  0.00000000000E+000,  0.10000000000E+001
  0.98710800000E+005,  0.46303647519E+007,  0.16500000000E+002,  0.00000000000E+000,  0.10000000000E+001
  0.98770800000E+005,  0.46257607670E+007,  0.16500000000E+002,  0.00000000000E+000,  0.10000000000E+001
  0.98827200000E+005,  0.46181173741E+007,  0.16500000000E+002,  0.00000000000E+000,  0.10000000000E+001
  0.98887200000E+005,  0.46068341915E+007,  0.16500000000E+002,  0.00000000000E+000,  0.10000000000E+001
  0.98947200000E+005,  0.45925832427E+007,  0.16500000000E+002,  0.00000000000E+000,  0.10000000000E+001
  0.99007200000E+005,  0.45759835846E+007,  0.16500000000E+002,  0.00000000000E+000,  0.10000000000E+001
  0.99067200000E+005,  0.45576016437E+007,  0.16500000000E+002,  0.00000000000E+000,  0.10000000000E+001
  0.99127200000E+005,  0.45389092943E+007,  0.16500000000E+002,  0.00000000000E+000,  0.10000000000E+001
  0.99187200000E+005,  0.45211080446E+007,  0.16500000000E+002,  0.00000000000E+000,  0.10000000000E+001
  0.99247200000E+005,  0.45048122297E+007,  0.16500000000E+002,  0.00000000000E+000,  0.10000000000E+001
  0.99307200000E+005,  0.44902528016E+007,  0.16500000000E+002,  0.00000000000E+000,  0.10000000000E+001
  0.99367200000E+005,  0.44771923632E+007,  0.16500000000E+002,  0.00000000000E+000,  0.10000000000E+001
  0.99427200000E+005,  0.44651018663E+007,  0.16500000000E+002,  0.00000000000E+000,  0.10000000000E+001
  0.99487200000E+005,  0.44537775060E+007,  0.16500000000E+002,  0.00000000000E+000,  0.10000000000E+001
  0.99547200000E+005,  0.44430820291E+007,  0.16500000000E+002,  0.00000000000E+000,  0.10000000000E+001
  0.99607200000E+005,  0.44329013925E+007,  0.16500000000E+002,  0.00000000000E+000,  0.10000000000E+001
  0.99667200000E+005,  0.44232343509E+007,  0.16500000000E+002,  0.00000000000E+000,  0.10000000000E+001
  0.99727200000E+005,  0.44143463694E+007,  0.16500000000E+002,  0.00000000000E+000,  0.10000000000E+001
  0.99787200000E+005,  0.44064540535E+007,  0.16500000000E+002,  0.00000000000E+000,  0.10000000000E+001
  0.99847200000E+005,  0.43991707663E+007,  0.16500000000E+002,  0.00000000000E+000,  0.10000000000E+001
  0.99907200000E+005,  0.43911853164E+007,  0.16500000000E+002,  0.00000000000E+000,  0.10000000000E+001
  0.99967200000E+005,  0.43836782987E+007,  0.16500000000E+002,  0.00000000000E+000,  0.10000000000E+001
  0.10002720000E+006,  0.43771068742E+007,  0.16500000000E+002,  0.00000000000E+000,  0.10000000000E+001
  0.10008720000E+006,  0.43713243947E+007,  0.16500000000E+002,  0.00000000000E+000,  0.10000000000E+001
  0.10014300000E+006,  0.43662552466E+007,  0.16500000000E+002,  0.00000000000E+000,  0.10000000000E+001
  0.10020300000E+006,  0.43611714702E+007,  0.16500000000E+002,  0.00000000000E+000,  0.10000000000E+001
  0.10026300000E+006,  0.43559174892E+007,  0.16500000000E+002,  0.00000000000E+000,  0.10000000000E+001
  0.10032300000E+006,  0.43501841591E+007,  0.16500000000E+002,  0.00000000000E+000,  0.10000000000E+001
  0.10038300000E+006,  0.43437921182E+007,  0.16500000000E+002,  0.00000000000E+000,  0.10000000000E+001
  0.10044300000E+006,  0.43367123739E+007,  0.16500000000E+002,  0.00000000000E+000,  0.10000000000E+001
  0.10050300000E+006,  0.43290838393E+007,  0.16500000000E+002,  0.00000000000E+000,  0.10000000000E+001
  0.10056300000E+006,  0.43211247291E+007,  0.16500000000E+002,  0.00000000000E+000,  0.10000000000E+001
  0.10062300000E+006,  0.43130804499E+007,  0.16500000000E+002,  0.00000000000E+000,  0.10000000000E+001
  0.10068300000E+006,  0.43051427740E+007,  0.16500000000E+002,  0.00000000000E+000,  0.10000000000E+001
  0.10074300000E+006,  0.42973841673E+007,  0.16500000000E+002,  0.00000000000E+000,  0.10000000000E+001
  0.10080300000E+006,  0.42897783771E+007,  0.16500000000E+002,  0.00000000000E+000,  0.10000000000E+001
  0.10086300000E+006,  0.42822625120E+007,  0.16500000000E+002,  0.00000000000E+000,  0.10000000000E+001
  0.10092300000E+006,  0.42747900711E+007,  0.16500000000E+002,  0.00000000000E+000,  0.10000000000E+001
  0.10098300000E+006,  0.42673724053E+007,  0.16500000000E+002,  0.00000000000E+000,  0.10000000000E+001
  0.10104300000E+006,  0.42600842984E+007,  0.16500000000E+002,  0.00000000000E+000,  0.10000000000E+001
  0.10110300000E+006,  0.42530398597E+007,  0.16500000000E+002,  0.00000000000E+000,  0.10000000000E+001
  0.10116300000E+006,  0.42463495571E+007,  0.16500000000E+002,  0.00000000000E+000,  0.10000000000E+001
  0.10122300000E+006,  0.42400936563E+007,  0.16500000000E+002,  0.00000000000E+000,  0.10000000000E+001
  0.10128300000E+006,  0.42342838323E+007,  0.16500000000E+002,  0.00000000000E+000,  0.10000000000E+001
  0.10134300000E+006,  0.42288976448E+007,  0.16500000000E+002,  0.00000000000E+000,  0.10000000000E+001
  0.10140300000E+006,  0.42238642934E+007,  0.16500000000E+002,  0.00000000000E+000,  0.10000000000E+001
  0.10146000000E+006,  0.42192494436E+007,  0.16500000000E+002,  0.00000000000E+000,  0.10000000000E+001
  0.10152000000E+006,  0.42145971301E+007,  0.16500000000E+002,  0.00000000000E+000,  0.10000000000E+001
  0.10158000000E+006,  0.42099974059E+007,  0.16500000000E+002,  0.00000000000E+000,  0.10000000000E+001
  0.10164000000E+006,  0.42053703307E+007,  0.16500000000E+002,  0.00000000000E+000,  0.10000000000E+001
  0.10170000000E+006,  0.42006827206E+007,  0.16500000000E+002,  0.00000000000E+000,  0.10000000000E+001
  0.10176000000E+006,  0.41959458305E+007,  0.16500000000E+002,  0.00000000000E+000,  0.10000000000E+001
  0.10182000000E+006,  0.41911970939E+007,  0.16500000000E+002,  0.00000000000E+000,  0.10000000000E+001
  0.10188000000E+006,  0.41864936053E+007,  0.16500000000E+002,  0.00000000000E+000,  0.10000000000E+001
  0.10194000000E+006,  0.41818866702E+007,  0.16500000000E+002,  0.00000000000E+000,  0.10000000000E+001
  0.10200000000E+006,  0.41774325665E+007,  0.16500000000E+002,  0.00000000000E+000,  0.10000000000E+001
  0.10206000000E+006,  0.41754105685E+007,  0.16500000000E+002,  0.00000000000E+000,  0.10000000000E+001
  0.10212000000E+006,  0.41740763147E+007,  0.16500000000E+002,  0.00000000000E+000,  0.10000000000E+001
  0.10218000000E+006,  0.41725673207E+007,  0.16500000000E+002,  0.00000000000E+000,  0.10000000000E+001
  0.10224000000E+006,  0.41707246140E+007,  0.16500000000E+002,  0.00000000000E+000,  0.10000000000E+001
  0.10230000000E+006,  0.41685924134E+007,  0.16500000000E+002,  0.00000000000E+000,  0.10000000000E+001
  0.10236000000E+006,  0.41662379968E+007,  0.16500000000E+002,  0.00000000000E+000,  0.10000000000E+001
  0.10242000000E+006,  0.41636836368E+007,  0.16500000000E+002,  0.00000000000E+000,  0.10000000000E+001
  0.10248000000E+006,  0.41609331854E+007,  0.16500000000E+002,  0.00000000000E+000,  0.10000000000E+001
  0.10254000000E+006,  0.41580413600E+007,  0.16500000000E+002,  0.00000000000E+000,  0.10000000000E+001
  0.10260000000E+006,  0.41550720431E+007,  0.16500000000E+002,  0.00000000000E+000,  0.10000000000E+001
  0.10266000000E+006,  0.41520981290E+007,  0.16500000000E+002,  0.00000000000E+000,  0.10000000000E+001
  0.10272000000E+006,  0.41491955987E+007,  0.16500000000E+002,  0.00000000000E+000,  0.10000000000E+001
  0.10277600000E+006,  0.41465045238E+007,  0.16500000000E+002,  0.00000000000E+000,  0.10000000000E+001
  0.10283600000E+006,  0.41437873590E+007,  0.16500000000E+002,  0.00000000000E+000,  0.10000000000E+001
  0.10289600000E+006,  0.41411270213E+007,  0.16500000000E+002,  0.00000000000E+000,  0.10000000000E+001
  0.10295600000E+006,  0.41384413415E+007,  0.16500000000E+002,  0.00000000000E+000,  0.10000000000E+001
  0.10301600000E+006,  0.41356372386E+007,  0.16500000000E+002,  0.00000000000E+000,  0.10000000000E+001
  0.10307600000E+006,  0.41326446405E+007,  0.16500000000E+002,  0.00000000000E+000,  0.10000000000E+001
  0.10313600000E+006,  0.41294216774E+007,  0.16500000000E+002,  0.00000000000E+000,  0.10000000000E+001
  0.10319600000E+006,  0.41259742209E+007,  0.16500000000E+002,  0.00000000000E+000,  0.10000000000E+001
  0.10325600000E+006,  0.41223371562E+007,  0.16500000000E+002,  0.00000000000E+000,  0.10000000000E+001
  0.10331600000E+006,  0.41185700753E+007,  0.16500000000E+002,  0.00000000000E+000,  0.10000000000E+001
  0.10337600000E+006,  0.41147268897E+007,  0.16500000000E+002,  0.00000000000E+000,  0.10000000000E+001
  0.10343600000E+006,  0.41108718163E+007,  0.16500000000E+002,  0.00000000000E+000,  0.10000000000E+001
  0.10349600000E+006,  0.41070555390E+007,  0.16500000000E+002,  0.00000000000E+000,  0.10000000000E+001
  0.10355600000E+006,  0.41033355878E+007,  0.16500000000E+002,  0.00000000000E+000,  0.10000000000E+001
  0.10361600000E+006,  0.40997446905E+007,  0.16500000000E+002,  0.00000000000E+000,  0.10000000000E+001
  0.10367600000E+006,  0.40963269963E+007,  0.16500000000E+002,  0.00000000000E+000,  0.10000000000E+001
  0.10373600000E+006,  0.40931057760E+007,  0.16500000000E+002,  0.00000000000E+000,  0.10000000000E+001
  0.10379600000E+006,  0.40900801879E+007,  0.16500000000E+002,  0.00000000000E+000,  0.10000000000E+001
  0.10385600000E+006,  0.40872167841E+007,  0.16500000000E+002,  0.00000000000E+000,  0.10000000000E+001
  0.10391600000E+006,  0.40844709646E+007,  0.16500000000E+002,  0.00000000000E+000,  0.10000000000E+001
  0.10397600000E+006,  0.40817851243E+007,  0.16500000000E+002,  0.00000000000E+000,  0.10000000000E+001
  0.10403600000E+006,  0.40791048578E+007,  0.16500000000E+002,  0.00000000000E+000,  0.10000000000E+001
  0.10409200000E+006,  0.40765222172E+007,  0.16500000000E+002,  0.00000000000E+000,  0.10000000000E+001
  0.10415200000E+006,  0.40737006859E+007,  0.16500000000E+002,  0.00000000000E+000,  0.10000000000E+001
  0.10421200000E+006,  0.40707666530E+007,  0.16500000000E+002,  0.00000000000E+000,  0.10000000000E+001
  0.10427200000E+006,  0.40677152151E+007,  0.16500000000E+002,  0.00000000000E+000,  0.10000000000E+001
