"           TIME(S)","              PRES","              TEMP","             SAT_G","             SAT_L"
  0.94860000000E+005,  0.99606484260E+006,  0.16500000000E+002,  0.00000000000E+000,  0.10000000000E+001
  0.94870000000E+005,  0.99606484270E+006,  0.16500000000E+002,  0.00000000000E+000,  0.10000000000E+001
  0.94872000000E+005,  0.99606484275E+006,  0.16500000000E+002,  0.00000000000E+000,  0.10000000000E+001
  0.94874000000E+005,  0.99606484277E+006,  0.16500000000E+002,  0.00000000000E+000,  0.10000000000E+001
  0.94876000000E+005,  0.99606484278E+006,  0.16500000000E+002,  0.00000000000E+000,  0.10000000000E+001
  0.94878000000E+005,  0.99606484278E+006,  0.16500000000E+002,  0.00000000000E+000,  0.10000000000E+001
  0.94880000000E+005,  0.99606484278E+006,  0.16500000000E+002,  0.00000000000E+000,  0.10000000000E+001
  0.94882000000E+005,  0.10534347804E+007,  0.16500000000E+002,  0.00000000000E+000,  0.10000000000E+001
  0.94884000000E+005,  0.13141012680E+007,  0.16500000000E+002,  0.00000000000E+000,  0.10000000000E+001
  0.94886000000E+005,  0.15743697143E+007,  0.16500000000E+002,  0.00000000000E+000,  0.10000000000E+001
  0.94888000000E+005,  0.18342491654E+007,  0.16500000000E+002,  0.00000000000E+000,  0.10000000000E+001
  0.94890000000E+005,  0.20937460595E+007,  0.16500000000E+002,  0.00000000000E+000,  0.10000000000E+001
  0.94892000000E+005,  0.23528649069E+007,  0.16500000000E+002,  0.00000000000E+000,  0.10000000000E+001
  0.94894000000E+005,  0.26116086562E+007,  0.16500000000E+002,  0.00000000000E+000,  0.10000000000E+001
  0.94896000000E+005,  0.28699788418E+007,  0.16500000000E+002,  0.00000000000E+000,  0.10000000000E+001
  0.94898000000E+005,  0.31279756608E+007,  0.16500000000E+002,  0.00000000000E+000,  0.10000000000E+001
  0.94900000000E+005,  0.33855979723E+007,  0.16500000000E+002,  0.00000000000E+000,  0.10000000000E+001
  0.94902000000E+005,  0.36428432070E+007,  0.16500000000E+002,  0.00000000000E+000,  0.10000000000E+001
  0.94904000000E+005,  0.38997070661E+007,  0.16500000000E+002,  0.00000000000E+000,  0.10000000000E+001
  0.94906000000E+005,  0.41561831948E+007,  0.16500000000E+002,  0.00000000000E+000,  0.10000000000E+001
  0.94908000000E+005,  0.44121426140E+007,  0.16500000000E+002,  0.00000000000E+000,  0.10000000000E+001
  0.94910000000E+005,  0.46673782206E+007,  0.16500000000E+002,  0.00000000000E+000,  0.10000000000E+001
  0.94912000000E+005,  0.49215528616E+007,  0.16500000000E+002,  0.00000000000E+000,  0.10000000000E+001
  0.94914000000E+005,  0.51745476412E+007,  0.16500000000E+002,  0.00000000000E+000,  0.10000000000E+001
  0.94916000000E+005,  0.54823754042E+007,  0.16500000000E+002,  0.00000000000E+000,  0.10000000000E+001
  0.94918000000E+005,  0.58188186674E+007,  0.16500000000E+002,  0.00000000000E+000,  0.10000000000E+001
  0.94920000000E+005,  0.60778555883E+007,  0.16500000000E+002,  0.00000000000E+000,  0.10000000000E+001
  0.94922000000E+005,  0.62993594320E+007,  0.16500000000E+002,  0.00000000000E+000,  0.10000000000E+001
  0.94924000000E+005,  0.65260241827E+007,  0.16500000000E+002,  0.00000000000E+000,  0.10000000000E+001
  0.94926000000E+005,  0.68453038548E+007,  0.16500000000E+002,  0.00000000000E+000,  0.10000000000E+001
  0.94928000000E+005,  0.72255635530E+007,  0.16500000000E+002,  0.00000000000E+000,  0.10000000000E+001
  0.94930000000E+005,  0.76540452847E+007,  0.16500000000E+002,  0.00000000000E+000,  0.10000000000E+001
  0.94932000000E+005,  0.82668331582E+007,  0.16500000000E+002,  0.00000000000E+000,  0.10000000000E+001
  0.94934000000E+005,  0.90095468470E+007,  0.16500000000E+002,  0.00000000000E+000,  0.10000000000E+001
  0.94936000000E+005,  0.95075659851E+007,  0.16500000000E+002,  0.00000000000E+000,  0.10000000000E+001
  0.94938000000E+005,  0.97591463276E+007,  0.16500000000E+002,  0.00000000000E+000,  0.10000000000E+001
  0.94940000000E+005,  0.97820995411E+007,  0.16500000000E+002,  0.00000000000E+000,  0.10000000000E+001
  0.94942000000E+005,  0.96724665632E+007,  0.16500000000E+002,  0.00000000000E+000,  0.10000000000E+001
  0.94944000000E+005,  0.94734864344E+007,  0.16500000000E+002,  0.00000000000E+000,  0.10000000000E+001
  0.94946000000E+005,  0.93773224679E+007,  0.16500000000E+002,  0.00000000000E+000,  0.10000000000E+001
  0.94948000000E+005,  0.93482626080E+007,  0.16500000000E+002,  0.00000000000E+000,  0.10000000000E+001
  0.94950000000E+005,  0.91457888552E+007,  0.16500000000E+002,  0.00000000000E+000,  0.10000000000E+001
  0.94952000000E+005,  0.89296231048E+007,  0.16500000000E+002,  0.00000000000E+000,  0.10000000000E+001
  0.94954000000E+005,  0.87937109389E+007,  0.16500000000E+002,  0.00000000000E+000,  0.10000000000E+001
  0.94956000000E+005,  0.86701786241E+007,  0.16500000000E+002,  0.00000000000E+000,  0.10000000000E+001
  0.94958000000E+005,  0.85577445390E+007,  0.16500000000E+002,  0.00000000000E+000,  0.10000000000E+001
  0.94960000000E+005,  0.84947134133E+007,  0.16500000000E+002,  0.00000000000E+000,  0.10000000000E+001
  0.94962000000E+005,  0.84314048740E+007,  0.16500000000E+002,  0.00000000000E+000,  0.10000000000E+001
  0.94964000000E+005,  0.83625987810E+007,  0.16500000000E+002,  0.00000000000E+000,  0.10000000000E+001
  0.94966000000E+005,  0.82968693519E+007,  0.16500000000E+002,  0.00000000000E+000,  0.10000000000E+001
  0.94968000000E+005,  0.82462604421E+007,  0.16500000000E+002,  0.00000000000E+000,  0.10000000000E+001
  0.94970000000E+005,  0.82007167547E+007,  0.16500000000E+002,  0.00000000000E+000,  0.10000000000E+001
  0.94972000000E+005,  0.81796440036E+007,  0.16500000000E+002,  0.00000000000E+000,  0.10000000000E+001
  0.94974000000E+005,  0.81736018969E+007,  0.16500000000E+002,  0.00000000000E+000,  0.10000000000E+001
  0.94976000000E+005,  0.81563603736E+007,  0.16500000000E+002,  0.00000000000E+000,  0.10000000000E+001
  0.94978000000E+005,  0.81121042247E+007,  0.16500000000E+002,  0.00000000000E+000,  0.10000000000E+001
  0.94980000000E+005,  0.80834795555E+007,  0.16500000000E+002,  0.00000000000E+000,  0.10000000000E+001
  0.94982000000E+005,  0.80845423188E+007,  0.16500000000E+002,  0.00000000000E+000,  0.10000000000E+001
  0.94984000000E+005,  0.80752544881E+007,  0.16500000000E+002,  0.00000000000E+000,  0.10000000000E+001
  0.94986000000E+005,  0.80165092455E+007,  0.16500000000E+002,  0.00000000000E+000,  0.10000000000E+001
  0.94988000000E+005,  0.79801718541E+007,  0.16500000000E+002,  0.00000000000E+000,  0.10000000000E+001
  0.94990000000E+005,  0.79737948845E+007,  0.16500000000E+002,  0.00000000000E+000,  0.10000000000E+001
  0.94992000000E+005,  0.79751758428E+007,  0.16500000000E+002,  0.00000000000E+000,  0.10000000000E+001
  0.94994000000E+005,  0.79645719702E+007,  0.16500000000E+002,  0.00000000000E+000,  0.10000000000E+001
  0.94996000000E+005,  0.79407048589E+007,  0.16500000000E+002,  0.00000000000E+000,  0.10000000000E+001
  0.94998000000E+005,  0.78848513928E+007,  0.16500000000E+002,  0.00000000000E+000,  0.10000000000E+001
  0.95000000000E+005,  0.78444107929E+007,  0.16500000000E+002,  0.00000000000E+000,  0.10000000000E+001
  0.95010000000E+005,  0.79936177996E+007,  0.16500000000E+002,  0.00000000000E+000,  0.10000000000E+001
  0.95060000000E+005,  0.93490612737E+007,  0.16500000000E+002,  0.00000000000E+000,  0.10000000000E+001
  0.95128100000E+005,  0.10726294310E+008,  0.16500000000E+002,  0.00000000000E+000,  0.10000000000E+001
  0.95208100000E+005,  0.90297741217E+007,  0.16500000000E+002,  0.00000000000E+000,  0.10000000000E+001
  0.95288100000E+005,  0.88217721882E+007,  0.16500000000E+002,  0.00000000000E+000,  0.10000000000E+001
  0.95368100000E+005,  0.91170296005E+007,  0.16500000000E+002,  0.00000000000E+000,  0.10000000000E+001
  0.95398200000E+005,  0.87954970138E+007,  0.16500000000E+002,  0.00000000000E+000,  0.10000000000E+001
  0.95478200000E+005,  0.10591319872E+008,  0.16500000000E+002,  0.00000000000E+000,  0.10000000000E+001
  0.95558200000E+005,  0.81221169145E+007,  0.16500000000E+002,  0.00000000000E+000,  0.10000000000E+001
  0.95638200000E+005,  0.12339569478E+008,  0.16500000000E+002,  0.00000000000E+000,  0.10000000000E+001
  0.95668300000E+005,  0.90870197832E+007,  0.16500000000E+002,  0.00000000000E+000,  0.10000000000E+001
  0.95748300000E+005,  0.11123680701E+008,  0.16500000000E+002,  0.00000000000E+000,  0.10000000000E+001
  0.95828300000E+005,  0.11485077552E+008,  0.16500000000E+002,  0.00000000000E+000,  0.10000000000E+001
  0.95908300000E+005,  0.91109733432E+007,  0.16500000000E+002,  0.00000000000E+000,  0.10000000000E+001
  0.95938400000E+005,  0.11354568004E+008,  0.16500000000E+002,  0.00000000000E+000,  0.10000000000E+001
  0.96018400000E+005,  0.11396025132E+008,  0.16500000000E+002,  0.00000000000E+000,  0.10000000000E+001
  0.96098400000E+005,  0.82088285429E+007,  0.16500000000E+002,  0.00000000000E+000,  0.10000000000E+001
  0.96178400000E+005,  0.13099549891E+008,  0.16500000000E+002,  0.00000000000E+000,  0.10000000000E+001
  0.96208500000E+005,  0.97731976102E+007,  0.16500000000E+002,  0.00000000000E+000,  0.10000000000E+001
  0.96288500000E+005,  0.10091565683E+008,  0.16500000000E+002,  0.00000000000E+000,  0.10000000000E+001
  0.96368500000E+005,  0.13528392599E+008,  0.16500000000E+002,  0.00000000000E+000,  0.10000000000E+001
  0.96448500000E+005,  0.90824939129E+007,  0.16500000000E+002,  0.00000000000E+000,  0.10000000000E+001
  0.96478600000E+005,  0.11766483083E+008,  0.16500000000E+002,  0.00000000000E+000,  0.10000000000E+001
  0.96558600000E+005,  0.13963848268E+008,  0.16500000000E+002,  0.00000000000E+000,  0.10000000000E+001
  0.96638600000E+005,  0.86020093328E+007,  0.16500000000E+002,  0.00000000000E+000,  0.10000000000E+001
  0.96718600000E+005,  0.13124689429E+008,  0.16500000000E+002,  0.00000000000E+000,  0.10000000000E+001
  0.96748700000E+005,  0.13037394366E+008,  0.16500000000E+002,  0.00000000000E+000,  0.10000000000E+001
  0.96828700000E+005,  0.85748809333E+007,  0.16500000000E+002,  0.00000000000E+000,  0.10000000000E+001
  0.96908700000E+005,  0.13490946992E+008,  0.16500000000E+002,  0.00000000000E+000,  0.10000000000E+001
  0.96988700000E+005,  0.12330169127E+008,  0.16500000000E+002,  0.00000000000E+000,  0.10000000000E+001
  0.97018800000E+005,  0.85173806456E+007,  0.16500000000E+002,  0.00000000000E+000,  0.10000000000E+001
  0.97098800000E+005,  0.13953424439E+008,  0.16500000000E+002,  0.00000000000E+000,  0.10000000000E+001
  0.97178800000E+005,  0.11860436638E+008,  0.16500000000E+002,  0.00000000000E+000,  0.10000000000E+001
  0.97258800000E+005,  0.87961876854E+007,  0.16500000000E+002,  0.00000000000E+000,  0.10000000000E+001
  0.97288900000E+005,  0.13380689313E+008,  0.16500000000E+002,  0.00000000000E+000,  0.10000000000E+001
  0.97368900000E+005,  0.12158270563E+008,  0.16500000000E+002,  0.00000000000E+000,  0.10000000000E+001
  0.97448900000E+005,  0.88867689993E+007,  0.16500000000E+002,  0.00000000000E+000,  0.10000000000E+001
  0.97528900000E+005,  0.14648971637E+008,  0.16500000000E+002,  0.00000000000E+000,  0.10000000000E+001
  0.97559000000E+005,  0.11016271218E+008,  0.16500000000E+002,  0.00000000000E+000,  0.10000000000E+001
  0.97639000000E+005,  0.11369971657E+008,  0.16500000000E+002,  0.00000000000E+000,  0.10000000000E+001
  0.97719000000E+005,  0.14988075644E+008,  0.16500000000E+002,  0.00000000000E+000,  0.10000000000E+001
  0.97799000000E+005,  0.96272593530E+007,  0.16500000000E+002,  0.00000000000E+000,  0.10000000000E+001
  0.97829100000E+005,  0.12328078384E+008,  0.16500000000E+002,  0.00000000000E+000,  0.10000000000E+001
  0.97909100000E+005,  0.15035197885E+008,  0.16500000000E+002,  0.00000000000E+000,  0.10000000000E+001
  0.97989100000E+005,  0.92079394492E+007,  0.16500000000E+002,  0.00000000000E+000,  0.10000000000E+001
  0.98069100000E+005,  0.13365300938E+008,  0.16500000000E+002,  0.00000000000E+000,  0.10000000000E+001
  0.98099200000E+005,  0.14370186627E+008,  0.16500000000E+002,  0.00000000000E+000,  0.10000000000E+001
  0.98179200000E+005,  0.98348534940E+007,  0.16500000000E+002,  0.00000000000E+000,  0.10000000000E+001
  0.98259200000E+005,  0.13462894299E+008,  0.16500000000E+002,  0.00000000000E+000,  0.10000000000E+001
  0.98339200000E+005,  0.14559453439E+008,  0.16500000000E+002,  0.00000000000E+000,  0.10000000000E+001
  0.98369300000E+005,  0.93126084037E+007,  0.16500000000E+002,  0.00000000000E+000,  0.10000000000E+001
  0.98449300000E+005,  0.13586490229E+008,  0.16500000000E+002,  0.00000000000E+000,  0.10000000000E+001
  0.98529300000E+005,  0.14597723727E+008,  0.16500000000E+002,  0.00000000000E+000,  0.10000000000E+001
  0.98609300000E+005,  0.84914265335E+007,  0.16500000000E+002,  0.00000000000E+000,  0.10000000000E+001
  0.98639400000E+005,  0.12991501991E+008,  0.16500000000E+002,  0.00000000000E+000,  0.10000000000E+001
  0.98719400000E+005,  0.14750129377E+008,  0.16500000000E+002,  0.00000000000E+000,  0.10000000000E+001
  0.98799400000E+005,  0.86169278453E+007,  0.16500000000E+002,  0.00000000000E+000,  0.10000000000E+001
  0.98879400000E+005,  0.14003083232E+008,  0.16500000000E+002,  0.00000000000E+000,  0.10000000000E+001
  0.98909500000E+005,  0.13663218608E+008,  0.16500000000E+002,  0.00000000000E+000,  0.10000000000E+001
  0.98989500000E+005,  0.70328119817E+007,  0.16500000000E+002,  0.00000000000E+000,  0.10000000000E+001
  0.98991500000E+005,  0.69589254932E+007,  0.16500000000E+002,  0.00000000000E+000,  0.10000000000E+001
  0.99001500000E+005,  0.67301255171E+007,  0.16500000000E+002,  0.00000000000E+000,  0.10000000000E+001
  0.99011500000E+005,  0.65549340349E+007,  0.16500000000E+002,  0.00000000000E+000,  0.10000000000E+001
  0.99021500000E+005,  0.64120518356E+007,  0.16500000000E+002,  0.00000000000E+000,  0.10000000000E+001
  0.99031500000E+005,  0.62919498609E+007,  0.16500000000E+002,  0.00000000000E+000,  0.10000000000E+001
  0.99041500000E+005,  0.61889391644E+007,  0.16500000000E+002,  0.00000000000E+000,  0.10000000000E+001
  0.99051500000E+005,  0.60991997671E+007,  0.16500000000E+002,  0.00000000000E+000,  0.10000000000E+001
  0.99061500000E+005,  0.60200184180E+007,  0.16500000000E+002,  0.00000000000E+000,  0.10000000000E+001
  0.99071500000E+005,  0.59494014809E+007,  0.16500000000E+002,  0.00000000000E+000,  0.10000000000E+001
  0.99081500000E+005,  0.58858471127E+007,  0.16500000000E+002,  0.00000000000E+000,  0.10000000000E+001
  0.99091500000E+005,  0.58281996835E+007,  0.16500000000E+002,  0.00000000000E+000,  0.10000000000E+001
  0.99101500000E+005,  0.57755544377E+007,  0.16500000000E+002,  0.00000000000E+000,  0.10000000000E+001
  0.99111500000E+005,  0.57271915080E+007,  0.16500000000E+002,  0.00000000000E+000,  0.10000000000E+001
  0.99121500000E+005,  0.56825294346E+007,  0.16500000000E+002,  0.00000000000E+000,  0.10000000000E+001
  0.99131500000E+005,  0.56410930920E+007,  0.16500000000E+002,  0.00000000000E+000,  0.10000000000E+001
  0.99141500000E+005,  0.56024897008E+007,  0.16500000000E+002,  0.00000000000E+000,  0.10000000000E+001
  0.99151500000E+005,  0.55663905042E+007,  0.16500000000E+002,  0.00000000000E+000,  0.10000000000E+001
  0.99161500000E+005,  0.55325186089E+007,  0.16500000000E+002,  0.00000000000E+000,  0.10000000000E+001
  0.99171500000E+005,  0.55006382918E+007,  0.16500000000E+002,  0.00000000000E+000,  0.10000000000E+001
  0.99179600000E+005,  0.54760225583E+007,  0.16500000000E+002,  0.00000000000E+000,  0.10000000000E+001
  0.99189600000E+005,  0.54472726806E+007,  0.16500000000E+002,  0.00000000000E+000,  0.10000000000E+001
  0.99199600000E+005,  0.54200084224E+007,  0.16500000000E+002,  0.00000000000E+000,  0.10000000000E+001
  0.99209600000E+005,  0.53940956445E+007,  0.16500000000E+002,  0.00000000000E+000,  0.10000000000E+001
  0.99219600000E+005,  0.53694161532E+007,  0.16500000000E+002,  0.00000000000E+000,  0.10000000000E+001
  0.99229600000E+005,  0.53458654149E+007,  0.16500000000E+002,  0.00000000000E+000,  0.10000000000E+001
  0.99239600000E+005,  0.53233506961E+007,  0.16500000000E+002,  0.00000000000E+000,  0.10000000000E+001
  0.99249600000E+005,  0.53017893706E+007,  0.16500000000E+002,  0.00000000000E+000,  0.10000000000E+001
  0.99259600000E+005,  0.52811076063E+007,  0.16500000000E+002,  0.00000000000E+000,  0.10000000000E+001
  0.99269600000E+005,  0.52612391853E+007,  0.16500000000E+002,  0.00000000000E+000,  0.10000000000E+001
  0.99279600000E+005,  0.52421245225E+007,  0.16500000000E+002,  0.00000000000E+000,  0.10000000000E+001
  0.99289600000E+005,  0.52237098354E+007,  0.16500000000E+002,  0.00000000000E+000,  0.10000000000E+001
  0.99299600000E+005,  0.52059464507E+007,  0.16500000000E+002,  0.00000000000E+000,  0.10000000000E+001
  0.99309600000E+005,  0.51887902335E+007,  0.16500000000E+002,  0.00000000000E+000,  0.10000000000E+001
  0.99319600000E+005,  0.51722010569E+007,  0.16500000000E+002,  0.00000000000E+000,  0.10000000000E+001
  0.99329600000E+005,  0.51561423176E+007,  0.16500000000E+002,  0.00000000000E+000,  0.10000000000E+001
  0.99339600000E+005,  0.51405805706E+007,  0.16500000000E+002,  0.00000000000E+000,  0.10000000000E+001
  0.99349600000E+005,  0.51254851739E+007,  0.16500000000E+002,  0.00000000000E+000,  0.10000000000E+001
  0.99359600000E+005,  0.51108280250E+007,  0.16500000000E+002,  0.00000000000E+000,  0.10000000000E+001
  0.99369600000E+005,  0.50965832914E+007,  0.16500000000E+002,  0.00000000000E+000,  0.10000000000E+001
  0.99379600000E+005,  0.50827271806E+007,  0.16500000000E+002,  0.00000000000E+000,  0.10000000000E+001
  0.99389600000E+005,  0.50692377379E+007,  0.16500000000E+002,  0.00000000000E+000,  0.10000000000E+001
  0.99399600000E+005,  0.50560946705E+007,  0.16500000000E+002,  0.00000000000E+000,  0.10000000000E+001
  0.99409600000E+005,  0.50432792074E+007,  0.16500000000E+002,  0.00000000000E+000,  0.10000000000E+001
  0.99419600000E+005,  0.50307739409E+007,  0.16500000000E+002,  0.00000000000E+000,  0.10000000000E+001
  0.99429600000E+005,  0.50185627224E+007,  0.16500000000E+002,  0.00000000000E+000,  0.10000000000E+001
  0.99439600000E+005,  0.50066305436E+007,  0.16500000000E+002,  0.00000000000E+000,  0.10000000000E+001
  0.99449600000E+005,  0.49949634373E+007,  0.16500000000E+002,  0.00000000000E+000,  0.10000000000E+001
  0.99449700000E+005,  0.49948474707E+007,  0.16500000000E+002,  0.00000000000E+000,  0.10000000000E+001
  0.99459700000E+005,  0.49834347746E+007,  0.16500000000E+002,  0.00000000000E+000,  0.10000000000E+001
  0.99469700000E+005,  0.49722619929E+007,  0.16500000000E+002,  0.00000000000E+000,  0.10000000000E+001
  0.99479700000E+005,  0.49613176612E+007,  0.16500000000E+002,  0.00000000000E+000,  0.10000000000E+001
  0.99489700000E+005,  0.49505911364E+007,  0.16500000000E+002,  0.00000000000E+000,  0.10000000000E+001
  0.99499700000E+005,  0.49400724726E+007,  0.16500000000E+002,  0.00000000000E+000,  0.10000000000E+001
  0.99509700000E+005,  0.49297523492E+007,  0.16500000000E+002,  0.00000000000E+000,  0.10000000000E+001
  0.99519700000E+005,  0.49196220326E+007,  0.16500000000E+002,  0.00000000000E+000,  0.10000000000E+001
  0.99529700000E+005,  0.49096733083E+007,  0.16500000000E+002,  0.00000000000E+000,  0.10000000000E+001
  0.99539700000E+005,  0.48998984584E+007,  0.16500000000E+002,  0.00000000000E+000,  0.10000000000E+001
  0.99549700000E+005,  0.48902902206E+007,  0.16500000000E+002,  0.00000000000E+000,  0.10000000000E+001
  0.99559700000E+005,  0.48808417600E+007,  0.16500000000E+002,  0.00000000000E+000,  0.10000000000E+001
  0.99569700000E+005,  0.48715466324E+007,  0.16500000000E+002,  0.00000000000E+000,  0.10000000000E+001
  0.99579700000E+005,  0.48623987576E+007,  0.16500000000E+002,  0.00000000000E+000,  0.10000000000E+001
  0.99589700000E+005,  0.48533923961E+007,  0.16500000000E+002,  0.00000000000E+000,  0.10000000000E+001
