"           TIME(S)","              PRES","              TEMP","             SAT_G","             SAT_L"
  0.94878500000E+005,  0.99555748928E+006,  0.16500000000E+002,  0.00000000000E+000,  0.10000000000E+001
  0.94881000000E+005,  0.99555748900E+006,  0.16500000000E+002,  0.00000000000E+000,  0.10000000000E+001
  0.94891000000E+005,  0.10166260184E+007,  0.16500000000E+002,  0.00000000000E+000,  0.10000000000E+001
  0.94901000000E+005,  0.10537263041E+007,  0.16500000000E+002,  0.00000000000E+000,  0.10000000000E+001
  0.94911000000E+005,  0.10945023719E+007,  0.16500000000E+002,  0.00000000000E+000,  0.10000000000E+001
  0.94921000000E+005,  0.11280378002E+007,  0.16500000000E+002,  0.00000000000E+000,  0.10000000000E+001
  0.94931000000E+005,  0.11552619728E+007,  0.16500000000E+002,  0.00000000000E+000,  0.10000000000E+001
  0.94941000000E+005,  0.11904101015E+007,  0.16500000000E+002,  0.00000000000E+000,  0.10000000000E+001
  0.94951000000E+005,  0.12198878954E+007,  0.16500000000E+002,  0.00000000000E+000,  0.10000000000E+001
  0.94961000000E+005,  0.12454373619E+007,  0.16500000000E+002,  0.00000000000E+000,  0.10000000000E+001
  0.94971000000E+005,  0.12685606817E+007,  0.16500000000E+002,  0.00000000000E+000,  0.10000000000E+001
  0.94981000000E+005,  0.12903035388E+007,  0.16500000000E+002,  0.00000000000E+000,  0.10000000000E+001
  0.94991000000E+005,  0.13117231591E+007,  0.16500000000E+002,  0.00000000000E+000,  0.10000000000E+001
  0.95001000000E+005,  0.13326217798E+007,  0.16500000000E+002,  0.00000000000E+000,  0.10000000000E+001
  0.95011000000E+005,  0.13526655600E+007,  0.16500000000E+002,  0.00000000000E+000,  0.10000000000E+001
  0.95021000000E+005,  0.13720635107E+007,  0.16500000000E+002,  0.00000000000E+000,  0.10000000000E+001
  0.95031000000E+005,  0.13906413451E+007,  0.16500000000E+002,  0.00000000000E+000,  0.10000000000E+001
  0.95041000000E+005,  0.14083739947E+007,  0.16500000000E+002,  0.00000000000E+000,  0.10000000000E+001
  0.95051000000E+005,  0.14257467296E+007,  0.16500000000E+002,  0.00000000000E+000,  0.10000000000E+001
  0.95061000000E+005,  0.14426727763E+007,  0.16500000000E+002,  0.00000000000E+000,  0.10000000000E+001
  0.95071000000E+005,  0.14589749696E+007,  0.16500000000E+002,  0.00000000000E+000,  0.10000000000E+001
  0.95081000000E+005,  0.14750943235E+007,  0.16500000000E+002,  0.00000000000E+000,  0.10000000000E+001
  0.95091000000E+005,  0.14911496235E+007,  0.16500000000E+002,  0.00000000000E+000,  0.10000000000E+001
  0.95101000000E+005,  0.15069766581E+007,  0.16500000000E+002,  0.00000000000E+000,  0.10000000000E+001
  0.95111000000E+005,  0.15226172275E+007,  0.16500000000E+002,  0.00000000000E+000,  0.10000000000E+001
  0.95121000000E+005,  0.15382187342E+007,  0.16500000000E+002,  0.00000000000E+000,  0.10000000000E+001
  0.95131000000E+005,  0.15537561487E+007,  0.16500000000E+002,  0.00000000000E+000,  0.10000000000E+001
  0.95141000000E+005,  0.15691618316E+007,  0.16500000000E+002,  0.00000000000E+000,  0.10000000000E+001
  0.95151000000E+005,  0.15841731453E+007,  0.16500000000E+002,  0.00000000000E+000,  0.10000000000E+001
  0.95161000000E+005,  0.15986161579E+007,  0.16500000000E+002,  0.00000000000E+000,  0.10000000000E+001
  0.95171000000E+005,  0.16125261469E+007,  0.16500000000E+002,  0.00000000000E+000,  0.10000000000E+001
  0.95181000000E+005,  0.16259398753E+007,  0.16500000000E+002,  0.00000000000E+000,  0.10000000000E+001
  0.95191000000E+005,  0.16390127398E+007,  0.16500000000E+002,  0.00000000000E+000,  0.10000000000E+001
  0.95201000000E+005,  0.16517315986E+007,  0.16500000000E+002,  0.00000000000E+000,  0.10000000000E+001
  0.95201500000E+005,  0.16523654298E+007,  0.16500000000E+002,  0.00000000000E+000,  0.10000000000E+001
  0.95204000000E+005,  0.16554655804E+007,  0.16500000000E+002,  0.00000000000E+000,  0.10000000000E+001
  0.95216500000E+005,  0.16705912088E+007,  0.16500000000E+002,  0.00000000000E+000,  0.10000000000E+001
  0.95276500000E+005,  0.17493654190E+007,  0.16500000000E+002,  0.00000000000E+000,  0.10000000000E+001
  0.95336500000E+005,  0.18268445215E+007,  0.16500000000E+002,  0.00000000000E+000,  0.10000000000E+001
  0.95396500000E+005,  0.18985478245E+007,  0.16500000000E+002,  0.00000000000E+000,  0.10000000000E+001
  0.95456500000E+005,  0.19620262217E+007,  0.16500000000E+002,  0.00000000000E+000,  0.10000000000E+001
  0.95516500000E+005,  0.20211434944E+007,  0.16500000000E+002,  0.00000000000E+000,  0.10000000000E+001
  0.95576500000E+005,  0.20779757219E+007,  0.16500000000E+002,  0.00000000000E+000,  0.10000000000E+001
  0.95636500000E+005,  0.21334762208E+007,  0.16500000000E+002,  0.00000000000E+000,  0.10000000000E+001
  0.95696500000E+005,  0.21878559253E+007,  0.16500000000E+002,  0.00000000000E+000,  0.10000000000E+001
  0.95756500000E+005,  0.22402139980E+007,  0.16500000000E+002,  0.00000000000E+000,  0.10000000000E+001
  0.95816500000E+005,  0.22909595070E+007,  0.16500000000E+002,  0.00000000000E+000,  0.10000000000E+001
  0.95876500000E+005,  0.23407199506E+007,  0.16500000000E+002,  0.00000000000E+000,  0.10000000000E+001
  0.95936500000E+005,  0.23891876321E+007,  0.16500000000E+002,  0.00000000000E+000,  0.10000000000E+001
  0.95996500000E+005,  0.24349986661E+007,  0.16500000000E+002,  0.00000000000E+000,  0.10000000000E+001
  0.96056500000E+005,  0.24772258452E+007,  0.16500000000E+002,  0.00000000000E+000,  0.10000000000E+001
  0.96116500000E+005,  0.25157318066E+007,  0.16500000000E+002,  0.00000000000E+000,  0.10000000000E+001
  0.96176500000E+005,  0.25512152858E+007,  0.16500000000E+002,  0.00000000000E+000,  0.10000000000E+001
  0.96194400000E+005,  0.25612493599E+007,  0.16500000000E+002,  0.00000000000E+000,  0.10000000000E+001
  0.96254400000E+005,  0.25929145907E+007,  0.16500000000E+002,  0.00000000000E+000,  0.10000000000E+001
  0.96314400000E+005,  0.26223175429E+007,  0.16500000000E+002,  0.00000000000E+000,  0.10000000000E+001
  0.96374400000E+005,  0.26497030976E+007,  0.16500000000E+002,  0.00000000000E+000,  0.10000000000E+001
  0.96434400000E+005,  0.26746205759E+007,  0.16500000000E+002,  0.00000000000E+000,  0.10000000000E+001
  0.96494400000E+005,  0.26967025115E+007,  0.16500000000E+002,  0.00000000000E+000,  0.10000000000E+001
  0.96554400000E+005,  0.27166420281E+007,  0.16500000000E+002,  0.00000000000E+000,  0.10000000000E+001
  0.96614400000E+005,  0.27348991972E+007,  0.16500000000E+002,  0.00000000000E+000,  0.10000000000E+001
  0.96674400000E+005,  0.27518335926E+007,  0.16500000000E+002,  0.00000000000E+000,  0.10000000000E+001
  0.96734400000E+005,  0.27674491860E+007,  0.16500000000E+002,  0.00000000000E+000,  0.10000000000E+001
  0.96794400000E+005,  0.27814859064E+007,  0.16500000000E+002,  0.00000000000E+000,  0.10000000000E+001
  0.96854400000E+005,  0.27942145959E+007,  0.16500000000E+002,  0.00000000000E+000,  0.10000000000E+001
  0.96914400000E+005,  0.28061526738E+007,  0.16500000000E+002,  0.00000000000E+000,  0.10000000000E+001
  0.96974400000E+005,  0.28172592247E+007,  0.16500000000E+002,  0.00000000000E+000,  0.10000000000E+001
  0.97034400000E+005,  0.28268002231E+007,  0.16500000000E+002,  0.00000000000E+000,  0.10000000000E+001
  0.97094400000E+005,  0.28346637463E+007,  0.16500000000E+002,  0.00000000000E+000,  0.10000000000E+001
  0.97154400000E+005,  0.28414298710E+007,  0.16500000000E+002,  0.00000000000E+000,  0.10000000000E+001
  0.97214400000E+005,  0.28475178222E+007,  0.16500000000E+002,  0.00000000000E+000,  0.10000000000E+001
  0.97274400000E+005,  0.28532130896E+007,  0.16500000000E+002,  0.00000000000E+000,  0.10000000000E+001
  0.97334400000E+005,  0.28585859622E+007,  0.16500000000E+002,  0.00000000000E+000,  0.10000000000E+001
  0.97394400000E+005,  0.28644104735E+007,  0.16500000000E+002,  0.00000000000E+000,  0.10000000000E+001
  0.97454400000E+005,  0.28708799599E+007,  0.16500000000E+002,  0.00000000000E+000,  0.10000000000E+001
  0.97510800000E+005,  0.28772663629E+007,  0.16500000000E+002,  0.00000000000E+000,  0.10000000000E+001
  0.97570800000E+005,  0.28842299573E+007,  0.16500000000E+002,  0.00000000000E+000,  0.10000000000E+001
  0.97630800000E+005,  0.28908787657E+007,  0.16500000000E+002,  0.00000000000E+000,  0.10000000000E+001
  0.97690800000E+005,  0.28967593919E+007,  0.16500000000E+002,  0.00000000000E+000,  0.10000000000E+001
  0.97750800000E+005,  0.29017845347E+007,  0.16500000000E+002,  0.00000000000E+000,  0.10000000000E+001
  0.97810800000E+005,  0.29062195490E+007,  0.16500000000E+002,  0.00000000000E+000,  0.10000000000E+001
  0.97870800000E+005,  0.29102432609E+007,  0.16500000000E+002,  0.00000000000E+000,  0.10000000000E+001
  0.97930800000E+005,  0.29139350741E+007,  0.16500000000E+002,  0.00000000000E+000,  0.10000000000E+001
  0.97990800000E+005,  0.29171272466E+007,  0.16500000000E+002,  0.00000000000E+000,  0.10000000000E+001
  0.98050800000E+005,  0.29196273464E+007,  0.16500000000E+002,  0.00000000000E+000,  0.10000000000E+001
  0.98110800000E+005,  0.29215845223E+007,  0.16500000000E+002,  0.00000000000E+000,  0.10000000000E+001
  0.98170800000E+005,  0.29233882947E+007,  0.16500000000E+002,  0.00000000000E+000,  0.10000000000E+001
  0.98230800000E+005,  0.29252553647E+007,  0.16500000000E+002,  0.00000000000E+000,  0.10000000000E+001
  0.98290800000E+005,  0.29270222773E+007,  0.16500000000E+002,  0.00000000000E+000,  0.10000000000E+001
  0.98350800000E+005,  0.29286055401E+007,  0.16500000000E+002,  0.00000000000E+000,  0.10000000000E+001
  0.98410800000E+005,  0.29301795830E+007,  0.16500000000E+002,  0.00000000000E+000,  0.10000000000E+001
  0.98470800000E+005,  0.29319563396E+007,  0.16500000000E+002,  0.00000000000E+000,  0.10000000000E+001
  0.98530800000E+005,  0.29339274884E+007,  0.16500000000E+002,  0.00000000000E+000,  0.10000000000E+001
  0.98590800000E+005,  0.29358897432E+007,  0.16500000000E+002,  0.00000000000E+000,  0.10000000000E+001
  0.98650800000E+005,  0.29377932403E+007,  0.16500000000E+002,  0.00000000000E+000,  0.10000000000E+001
  0.98710800000E+005,  0.29396796797E+007,  0.16500000000E+002,  0.00000000000E+000,  0.10000000000E+001
  0.98770800000E+005,  0.29415089462E+007,  0.16500000000E+002,  0.00000000000E+000,  0.10000000000E+001
  0.98827200000E+005,  0.29431657745E+007,  0.16500000000E+002,  0.00000000000E+000,  0.10000000000E+001
  0.98887200000E+005,  0.29448756519E+007,  0.16500000000E+002,  0.00000000000E+000,  0.10000000000E+001
  0.98947200000E+005,  0.29466333646E+007,  0.16500000000E+002,  0.00000000000E+000,  0.10000000000E+001
  0.99007200000E+005,  0.29485829017E+007,  0.16500000000E+002,  0.00000000000E+000,  0.10000000000E+001
  0.99067200000E+005,  0.29508611381E+007,  0.16500000000E+002,  0.00000000000E+000,  0.10000000000E+001
  0.99127200000E+005,  0.29534612414E+007,  0.16500000000E+002,  0.00000000000E+000,  0.10000000000E+001
  0.99187200000E+005,  0.29561307023E+007,  0.16500000000E+002,  0.00000000000E+000,  0.10000000000E+001
  0.99247200000E+005,  0.29585897004E+007,  0.16500000000E+002,  0.00000000000E+000,  0.10000000000E+001
  0.99307200000E+005,  0.29608817308E+007,  0.16500000000E+002,  0.00000000000E+000,  0.10000000000E+001
  0.99367200000E+005,  0.29631724874E+007,  0.16500000000E+002,  0.00000000000E+000,  0.10000000000E+001
  0.99427200000E+005,  0.29655015681E+007,  0.16500000000E+002,  0.00000000000E+000,  0.10000000000E+001
  0.99487200000E+005,  0.29678345986E+007,  0.16500000000E+002,  0.00000000000E+000,  0.10000000000E+001
  0.99547200000E+005,  0.29702422403E+007,  0.16500000000E+002,  0.00000000000E+000,  0.10000000000E+001
  0.99607200000E+005,  0.29727127980E+007,  0.16500000000E+002,  0.00000000000E+000,  0.10000000000E+001
  0.99667200000E+005,  0.29752338502E+007,  0.16500000000E+002,  0.00000000000E+000,  0.10000000000E+001
  0.99727200000E+005,  0.29778602263E+007,  0.16500000000E+002,  0.00000000000E+000,  0.10000000000E+001
  0.99787200000E+005,  0.29805756283E+007,  0.16500000000E+002,  0.00000000000E+000,  0.10000000000E+001
  0.99847200000E+005,  0.29830763788E+007,  0.16500000000E+002,  0.00000000000E+000,  0.10000000000E+001
  0.99907200000E+005,  0.29848306087E+007,  0.16500000000E+002,  0.00000000000E+000,  0.10000000000E+001
  0.99967200000E+005,  0.29863134760E+007,  0.16500000000E+002,  0.00000000000E+000,  0.10000000000E+001
  0.10002720000E+006,  0.29876716561E+007,  0.16500000000E+002,  0.00000000000E+000,  0.10000000000E+001
  0.10008720000E+006,  0.29890897815E+007,  0.16500000000E+002,  0.00000000000E+000,  0.10000000000E+001
  0.10014300000E+006,  0.29905319618E+007,  0.16500000000E+002,  0.00000000000E+000,  0.10000000000E+001
  0.10020300000E+006,  0.29922383106E+007,  0.16500000000E+002,  0.00000000000E+000,  0.10000000000E+001
  0.10026300000E+006,  0.29940971770E+007,  0.16500000000E+002,  0.00000000000E+000,  0.10000000000E+001
  0.10032300000E+006,  0.29961158685E+007,  0.16500000000E+002,  0.00000000000E+000,  0.10000000000E+001
  0.10038300000E+006,  0.29982438223E+007,  0.16500000000E+002,  0.00000000000E+000,  0.10000000000E+001
  0.10044300000E+006,  0.30003511897E+007,  0.16500000000E+002,  0.00000000000E+000,  0.10000000000E+001
  0.10050300000E+006,  0.30023228858E+007,  0.16500000000E+002,  0.00000000000E+000,  0.10000000000E+001
  0.10056300000E+006,  0.30041431289E+007,  0.16500000000E+002,  0.00000000000E+000,  0.10000000000E+001
  0.10062300000E+006,  0.30058401287E+007,  0.16500000000E+002,  0.00000000000E+000,  0.10000000000E+001
  0.10068300000E+006,  0.30073835313E+007,  0.16500000000E+002,  0.00000000000E+000,  0.10000000000E+001
  0.10074300000E+006,  0.30086730210E+007,  0.16500000000E+002,  0.00000000000E+000,  0.10000000000E+001
  0.10080300000E+006,  0.30096223035E+007,  0.16500000000E+002,  0.00000000000E+000,  0.10000000000E+001
  0.10086300000E+006,  0.30102212618E+007,  0.16500000000E+002,  0.00000000000E+000,  0.10000000000E+001
  0.10092300000E+006,  0.30105190468E+007,  0.16500000000E+002,  0.00000000000E+000,  0.10000000000E+001
  0.10098300000E+006,  0.30105769413E+007,  0.16500000000E+002,  0.00000000000E+000,  0.10000000000E+001
  0.10104300000E+006,  0.30104569004E+007,  0.16500000000E+002,  0.00000000000E+000,  0.10000000000E+001
  0.10110300000E+006,  0.30102873756E+007,  0.16500000000E+002,  0.00000000000E+000,  0.10000000000E+001
  0.10116300000E+006,  0.30102329337E+007,  0.16500000000E+002,  0.00000000000E+000,  0.10000000000E+001
  0.10122300000E+006,  0.30103966730E+007,  0.16500000000E+002,  0.00000000000E+000,  0.10000000000E+001
  0.10128300000E+006,  0.30108055212E+007,  0.16500000000E+002,  0.00000000000E+000,  0.10000000000E+001
  0.10134300000E+006,  0.30114391385E+007,  0.16500000000E+002,  0.00000000000E+000,  0.10000000000E+001
  0.10140300000E+006,  0.30122459403E+007,  0.16500000000E+002,  0.00000000000E+000,  0.10000000000E+001
  0.10146000000E+006,  0.30131078748E+007,  0.16500000000E+002,  0.00000000000E+000,  0.10000000000E+001
  0.10152000000E+006,  0.30140650548E+007,  0.16500000000E+002,  0.00000000000E+000,  0.10000000000E+001
  0.10158000000E+006,  0.30150273602E+007,  0.16500000000E+002,  0.00000000000E+000,  0.10000000000E+001
  0.10164000000E+006,  0.30159744392E+007,  0.16500000000E+002,  0.00000000000E+000,  0.10000000000E+001
  0.10170000000E+006,  0.30169271334E+007,  0.16500000000E+002,  0.00000000000E+000,  0.10000000000E+001
  0.10176000000E+006,  0.30179117800E+007,  0.16500000000E+002,  0.00000000000E+000,  0.10000000000E+001
  0.10182000000E+006,  0.30189321917E+007,  0.16500000000E+002,  0.00000000000E+000,  0.10000000000E+001
  0.10188000000E+006,  0.30199991560E+007,  0.16500000000E+002,  0.00000000000E+000,  0.10000000000E+001
  0.10194000000E+006,  0.30211393480E+007,  0.16500000000E+002,  0.00000000000E+000,  0.10000000000E+001
  0.10200000000E+006,  0.30223510433E+007,  0.16500000000E+002,  0.00000000000E+000,  0.10000000000E+001
  0.10206000000E+006,  0.30243591033E+007,  0.16500000000E+002,  0.00000000000E+000,  0.10000000000E+001
  0.10212000000E+006,  0.30264783694E+007,  0.16500000000E+002,  0.00000000000E+000,  0.10000000000E+001
  0.10218000000E+006,  0.30286949412E+007,  0.16500000000E+002,  0.00000000000E+000,  0.10000000000E+001
  0.10224000000E+006,  0.30309786665E+007,  0.16500000000E+002,  0.00000000000E+000,  0.10000000000E+001
  0.10230000000E+006,  0.30332938871E+007,  0.16500000000E+002,  0.00000000000E+000,  0.10000000000E+001
  0.10236000000E+006,  0.30356414945E+007,  0.16500000000E+002,  0.00000000000E+000,  0.10000000000E+001
  0.10242000000E+006,  0.30380404971E+007,  0.16500000000E+002,  0.00000000000E+000,  0.10000000000E+001
  0.10248000000E+006,  0.30405032754E+007,  0.16500000000E+002,  0.00000000000E+000,  0.10000000000E+001
  0.10254000000E+006,  0.30430064136E+007,  0.16500000000E+002,  0.00000000000E+000,  0.10000000000E+001
  0.10260000000E+006,  0.30454872969E+007,  0.16500000000E+002,  0.00000000000E+000,  0.10000000000E+001
  0.10266000000E+006,  0.30478847679E+007,  0.16500000000E+002,  0.00000000000E+000,  0.10000000000E+001
  0.10272000000E+006,  0.30501503317E+007,  0.16500000000E+002,  0.00000000000E+000,  0.10000000000E+001
  0.10277600000E+006,  0.30521018711E+007,  0.16500000000E+002,  0.00000000000E+000,  0.10000000000E+001
  0.10283600000E+006,  0.30539486102E+007,  0.16500000000E+002,  0.00000000000E+000,  0.10000000000E+001
  0.10289600000E+006,  0.30555288390E+007,  0.16500000000E+002,  0.00000000000E+000,  0.10000000000E+001
  0.10295600000E+006,  0.30568878859E+007,  0.16500000000E+002,  0.00000000000E+000,  0.10000000000E+001
  0.10301600000E+006,  0.30581138432E+007,  0.16500000000E+002,  0.00000000000E+000,  0.10000000000E+001
  0.10307600000E+006,  0.30592904904E+007,  0.16500000000E+002,  0.00000000000E+000,  0.10000000000E+001
  0.10313600000E+006,  0.30604937379E+007,  0.16500000000E+002,  0.00000000000E+000,  0.10000000000E+001
  0.10319600000E+006,  0.30617831417E+007,  0.16500000000E+002,  0.00000000000E+000,  0.10000000000E+001
  0.10325600000E+006,  0.30631878734E+007,  0.16500000000E+002,  0.00000000000E+000,  0.10000000000E+001
  0.10331600000E+006,  0.30647063112E+007,  0.16500000000E+002,  0.00000000000E+000,  0.10000000000E+001
  0.10337600000E+006,  0.30663209514E+007,  0.16500000000E+002,  0.00000000000E+000,  0.10000000000E+001
  0.10343600000E+006,  0.30680196429E+007,  0.16500000000E+002,  0.00000000000E+000,  0.10000000000E+001
  0.10349600000E+006,  0.30698037295E+007,  0.16500000000E+002,  0.00000000000E+000,  0.10000000000E+001
  0.10355600000E+006,  0.30716826082E+007,  0.16500000000E+002,  0.00000000000E+000,  0.10000000000E+001
  0.10361600000E+006,  0.30736696511E+007,  0.16500000000E+002,  0.00000000000E+000,  0.10000000000E+001
  0.10367600000E+006,  0.30757745874E+007,  0.16500000000E+002,  0.00000000000E+000,  0.10000000000E+001
  0.10373600000E+006,  0.30779875632E+007,  0.16500000000E+002,  0.00000000000E+000,  0.10000000000E+001
  0.10379600000E+006,  0.30802741515E+007,  0.16500000000E+002,  0.00000000000E+000,  0.10000000000E+001
  0.10385600000E+006,  0.30825863028E+007,  0.16500000000E+002,  0.00000000000E+000,  0.10000000000E+001
  0.10391600000E+006,  0.30848685071E+007,  0.16500000000E+002,  0.00000000000E+000,  0.10000000000E+001
  0.10397600000E+006,  0.30870667397E+007,  0.16500000000E+002,  0.00000000000E+000,  0.10000000000E+001
  0.10403600000E+006,  0.30891370950E+007,  0.16500000000E+002,  0.00000000000E+000,  0.10000000000E+001
  0.10409200000E+006,  0.30909261791E+007,  0.16500000000E+002,  0.00000000000E+000,  0.10000000000E+001
  0.10415200000E+006,  0.30926618759E+007,  0.16500000000E+002,  0.00000000000E+000,  0.10000000000E+001
  0.10421200000E+006,  0.30942255994E+007,  0.16500000000E+002,  0.00000000000E+000,  0.10000000000E+001
  0.10427200000E+006,  0.30956295746E+007,  0.16500000000E+002,  0.00000000000E+000,  0.10000000000E+001
