"           TIME(S)","              PRES","              TEMP","             SAT_G","             SAT_L"
  0.94878500000E+005,  0.98086335661E+006,  0.16500000000E+002,  0.00000000000E+000,  0.10000000000E+001
  0.94881000000E+005,  0.98086335660E+006,  0.16500000000E+002,  0.00000000000E+000,  0.10000000000E+001
  0.94891000000E+005,  0.98086335657E+006,  0.16500000000E+002,  0.00000000000E+000,  0.10000000000E+001
  0.94901000000E+005,  0.98086335654E+006,  0.16500000000E+002,  0.00000000000E+000,  0.10000000000E+001
  0.94911000000E+005,  0.98086335651E+006,  0.16500000000E+002,  0.00000000000E+000,  0.10000000000E+001
  0.94921000000E+005,  0.98086335649E+006,  0.16500000000E+002,  0.00000000000E+000,  0.10000000000E+001
  0.94931000000E+005,  0.98086335646E+006,  0.16500000000E+002,  0.00000000000E+000,  0.10000000000E+001
  0.94941000000E+005,  0.98086335643E+006,  0.16500000000E+002,  0.00000000000E+000,  0.10000000000E+001
  0.94951000000E+005,  0.98086335640E+006,  0.16500000000E+002,  0.00000000000E+000,  0.10000000000E+001
  0.94961000000E+005,  0.98086335637E+006,  0.16500000000E+002,  0.00000000000E+000,  0.10000000000E+001
  0.94971000000E+005,  0.98086335634E+006,  0.16500000000E+002,  0.00000000000E+000,  0.10000000000E+001
  0.94981000000E+005,  0.98086335631E+006,  0.16500000000E+002,  0.00000000000E+000,  0.10000000000E+001
  0.94991000000E+005,  0.98086335628E+006,  0.16500000000E+002,  0.00000000000E+000,  0.10000000000E+001
  0.95001000000E+005,  0.98086335625E+006,  0.16500000000E+002,  0.00000000000E+000,  0.10000000000E+001
  0.95011000000E+005,  0.98086335622E+006,  0.16500000000E+002,  0.00000000000E+000,  0.10000000000E+001
  0.95021000000E+005,  0.98086335619E+006,  0.16500000000E+002,  0.00000000000E+000,  0.10000000000E+001
  0.95031000000E+005,  0.98086335616E+006,  0.16500000000E+002,  0.00000000000E+000,  0.10000000000E+001
  0.95041000000E+005,  0.98086335613E+006,  0.16500000000E+002,  0.00000000000E+000,  0.10000000000E+001
  0.95051000000E+005,  0.98086335610E+006,  0.16500000000E+002,  0.00000000000E+000,  0.10000000000E+001
  0.95061000000E+005,  0.98086335607E+006,  0.16500000000E+002,  0.00000000000E+000,  0.10000000000E+001
  0.95071000000E+005,  0.98086335604E+006,  0.16500000000E+002,  0.00000000000E+000,  0.10000000000E+001
  0.95081000000E+005,  0.98086335602E+006,  0.16500000000E+002,  0.00000000000E+000,  0.10000000000E+001
  0.95091000000E+005,  0.98086335599E+006,  0.16500000000E+002,  0.00000000000E+000,  0.10000000000E+001
  0.95101000000E+005,  0.98086335596E+006,  0.16500000000E+002,  0.00000000000E+000,  0.10000000000E+001
  0.95111000000E+005,  0.98086335593E+006,  0.16500000000E+002,  0.00000000000E+000,  0.10000000000E+001
  0.95121000000E+005,  0.98086335590E+006,  0.16500000000E+002,  0.00000000000E+000,  0.10000000000E+001
  0.95131000000E+005,  0.98086335587E+006,  0.16500000000E+002,  0.00000000000E+000,  0.10000000000E+001
  0.95141000000E+005,  0.98086335584E+006,  0.16500000000E+002,  0.00000000000E+000,  0.10000000000E+001
  0.95151000000E+005,  0.98086335581E+006,  0.16500000000E+002,  0.00000000000E+000,  0.10000000000E+001
  0.95161000000E+005,  0.98086335578E+006,  0.16500000000E+002,  0.00000000000E+000,  0.10000000000E+001
  0.95171000000E+005,  0.98086335575E+006,  0.16500000000E+002,  0.00000000000E+000,  0.10000000000E+001
  0.95181000000E+005,  0.98086335573E+006,  0.16500000000E+002,  0.00000000000E+000,  0.10000000000E+001
  0.95191000000E+005,  0.98086335570E+006,  0.16500000000E+002,  0.00000000000E+000,  0.10000000000E+001
  0.95201000000E+005,  0.98086335567E+006,  0.16500000000E+002,  0.00000000000E+000,  0.10000000000E+001
  0.95201500000E+005,  0.98086335567E+006,  0.16500000000E+002,  0.00000000000E+000,  0.10000000000E+001
  0.95204000000E+005,  0.98086335566E+006,  0.16500000000E+002,  0.00000000000E+000,  0.10000000000E+001
  0.95216500000E+005,  0.98086335562E+006,  0.16500000000E+002,  0.00000000000E+000,  0.10000000000E+001
  0.95276500000E+005,  0.98086335545E+006,  0.16500000000E+002,  0.00000000000E+000,  0.10000000000E+001
  0.95336500000E+005,  0.98086335528E+006,  0.16500000000E+002,  0.00000000000E+000,  0.10000000000E+001
  0.95396500000E+005,  0.98086335512E+006,  0.16500000000E+002,  0.00000000000E+000,  0.10000000000E+001
  0.95456500000E+005,  0.98086335495E+006,  0.16500000000E+002,  0.00000000000E+000,  0.10000000000E+001
  0.95516500000E+005,  0.98086335478E+006,  0.16500000000E+002,  0.00000000000E+000,  0.10000000000E+001
  0.95576500000E+005,  0.98086335461E+006,  0.16500000000E+002,  0.00000000000E+000,  0.10000000000E+001
  0.95636500000E+005,  0.98086335445E+006,  0.16500000000E+002,  0.00000000000E+000,  0.10000000000E+001
  0.95696500000E+005,  0.98086335429E+006,  0.16500000000E+002,  0.00000000000E+000,  0.10000000000E+001
  0.95756500000E+005,  0.98086335412E+006,  0.16500000000E+002,  0.00000000000E+000,  0.10000000000E+001
  0.95816500000E+005,  0.98086335396E+006,  0.16500000000E+002,  0.00000000000E+000,  0.10000000000E+001
  0.95876500000E+005,  0.98086335380E+006,  0.16500000000E+002,  0.00000000000E+000,  0.10000000000E+001
  0.95936500000E+005,  0.98086335364E+006,  0.16500000000E+002,  0.00000000000E+000,  0.10000000000E+001
  0.95996500000E+005,  0.98086335348E+006,  0.16500000000E+002,  0.00000000000E+000,  0.10000000000E+001
  0.96056500000E+005,  0.98086335332E+006,  0.16500000000E+002,  0.00000000000E+000,  0.10000000000E+001
  0.96116500000E+005,  0.98086335317E+006,  0.16500000000E+002,  0.00000000000E+000,  0.10000000000E+001
  0.96176500000E+005,  0.98086335301E+006,  0.16500000000E+002,  0.00000000000E+000,  0.10000000000E+001
  0.96236500000E+005,  0.98086335286E+006,  0.16500000000E+002,  0.00000000000E+000,  0.10000000000E+001
  0.96296500000E+005,  0.98086335270E+006,  0.16500000000E+002,  0.00000000000E+000,  0.10000000000E+001
  0.96356500000E+005,  0.98086335255E+006,  0.16500000000E+002,  0.00000000000E+000,  0.10000000000E+001
  0.96416500000E+005,  0.98086335240E+006,  0.16500000000E+002,  0.00000000000E+000,  0.10000000000E+001
  0.96476500000E+005,  0.98086335225E+006,  0.16500000000E+002,  0.00000000000E+000,  0.10000000000E+001
  0.96536500000E+005,  0.98086335210E+006,  0.16500000000E+002,  0.00000000000E+000,  0.10000000000E+001
  0.96596500000E+005,  0.98086335195E+006,  0.16500000000E+002,  0.00000000000E+000,  0.10000000000E+001
  0.96656500000E+005,  0.98086335180E+006,  0.16500000000E+002,  0.00000000000E+000,  0.10000000000E+001
  0.96716500000E+005,  0.98086335165E+006,  0.16500000000E+002,  0.00000000000E+000,  0.10000000000E+001
  0.96776500000E+005,  0.98086335151E+006,  0.16500000000E+002,  0.00000000000E+000,  0.10000000000E+001
  0.96836500000E+005,  0.98086335136E+006,  0.16500000000E+002,  0.00000000000E+000,  0.10000000000E+001
  0.96896500000E+005,  0.98086335122E+006,  0.16500000000E+002,  0.00000000000E+000,  0.10000000000E+001
  0.96956500000E+005,  0.98086335107E+006,  0.16500000000E+002,  0.00000000000E+000,  0.10000000000E+001
  0.97016500000E+005,  0.98086335093E+006,  0.16500000000E+002,  0.00000000000E+000,  0.10000000000E+001
  0.97076500000E+005,  0.98086335079E+006,  0.16500000000E+002,  0.00000000000E+000,  0.10000000000E+001
  0.97136500000E+005,  0.98086335065E+006,  0.16500000000E+002,  0.00000000000E+000,  0.10000000000E+001
  0.97196500000E+005,  0.98086335051E+006,  0.16500000000E+002,  0.00000000000E+000,  0.10000000000E+001
  0.97256500000E+005,  0.98086335037E+006,  0.16500000000E+002,  0.00000000000E+000,  0.10000000000E+001
  0.97316500000E+005,  0.98086335023E+006,  0.16500000000E+002,  0.00000000000E+000,  0.10000000000E+001
  0.97376500000E+005,  0.98086335009E+006,  0.16500000000E+002,  0.00000000000E+000,  0.10000000000E+001
  0.97436500000E+005,  0.98086334995E+006,  0.16500000000E+002,  0.00000000000E+000,  0.10000000000E+001
  0.97496500000E+005,  0.98086334982E+006,  0.16500000000E+002,  0.00000000000E+000,  0.10000000000E+001
  0.97556500000E+005,  0.98086334968E+006,  0.16500000000E+002,  0.00000000000E+000,  0.10000000000E+001
  0.97616500000E+005,  0.98086334955E+006,  0.16500000000E+002,  0.00000000000E+000,  0.10000000000E+001
  0.97676500000E+005,  0.98086334942E+006,  0.16500000000E+002,  0.00000000000E+000,  0.10000000000E+001
  0.97736500000E+005,  0.98086334928E+006,  0.16500000000E+002,  0.00000000000E+000,  0.10000000000E+001
  0.97796500000E+005,  0.98086334915E+006,  0.16500000000E+002,  0.00000000000E+000,  0.10000000000E+001
  0.97856500000E+005,  0.98086334902E+006,  0.16500000000E+002,  0.00000000000E+000,  0.10000000000E+001
  0.97916500000E+005,  0.98086334889E+006,  0.16500000000E+002,  0.00000000000E+000,  0.10000000000E+001
  0.97976500000E+005,  0.98086334876E+006,  0.16500000000E+002,  0.00000000000E+000,  0.10000000000E+001
  0.98036500000E+005,  0.98086334863E+006,  0.16500000000E+002,  0.00000000000E+000,  0.10000000000E+001
  0.98096500000E+005,  0.98086334850E+006,  0.16500000000E+002,  0.00000000000E+000,  0.10000000000E+001
  0.98156500000E+005,  0.98086334837E+006,  0.16500000000E+002,  0.00000000000E+000,  0.10000000000E+001
  0.98216500000E+005,  0.98086334825E+006,  0.16500000000E+002,  0.00000000000E+000,  0.10000000000E+001
  0.98276500000E+005,  0.98086334812E+006,  0.16500000000E+002,  0.00000000000E+000,  0.10000000000E+001
  0.98336500000E+005,  0.98086334799E+006,  0.16500000000E+002,  0.00000000000E+000,  0.10000000000E+001
  0.98396500000E+005,  0.98086334787E+006,  0.16500000000E+002,  0.00000000000E+000,  0.10000000000E+001
  0.98456500000E+005,  0.98086334774E+006,  0.16500000000E+002,  0.00000000000E+000,  0.10000000000E+001
  0.98516500000E+005,  0.98086334762E+006,  0.16500000000E+002,  0.00000000000E+000,  0.10000000000E+001
  0.98576500000E+005,  0.98086334750E+006,  0.16500000000E+002,  0.00000000000E+000,  0.10000000000E+001
  0.98636500000E+005,  0.98086334738E+006,  0.16500000000E+002,  0.00000000000E+000,  0.10000000000E+001
  0.98696500000E+005,  0.98086334725E+006,  0.16500000000E+002,  0.00000000000E+000,  0.10000000000E+001
  0.98756500000E+005,  0.98086334713E+006,  0.16500000000E+002,  0.00000000000E+000,  0.10000000000E+001
  0.98816500000E+005,  0.98086334701E+006,  0.16500000000E+002,  0.00000000000E+000,  0.10000000000E+001
  0.98876500000E+005,  0.98086334689E+006,  0.16500000000E+002,  0.00000000000E+000,  0.10000000000E+001
  0.98936500000E+005,  0.98086334677E+006,  0.16500000000E+002,  0.00000000000E+000,  0.10000000000E+001
  0.98996500000E+005,  0.98086334666E+006,  0.16500000000E+002,  0.00000000000E+000,  0.10000000000E+001
  0.99056500000E+005,  0.98086334654E+006,  0.16500000000E+002,  0.00000000000E+000,  0.10000000000E+001
  0.99116500000E+005,  0.98086334642E+006,  0.16500000000E+002,  0.00000000000E+000,  0.10000000000E+001
  0.99176500000E+005,  0.98086334630E+006,  0.16500000000E+002,  0.00000000000E+000,  0.10000000000E+001
  0.99236500000E+005,  0.98086334619E+006,  0.16500000000E+002,  0.00000000000E+000,  0.10000000000E+001
  0.99296500000E+005,  0.98086334607E+006,  0.16500000000E+002,  0.00000000000E+000,  0.10000000000E+001
  0.99356500000E+005,  0.98086334596E+006,  0.16500000000E+002,  0.00000000000E+000,  0.10000000000E+001
  0.99416500000E+005,  0.98086334584E+006,  0.16500000000E+002,  0.00000000000E+000,  0.10000000000E+001
  0.99476500000E+005,  0.98086334573E+006,  0.16500000000E+002,  0.00000000000E+000,  0.10000000000E+001
  0.99536500000E+005,  0.98086334562E+006,  0.16500000000E+002,  0.00000000000E+000,  0.10000000000E+001
  0.99596500000E+005,  0.98086334551E+006,  0.16500000000E+002,  0.00000000000E+000,  0.10000000000E+001
  0.99656500000E+005,  0.98086334539E+006,  0.16500000000E+002,  0.00000000000E+000,  0.10000000000E+001
  0.99716500000E+005,  0.98086334528E+006,  0.16500000000E+002,  0.00000000000E+000,  0.10000000000E+001
  0.99776500000E+005,  0.98086334517E+006,  0.16500000000E+002,  0.00000000000E+000,  0.10000000000E+001
  0.99836500000E+005,  0.98086334506E+006,  0.16500000000E+002,  0.00000000000E+000,  0.10000000000E+001
  0.99896500000E+005,  0.98086334495E+006,  0.16500000000E+002,  0.00000000000E+000,  0.10000000000E+001
  0.99956500000E+005,  0.98086334484E+006,  0.16500000000E+002,  0.00000000000E+000,  0.10000000000E+001
  0.10001650000E+006,  0.98086334473E+006,  0.16500000000E+002,  0.00000000000E+000,  0.10000000000E+001
  0.10007650000E+006,  0.98086334463E+006,  0.16500000000E+002,  0.00000000000E+000,  0.10000000000E+001
  0.10013650000E+006,  0.98086334452E+006,  0.16500000000E+002,  0.00000000000E+000,  0.10000000000E+001
  0.10019650000E+006,  0.98086334441E+006,  0.16500000000E+002,  0.00000000000E+000,  0.10000000000E+001
  0.10025650000E+006,  0.98086334431E+006,  0.16500000000E+002,  0.00000000000E+000,  0.10000000000E+001
  0.10031650000E+006,  0.98086334420E+006,  0.16500000000E+002,  0.00000000000E+000,  0.10000000000E+001
  0.10037650000E+006,  0.98086334409E+006,  0.16500000000E+002,  0.00000000000E+000,  0.10000000000E+001
  0.10043650000E+006,  0.98086334399E+006,  0.16500000000E+002,  0.00000000000E+000,  0.10000000000E+001
  0.10049650000E+006,  0.98086334388E+006,  0.16500000000E+002,  0.00000000000E+000,  0.10000000000E+001
  0.10055650000E+006,  0.98086334378E+006,  0.16500000000E+002,  0.00000000000E+000,  0.10000000000E+001
  0.10061650000E+006,  0.98086334368E+006,  0.16500000000E+002,  0.00000000000E+000,  0.10000000000E+001
  0.10067650000E+006,  0.98086334357E+006,  0.16500000000E+002,  0.00000000000E+000,  0.10000000000E+001
  0.10073650000E+006,  0.98086334347E+006,  0.16500000000E+002,  0.00000000000E+000,  0.10000000000E+001
  0.10079650000E+006,  0.98086334337E+006,  0.16500000000E+002,  0.00000000000E+000,  0.10000000000E+001
  0.10085650000E+006,  0.98086334327E+006,  0.16500000000E+002,  0.00000000000E+000,  0.10000000000E+001
  0.10091650000E+006,  0.98086334317E+006,  0.16500000000E+002,  0.00000000000E+000,  0.10000000000E+001
  0.10097650000E+006,  0.98086334307E+006,  0.16500000000E+002,  0.00000000000E+000,  0.10000000000E+001
  0.10103650000E+006,  0.98086334297E+006,  0.16500000000E+002,  0.00000000000E+000,  0.10000000000E+001
  0.10109650000E+006,  0.98086334287E+006,  0.16500000000E+002,  0.00000000000E+000,  0.10000000000E+001
  0.10115650000E+006,  0.98086334277E+006,  0.16500000000E+002,  0.00000000000E+000,  0.10000000000E+001
  0.10121650000E+006,  0.98086334268E+006,  0.16500000000E+002,  0.00000000000E+000,  0.10000000000E+001
  0.10127650000E+006,  0.98086334258E+006,  0.16500000000E+002,  0.00000000000E+000,  0.10000000000E+001
  0.10133650000E+006,  0.98086334248E+006,  0.16500000000E+002,  0.00000000000E+000,  0.10000000000E+001
  0.10139650000E+006,  0.98086334239E+006,  0.16500000000E+002,  0.00000000000E+000,  0.10000000000E+001
  0.10145650000E+006,  0.98086334229E+006,  0.16500000000E+002,  0.00000000000E+000,  0.10000000000E+001
  0.10151650000E+006,  0.98086334220E+006,  0.16500000000E+002,  0.00000000000E+000,  0.10000000000E+001
  0.10157650000E+006,  0.98086334210E+006,  0.16500000000E+002,  0.00000000000E+000,  0.10000000000E+001
  0.10163650000E+006,  0.98086334201E+006,  0.16500000000E+002,  0.00000000000E+000,  0.10000000000E+001
  0.10169650000E+006,  0.98086334191E+006,  0.16500000000E+002,  0.00000000000E+000,  0.10000000000E+001
  0.10175650000E+006,  0.98086334182E+006,  0.16500000000E+002,  0.00000000000E+000,  0.10000000000E+001
  0.10181650000E+006,  0.98086334173E+006,  0.16500000000E+002,  0.00000000000E+000,  0.10000000000E+001
  0.10187650000E+006,  0.98086334164E+006,  0.16500000000E+002,  0.00000000000E+000,  0.10000000000E+001
  0.10193650000E+006,  0.98086334154E+006,  0.16500000000E+002,  0.00000000000E+000,  0.10000000000E+001
  0.10199650000E+006,  0.98086334145E+006,  0.16500000000E+002,  0.00000000000E+000,  0.10000000000E+001
  0.10205650000E+006,  0.98086334136E+006,  0.16500000000E+002,  0.00000000000E+000,  0.10000000000E+001
  0.10211650000E+006,  0.98086334127E+006,  0.16500000000E+002,  0.00000000000E+000,  0.10000000000E+001
  0.10217650000E+006,  0.98086334118E+006,  0.16500000000E+002,  0.00000000000E+000,  0.10000000000E+001
  0.10223650000E+006,  0.98086334109E+006,  0.16500000000E+002,  0.00000000000E+000,  0.10000000000E+001
  0.10229650000E+006,  0.98086334100E+006,  0.16500000000E+002,  0.00000000000E+000,  0.10000000000E+001
  0.10235650000E+006,  0.98086334091E+006,  0.16500000000E+002,  0.00000000000E+000,  0.10000000000E+001
  0.10241650000E+006,  0.98086334083E+006,  0.16500000000E+002,  0.00000000000E+000,  0.10000000000E+001
  0.10247650000E+006,  0.98086334074E+006,  0.16500000000E+002,  0.00000000000E+000,  0.10000000000E+001
  0.10253650000E+006,  0.98086334065E+006,  0.16500000000E+002,  0.00000000000E+000,  0.10000000000E+001
  0.10259650000E+006,  0.98086334056E+006,  0.16500000000E+002,  0.00000000000E+000,  0.10000000000E+001
  0.10265650000E+006,  0.98086334048E+006,  0.16500000000E+002,  0.00000000000E+000,  0.10000000000E+001
  0.10271650000E+006,  0.98086334039E+006,  0.16500000000E+002,  0.00000000000E+000,  0.10000000000E+001
  0.10277650000E+006,  0.98086334030E+006,  0.16500000000E+002,  0.00000000000E+000,  0.10000000000E+001
  0.10283650000E+006,  0.98086334022E+006,  0.16500000000E+002,  0.00000000000E+000,  0.10000000000E+001
  0.10289650000E+006,  0.98086334013E+006,  0.16500000000E+002,  0.00000000000E+000,  0.10000000000E+001
  0.10295650000E+006,  0.98086334005E+006,  0.16500000000E+002,  0.00000000000E+000,  0.10000000000E+001
  0.10301650000E+006,  0.98086333996E+006,  0.16500000000E+002,  0.00000000000E+000,  0.10000000000E+001
  0.10307650000E+006,  0.98086333988E+006,  0.16500000000E+002,  0.00000000000E+000,  0.10000000000E+001
  0.10313650000E+006,  0.98086333980E+006,  0.16500000000E+002,  0.00000000000E+000,  0.10000000000E+001
  0.10319650000E+006,  0.98086333971E+006,  0.16500000000E+002,  0.00000000000E+000,  0.10000000000E+001
  0.10325650000E+006,  0.98086333963E+006,  0.16500000000E+002,  0.00000000000E+000,  0.10000000000E+001
  0.10331650000E+006,  0.98086333955E+006,  0.16500000000E+002,  0.00000000000E+000,  0.10000000000E+001
  0.10337650000E+006,  0.98086333947E+006,  0.16500000000E+002,  0.00000000000E+000,  0.10000000000E+001
  0.10343650000E+006,  0.98086333938E+006,  0.16500000000E+002,  0.00000000000E+000,  0.10000000000E+001
  0.10349650000E+006,  0.98086333930E+006,  0.16500000000E+002,  0.00000000000E+000,  0.10000000000E+001
  0.10355650000E+006,  0.98086333922E+006,  0.16500000000E+002,  0.00000000000E+000,  0.10000000000E+001
  0.10361650000E+006,  0.98086333914E+006,  0.16500000000E+002,  0.00000000000E+000,  0.10000000000E+001
  0.10367650000E+006,  0.98086333906E+006,  0.16500000000E+002,  0.00000000000E+000,  0.10000000000E+001
  0.10373650000E+006,  0.98086333898E+006,  0.16500000000E+002,  0.00000000000E+000,  0.10000000000E+001
  0.10379650000E+006,  0.98086333891E+006,  0.16500000000E+002,  0.00000000000E+000,  0.10000000000E+001
  0.10385650000E+006,  0.98086333883E+006,  0.16500000000E+002,  0.00000000000E+000,  0.10000000000E+001
  0.10391650000E+006,  0.98086333875E+006,  0.16500000000E+002,  0.00000000000E+000,  0.10000000000E+001
  0.10397650000E+006,  0.98086333867E+006,  0.16500000000E+002,  0.00000000000E+000,  0.10000000000E+001
  0.10403650000E+006,  0.98086333859E+006,  0.16500000000E+002,  0.00000000000E+000,  0.10000000000E+001
  0.10409650000E+006,  0.98086333852E+006,  0.16500000000E+002,  0.00000000000E+000,  0.10000000000E+001
  0.10415650000E+006,  0.98086333844E+006,  0.16500000000E+002,  0.00000000000E+000,  0.10000000000E+001
  0.10421650000E+006,  0.98086333836E+006,  0.16500000000E+002,  0.00000000000E+000,  0.10000000000E+001
  0.10427650000E+006,  0.98086333829E+006,  0.16500000000E+002,  0.00000000000E+000,  0.10000000000E+001
  0.10433650000E+006,  0.98086333821E+006,  0.16500000000E+002,  0.00000000000E+000,  0.10000000000E+001
