"           TIME(S)","              PRES","              TEMP","             SAT_G","             SAT_L"
  0.94878500000E+005,  0.10403449136E+007,  0.16500000000E+002,  0.00000000000E+000,  0.10000000000E+001
  0.94881000000E+005,  0.10403449135E+007,  0.16500000000E+002,  0.00000000000E+000,  0.10000000000E+001
  0.94891000000E+005,  0.10403449133E+007,  0.16500000000E+002,  0.00000000000E+000,  0.10000000000E+001
  0.94901000000E+005,  0.10403449130E+007,  0.16500000000E+002,  0.00000000000E+000,  0.10000000000E+001
  0.94911000000E+005,  0.10403449128E+007,  0.16500000000E+002,  0.00000000000E+000,  0.10000000000E+001
  0.94921000000E+005,  0.10403449125E+007,  0.16500000000E+002,  0.00000000000E+000,  0.10000000000E+001
  0.94931000000E+005,  0.10403449123E+007,  0.16500000000E+002,  0.00000000000E+000,  0.10000000000E+001
  0.94941000000E+005,  0.10403449120E+007,  0.16500000000E+002,  0.00000000000E+000,  0.10000000000E+001
  0.94951000000E+005,  0.10403449118E+007,  0.16500000000E+002,  0.00000000000E+000,  0.10000000000E+001
  0.94961000000E+005,  0.10403449115E+007,  0.16500000000E+002,  0.00000000000E+000,  0.10000000000E+001
  0.94971000000E+005,  0.10403449113E+007,  0.16500000000E+002,  0.00000000000E+000,  0.10000000000E+001
  0.94981000000E+005,  0.10403449110E+007,  0.16500000000E+002,  0.00000000000E+000,  0.10000000000E+001
  0.94991000000E+005,  0.10403449108E+007,  0.16500000000E+002,  0.00000000000E+000,  0.10000000000E+001
  0.95001000000E+005,  0.10403449105E+007,  0.16500000000E+002,  0.00000000000E+000,  0.10000000000E+001
  0.95011000000E+005,  0.10403449103E+007,  0.16500000000E+002,  0.00000000000E+000,  0.10000000000E+001
  0.95021000000E+005,  0.10403449100E+007,  0.16500000000E+002,  0.00000000000E+000,  0.10000000000E+001
  0.95031000000E+005,  0.10403449098E+007,  0.16500000000E+002,  0.00000000000E+000,  0.10000000000E+001
  0.95041000000E+005,  0.10403449095E+007,  0.16500000000E+002,  0.00000000000E+000,  0.10000000000E+001
  0.95051000000E+005,  0.10403449093E+007,  0.16500000000E+002,  0.00000000000E+000,  0.10000000000E+001
  0.95061000000E+005,  0.10403449090E+007,  0.16500000000E+002,  0.00000000000E+000,  0.10000000000E+001
  0.95071000000E+005,  0.10403449088E+007,  0.16500000000E+002,  0.00000000000E+000,  0.10000000000E+001
  0.95081000000E+005,  0.10403449085E+007,  0.16500000000E+002,  0.00000000000E+000,  0.10000000000E+001
  0.95091000000E+005,  0.10403449083E+007,  0.16500000000E+002,  0.00000000000E+000,  0.10000000000E+001
  0.95101000000E+005,  0.10403449080E+007,  0.16500000000E+002,  0.00000000000E+000,  0.10000000000E+001
  0.95111000000E+005,  0.10403449078E+007,  0.16500000000E+002,  0.00000000000E+000,  0.10000000000E+001
  0.95121000000E+005,  0.10403449076E+007,  0.16500000000E+002,  0.00000000000E+000,  0.10000000000E+001
  0.95131000000E+005,  0.10403449073E+007,  0.16500000000E+002,  0.00000000000E+000,  0.10000000000E+001
  0.95141000000E+005,  0.10403449071E+007,  0.16500000000E+002,  0.00000000000E+000,  0.10000000000E+001
  0.95151000000E+005,  0.10403449068E+007,  0.16500000000E+002,  0.00000000000E+000,  0.10000000000E+001
  0.95161000000E+005,  0.10403449066E+007,  0.16500000000E+002,  0.00000000000E+000,  0.10000000000E+001
  0.95171000000E+005,  0.10403449063E+007,  0.16500000000E+002,  0.00000000000E+000,  0.10000000000E+001
  0.95181000000E+005,  0.10403449061E+007,  0.16500000000E+002,  0.00000000000E+000,  0.10000000000E+001
  0.95191000000E+005,  0.10403449059E+007,  0.16500000000E+002,  0.00000000000E+000,  0.10000000000E+001
  0.95201000000E+005,  0.10403449056E+007,  0.16500000000E+002,  0.00000000000E+000,  0.10000000000E+001
  0.95201500000E+005,  0.10403449056E+007,  0.16500000000E+002,  0.00000000000E+000,  0.10000000000E+001
  0.95204000000E+005,  0.10403449056E+007,  0.16500000000E+002,  0.00000000000E+000,  0.10000000000E+001
  0.95216500000E+005,  0.10403449053E+007,  0.16500000000E+002,  0.00000000000E+000,  0.10000000000E+001
  0.95276500000E+005,  0.10403449039E+007,  0.16500000000E+002,  0.00000000000E+000,  0.10000000000E+001
  0.95336500000E+005,  0.10403449025E+007,  0.16500000000E+002,  0.00000000000E+000,  0.10000000000E+001
  0.95396500000E+005,  0.10403449011E+007,  0.16500000000E+002,  0.00000000000E+000,  0.10000000000E+001
  0.95456500000E+005,  0.10403448998E+007,  0.16500000000E+002,  0.00000000000E+000,  0.10000000000E+001
  0.95516500000E+005,  0.10403448986E+007,  0.16500000000E+002,  0.00000000000E+000,  0.10000000000E+001
  0.95576500000E+005,  0.10403448973E+007,  0.16500000000E+002,  0.00000000000E+000,  0.10000000000E+001
  0.95636500000E+005,  0.10403448961E+007,  0.16500000000E+002,  0.00000000000E+000,  0.10000000000E+001
  0.95696500000E+005,  0.10403448949E+007,  0.16500000000E+002,  0.00000000000E+000,  0.10000000000E+001
  0.95756500000E+005,  0.10403448937E+007,  0.16500000000E+002,  0.00000000000E+000,  0.10000000000E+001
  0.95816500000E+005,  0.10403448926E+007,  0.16500000000E+002,  0.00000000000E+000,  0.10000000000E+001
  0.95876500000E+005,  0.10403448915E+007,  0.16500000000E+002,  0.00000000000E+000,  0.10000000000E+001
  0.95936500000E+005,  0.10403448905E+007,  0.16500000000E+002,  0.00000000000E+000,  0.10000000000E+001
  0.95996500000E+005,  0.10403448895E+007,  0.16500000000E+002,  0.00000000000E+000,  0.10000000000E+001
  0.96056500000E+005,  0.10403448885E+007,  0.16500000000E+002,  0.00000000000E+000,  0.10000000000E+001
  0.96116500000E+005,  0.10403448875E+007,  0.16500000000E+002,  0.00000000000E+000,  0.10000000000E+001
  0.96176500000E+005,  0.10403448866E+007,  0.16500000000E+002,  0.00000000000E+000,  0.10000000000E+001
  0.96236500000E+005,  0.10403448857E+007,  0.16500000000E+002,  0.00000000000E+000,  0.10000000000E+001
  0.96296500000E+005,  0.10403448848E+007,  0.16500000000E+002,  0.00000000000E+000,  0.10000000000E+001
  0.96356500000E+005,  0.10403448839E+007,  0.16500000000E+002,  0.00000000000E+000,  0.10000000000E+001
  0.96416500000E+005,  0.10403448831E+007,  0.16500000000E+002,  0.00000000000E+000,  0.10000000000E+001
  0.96476500000E+005,  0.10403448823E+007,  0.16500000000E+002,  0.00000000000E+000,  0.10000000000E+001
  0.96536500000E+005,  0.10403448816E+007,  0.16500000000E+002,  0.00000000000E+000,  0.10000000000E+001
  0.96596500000E+005,  0.10403448808E+007,  0.16500000000E+002,  0.00000000000E+000,  0.10000000000E+001
  0.96656500000E+005,  0.10403448801E+007,  0.16500000000E+002,  0.00000000000E+000,  0.10000000000E+001
  0.96716500000E+005,  0.10403448794E+007,  0.16500000000E+002,  0.00000000000E+000,  0.10000000000E+001
  0.96776500000E+005,  0.10403448787E+007,  0.16500000000E+002,  0.00000000000E+000,  0.10000000000E+001
  0.96836500000E+005,  0.10403448781E+007,  0.16500000000E+002,  0.00000000000E+000,  0.10000000000E+001
  0.96896500000E+005,  0.10403448775E+007,  0.16500000000E+002,  0.00000000000E+000,  0.10000000000E+001
  0.96956500000E+005,  0.10403448769E+007,  0.16500000000E+002,  0.00000000000E+000,  0.10000000000E+001
  0.97016500000E+005,  0.10403448763E+007,  0.16500000000E+002,  0.00000000000E+000,  0.10000000000E+001
  0.97076500000E+005,  0.10403448758E+007,  0.16500000000E+002,  0.00000000000E+000,  0.10000000000E+001
  0.97136500000E+005,  0.10403448752E+007,  0.16500000000E+002,  0.00000000000E+000,  0.10000000000E+001
  0.97196500000E+005,  0.10403448747E+007,  0.16500000000E+002,  0.00000000000E+000,  0.10000000000E+001
  0.97256500000E+005,  0.10403448742E+007,  0.16500000000E+002,  0.00000000000E+000,  0.10000000000E+001
  0.97316500000E+005,  0.10403448738E+007,  0.16500000000E+002,  0.00000000000E+000,  0.10000000000E+001
  0.97376500000E+005,  0.10403448733E+007,  0.16500000000E+002,  0.00000000000E+000,  0.10000000000E+001
  0.97436500000E+005,  0.10403448729E+007,  0.16500000000E+002,  0.00000000000E+000,  0.10000000000E+001
  0.97496500000E+005,  0.10403448724E+007,  0.16500000000E+002,  0.00000000000E+000,  0.10000000000E+001
  0.97556500000E+005,  0.10403448720E+007,  0.16500000000E+002,  0.00000000000E+000,  0.10000000000E+001
  0.97616500000E+005,  0.10403448717E+007,  0.16500000000E+002,  0.00000000000E+000,  0.10000000000E+001
  0.97676500000E+005,  0.10403448713E+007,  0.16500000000E+002,  0.00000000000E+000,  0.10000000000E+001
  0.97736500000E+005,  0.10403448709E+007,  0.16500000000E+002,  0.00000000000E+000,  0.10000000000E+001
  0.97796500000E+005,  0.10403448706E+007,  0.16500000000E+002,  0.00000000000E+000,  0.10000000000E+001
  0.97856500000E+005,  0.10403448703E+007,  0.16500000000E+002,  0.00000000000E+000,  0.10000000000E+001
  0.97916500000E+005,  0.10403448699E+007,  0.16500000000E+002,  0.00000000000E+000,  0.10000000000E+001
  0.97976500000E+005,  0.10403448696E+007,  0.16500000000E+002,  0.00000000000E+000,  0.10000000000E+001
  0.98036500000E+005,  0.10403448693E+007,  0.16500000000E+002,  0.00000000000E+000,  0.10000000000E+001
  0.98096500000E+005,  0.10403448691E+007,  0.16500000000E+002,  0.00000000000E+000,  0.10000000000E+001
  0.98156500000E+005,  0.10403448688E+007,  0.16500000000E+002,  0.00000000000E+000,  0.10000000000E+001
  0.98216500000E+005,  0.10403448686E+007,  0.16500000000E+002,  0.00000000000E+000,  0.10000000000E+001
  0.98276500000E+005,  0.10403448683E+007,  0.16500000000E+002,  0.00000000000E+000,  0.10000000000E+001
  0.98336500000E+005,  0.10403448681E+007,  0.16500000000E+002,  0.00000000000E+000,  0.10000000000E+001
  0.98396500000E+005,  0.10403448679E+007,  0.16500000000E+002,  0.00000000000E+000,  0.10000000000E+001
  0.98456500000E+005,  0.10403448676E+007,  0.16500000000E+002,  0.00000000000E+000,  0.10000000000E+001
  0.98516500000E+005,  0.10403448674E+007,  0.16500000000E+002,  0.00000000000E+000,  0.10000000000E+001
  0.98576500000E+005,  0.10403448673E+007,  0.16500000000E+002,  0.00000000000E+000,  0.10000000000E+001
  0.98636500000E+005,  0.10403448671E+007,  0.16500000000E+002,  0.00000000000E+000,  0.10000000000E+001
  0.98696500000E+005,  0.10403448669E+007,  0.16500000000E+002,  0.00000000000E+000,  0.10000000000E+001
  0.98756500000E+005,  0.10403448667E+007,  0.16500000000E+002,  0.00000000000E+000,  0.10000000000E+001
  0.98816500000E+005,  0.10403448666E+007,  0.16500000000E+002,  0.00000000000E+000,  0.10000000000E+001
  0.98876500000E+005,  0.10403448664E+007,  0.16500000000E+002,  0.00000000000E+000,  0.10000000000E+001
  0.98936500000E+005,  0.10403448663E+007,  0.16500000000E+002,  0.00000000000E+000,  0.10000000000E+001
  0.98996500000E+005,  0.10403448662E+007,  0.16500000000E+002,  0.00000000000E+000,  0.10000000000E+001
  0.99056500000E+005,  0.10403448660E+007,  0.16500000000E+002,  0.00000000000E+000,  0.10000000000E+001
  0.99116500000E+005,  0.10403448659E+007,  0.16500000000E+002,  0.00000000000E+000,  0.10000000000E+001
  0.99176500000E+005,  0.10403448658E+007,  0.16500000000E+002,  0.00000000000E+000,  0.10000000000E+001
  0.99236500000E+005,  0.10403448657E+007,  0.16500000000E+002,  0.00000000000E+000,  0.10000000000E+001
  0.99296500000E+005,  0.10403448656E+007,  0.16500000000E+002,  0.00000000000E+000,  0.10000000000E+001
  0.99356500000E+005,  0.10403448655E+007,  0.16500000000E+002,  0.00000000000E+000,  0.10000000000E+001
  0.99416500000E+005,  0.10403448654E+007,  0.16500000000E+002,  0.00000000000E+000,  0.10000000000E+001
  0.99476500000E+005,  0.10403448653E+007,  0.16500000000E+002,  0.00000000000E+000,  0.10000000000E+001
  0.99536500000E+005,  0.10403448652E+007,  0.16500000000E+002,  0.00000000000E+000,  0.10000000000E+001
  0.99596500000E+005,  0.10403448652E+007,  0.16500000000E+002,  0.00000000000E+000,  0.10000000000E+001
  0.99656500000E+005,  0.10403448651E+007,  0.16500000000E+002,  0.00000000000E+000,  0.10000000000E+001
  0.99716500000E+005,  0.10403448650E+007,  0.16500000000E+002,  0.00000000000E+000,  0.10000000000E+001
  0.99776500000E+005,  0.10403448650E+007,  0.16500000000E+002,  0.00000000000E+000,  0.10000000000E+001
  0.99836500000E+005,  0.10403448649E+007,  0.16500000000E+002,  0.00000000000E+000,  0.10000000000E+001
  0.99896500000E+005,  0.10403448649E+007,  0.16500000000E+002,  0.00000000000E+000,  0.10000000000E+001
  0.99956500000E+005,  0.10403448648E+007,  0.16500000000E+002,  0.00000000000E+000,  0.10000000000E+001
  0.10001650000E+006,  0.10403448648E+007,  0.16500000000E+002,  0.00000000000E+000,  0.10000000000E+001
  0.10007650000E+006,  0.10403448647E+007,  0.16500000000E+002,  0.00000000000E+000,  0.10000000000E+001
  0.10013650000E+006,  0.10403448647E+007,  0.16500000000E+002,  0.00000000000E+000,  0.10000000000E+001
  0.10019650000E+006,  0.10403448647E+007,  0.16500000000E+002,  0.00000000000E+000,  0.10000000000E+001
  0.10025650000E+006,  0.10403448647E+007,  0.16500000000E+002,  0.00000000000E+000,  0.10000000000E+001
  0.10031650000E+006,  0.10403448646E+007,  0.16500000000E+002,  0.00000000000E+000,  0.10000000000E+001
  0.10037650000E+006,  0.10403448646E+007,  0.16500000000E+002,  0.00000000000E+000,  0.10000000000E+001
  0.10043650000E+006,  0.10403448646E+007,  0.16500000000E+002,  0.00000000000E+000,  0.10000000000E+001
  0.10049650000E+006,  0.10403448646E+007,  0.16500000000E+002,  0.00000000000E+000,  0.10000000000E+001
  0.10055650000E+006,  0.10403448646E+007,  0.16500000000E+002,  0.00000000000E+000,  0.10000000000E+001
  0.10061650000E+006,  0.10403448646E+007,  0.16500000000E+002,  0.00000000000E+000,  0.10000000000E+001
  0.10067650000E+006,  0.10403448646E+007,  0.16500000000E+002,  0.00000000000E+000,  0.10000000000E+001
  0.10073650000E+006,  0.10403448645E+007,  0.16500000000E+002,  0.00000000000E+000,  0.10000000000E+001
  0.10079650000E+006,  0.10403448645E+007,  0.16500000000E+002,  0.00000000000E+000,  0.10000000000E+001
  0.10085650000E+006,  0.10403448645E+007,  0.16500000000E+002,  0.00000000000E+000,  0.10000000000E+001
  0.10091650000E+006,  0.10403448645E+007,  0.16500000000E+002,  0.00000000000E+000,  0.10000000000E+001
  0.10097650000E+006,  0.10403448646E+007,  0.16500000000E+002,  0.00000000000E+000,  0.10000000000E+001
  0.10103650000E+006,  0.10403448646E+007,  0.16500000000E+002,  0.00000000000E+000,  0.10000000000E+001
  0.10109650000E+006,  0.10403448646E+007,  0.16500000000E+002,  0.00000000000E+000,  0.10000000000E+001
  0.10115650000E+006,  0.10403448646E+007,  0.16500000000E+002,  0.00000000000E+000,  0.10000000000E+001
  0.10121650000E+006,  0.10403448646E+007,  0.16500000000E+002,  0.00000000000E+000,  0.10000000000E+001
  0.10127650000E+006,  0.10403448646E+007,  0.16500000000E+002,  0.00000000000E+000,  0.10000000000E+001
  0.10133650000E+006,  0.10403448646E+007,  0.16500000000E+002,  0.00000000000E+000,  0.10000000000E+001
  0.10139650000E+006,  0.10403448646E+007,  0.16500000000E+002,  0.00000000000E+000,  0.10000000000E+001
  0.10145650000E+006,  0.10403448647E+007,  0.16500000000E+002,  0.00000000000E+000,  0.10000000000E+001
  0.10151650000E+006,  0.10403448647E+007,  0.16500000000E+002,  0.00000000000E+000,  0.10000000000E+001
  0.10157650000E+006,  0.10403448647E+007,  0.16500000000E+002,  0.00000000000E+000,  0.10000000000E+001
  0.10163650000E+006,  0.10403448647E+007,  0.16500000000E+002,  0.00000000000E+000,  0.10000000000E+001
  0.10169650000E+006,  0.10403448648E+007,  0.16500000000E+002,  0.00000000000E+000,  0.10000000000E+001
  0.10175650000E+006,  0.10403448648E+007,  0.16500000000E+002,  0.00000000000E+000,  0.10000000000E+001
  0.10181650000E+006,  0.10403448648E+007,  0.16500000000E+002,  0.00000000000E+000,  0.10000000000E+001
  0.10187650000E+006,  0.10403448648E+007,  0.16500000000E+002,  0.00000000000E+000,  0.10000000000E+001
  0.10193650000E+006,  0.10403448649E+007,  0.16500000000E+002,  0.00000000000E+000,  0.10000000000E+001
  0.10199650000E+006,  0.10403448649E+007,  0.16500000000E+002,  0.00000000000E+000,  0.10000000000E+001
  0.10205650000E+006,  0.10403448649E+007,  0.16500000000E+002,  0.00000000000E+000,  0.10000000000E+001
  0.10211650000E+006,  0.10403448650E+007,  0.16500000000E+002,  0.00000000000E+000,  0.10000000000E+001
  0.10217650000E+006,  0.10403448650E+007,  0.16500000000E+002,  0.00000000000E+000,  0.10000000000E+001
  0.10223650000E+006,  0.10403448650E+007,  0.16500000000E+002,  0.00000000000E+000,  0.10000000000E+001
  0.10229650000E+006,  0.10403448651E+007,  0.16500000000E+002,  0.00000000000E+000,  0.10000000000E+001
  0.10235650000E+006,  0.10403448651E+007,  0.16500000000E+002,  0.00000000000E+000,  0.10000000000E+001
  0.10241650000E+006,  0.10403448652E+007,  0.16500000000E+002,  0.00000000000E+000,  0.10000000000E+001
  0.10247650000E+006,  0.10403448652E+007,  0.16500000000E+002,  0.00000000000E+000,  0.10000000000E+001
  0.10253650000E+006,  0.10403448652E+007,  0.16500000000E+002,  0.00000000000E+000,  0.10000000000E+001
  0.10259650000E+006,  0.10403448653E+007,  0.16500000000E+002,  0.00000000000E+000,  0.10000000000E+001
  0.10265650000E+006,  0.10403448653E+007,  0.16500000000E+002,  0.00000000000E+000,  0.10000000000E+001
  0.10271650000E+006,  0.10403448654E+007,  0.16500000000E+002,  0.00000000000E+000,  0.10000000000E+001
  0.10277650000E+006,  0.10403448654E+007,  0.16500000000E+002,  0.00000000000E+000,  0.10000000000E+001
  0.10283650000E+006,  0.10403448654E+007,  0.16500000000E+002,  0.00000000000E+000,  0.10000000000E+001
  0.10289650000E+006,  0.10403448655E+007,  0.16500000000E+002,  0.00000000000E+000,  0.10000000000E+001
  0.10295650000E+006,  0.10403448655E+007,  0.16500000000E+002,  0.00000000000E+000,  0.10000000000E+001
  0.10301650000E+006,  0.10403448656E+007,  0.16500000000E+002,  0.00000000000E+000,  0.10000000000E+001
  0.10307650000E+006,  0.10403448656E+007,  0.16500000000E+002,  0.00000000000E+000,  0.10000000000E+001
  0.10313650000E+006,  0.10403448657E+007,  0.16500000000E+002,  0.00000000000E+000,  0.10000000000E+001
  0.10319650000E+006,  0.10403448657E+007,  0.16500000000E+002,  0.00000000000E+000,  0.10000000000E+001
  0.10325650000E+006,  0.10403448658E+007,  0.16500000000E+002,  0.00000000000E+000,  0.10000000000E+001
  0.10331650000E+006,  0.10403448658E+007,  0.16500000000E+002,  0.00000000000E+000,  0.10000000000E+001
  0.10337650000E+006,  0.10403448659E+007,  0.16500000000E+002,  0.00000000000E+000,  0.10000000000E+001
  0.10343650000E+006,  0.10403448659E+007,  0.16500000000E+002,  0.00000000000E+000,  0.10000000000E+001
  0.10349650000E+006,  0.10403448660E+007,  0.16500000000E+002,  0.00000000000E+000,  0.10000000000E+001
  0.10355650000E+006,  0.10403448660E+007,  0.16500000000E+002,  0.00000000000E+000,  0.10000000000E+001
  0.10361650000E+006,  0.10403448661E+007,  0.16500000000E+002,  0.00000000000E+000,  0.10000000000E+001
  0.10367650000E+006,  0.10403448662E+007,  0.16500000000E+002,  0.00000000000E+000,  0.10000000000E+001
  0.10373650000E+006,  0.10403448662E+007,  0.16500000000E+002,  0.00000000000E+000,  0.10000000000E+001
  0.10379650000E+006,  0.10403448663E+007,  0.16500000000E+002,  0.00000000000E+000,  0.10000000000E+001
  0.10385650000E+006,  0.10403448664E+007,  0.16500000000E+002,  0.00000000000E+000,  0.10000000000E+001
  0.10391650000E+006,  0.10403448665E+007,  0.16500000000E+002,  0.00000000000E+000,  0.10000000000E+001
  0.10397650000E+006,  0.10403448665E+007,  0.16500000000E+002,  0.00000000000E+000,  0.10000000000E+001
  0.10403650000E+006,  0.10403448666E+007,  0.16500000000E+002,  0.00000000000E+000,  0.10000000000E+001
  0.10409650000E+006,  0.10403448667E+007,  0.16500000000E+002,  0.00000000000E+000,  0.10000000000E+001
  0.10415650000E+006,  0.10403448668E+007,  0.16500000000E+002,  0.00000000000E+000,  0.10000000000E+001
  0.10421650000E+006,  0.10403448669E+007,  0.16500000000E+002,  0.00000000000E+000,  0.10000000000E+001
  0.10427650000E+006,  0.10403448671E+007,  0.16500000000E+002,  0.00000000000E+000,  0.10000000000E+001
  0.10433650000E+006,  0.10403448672E+007,  0.16500000000E+002,  0.00000000000E+000,  0.10000000000E+001
