"           TIME(S)","              PRES","              TEMP","             SAT_G","             SAT_L"
  0.94878500000E+005,  0.99555748927E+006,  0.16500000000E+002,  0.00000000000E+000,  0.10000000000E+001
  0.94881000000E+005,  0.99555748927E+006,  0.16500000000E+002,  0.00000000000E+000,  0.10000000000E+001
  0.94891000000E+005,  0.99586120932E+006,  0.16500000000E+002,  0.00000000000E+000,  0.10000000000E+001
  0.94901000000E+005,  0.99649634156E+006,  0.16500000000E+002,  0.00000000000E+000,  0.10000000000E+001
  0.94911000000E+005,  0.99746018825E+006,  0.16500000000E+002,  0.00000000000E+000,  0.10000000000E+001
  0.94921000000E+005,  0.99879621133E+006,  0.16500000000E+002,  0.00000000000E+000,  0.10000000000E+001
  0.94931000000E+005,  0.10006352808E+007,  0.16500000000E+002,  0.00000000000E+000,  0.10000000000E+001
  0.94941000000E+005,  0.10032892406E+007,  0.16500000000E+002,  0.00000000000E+000,  0.10000000000E+001
  0.94951000000E+005,  0.10059205380E+007,  0.16500000000E+002,  0.00000000000E+000,  0.10000000000E+001
  0.94961000000E+005,  0.10084445713E+007,  0.16500000000E+002,  0.00000000000E+000,  0.10000000000E+001
  0.94971000000E+005,  0.10107099201E+007,  0.16500000000E+002,  0.00000000000E+000,  0.10000000000E+001
  0.94981000000E+005,  0.10129515597E+007,  0.16500000000E+002,  0.00000000000E+000,  0.10000000000E+001
  0.94991000000E+005,  0.10152211945E+007,  0.16500000000E+002,  0.00000000000E+000,  0.10000000000E+001
  0.95001000000E+005,  0.10174634652E+007,  0.16500000000E+002,  0.00000000000E+000,  0.10000000000E+001
  0.95011000000E+005,  0.10196647894E+007,  0.16500000000E+002,  0.00000000000E+000,  0.10000000000E+001
  0.95021000000E+005,  0.10218425736E+007,  0.16500000000E+002,  0.00000000000E+000,  0.10000000000E+001
  0.95031000000E+005,  0.10240109697E+007,  0.16500000000E+002,  0.00000000000E+000,  0.10000000000E+001
  0.95041000000E+005,  0.10261935744E+007,  0.16500000000E+002,  0.00000000000E+000,  0.10000000000E+001
  0.95051000000E+005,  0.10283923248E+007,  0.16500000000E+002,  0.00000000000E+000,  0.10000000000E+001
  0.95061000000E+005,  0.10305817246E+007,  0.16500000000E+002,  0.00000000000E+000,  0.10000000000E+001
  0.95071000000E+005,  0.10327225273E+007,  0.16500000000E+002,  0.00000000000E+000,  0.10000000000E+001
  0.95081000000E+005,  0.10347866127E+007,  0.16500000000E+002,  0.00000000000E+000,  0.10000000000E+001
  0.95091000000E+005,  0.10367993316E+007,  0.16500000000E+002,  0.00000000000E+000,  0.10000000000E+001
  0.95101000000E+005,  0.10387894412E+007,  0.16500000000E+002,  0.00000000000E+000,  0.10000000000E+001
  0.95111000000E+005,  0.10407747130E+007,  0.16500000000E+002,  0.00000000000E+000,  0.10000000000E+001
  0.95121000000E+005,  0.10427566819E+007,  0.16500000000E+002,  0.00000000000E+000,  0.10000000000E+001
  0.95131000000E+005,  0.10447236323E+007,  0.16500000000E+002,  0.00000000000E+000,  0.10000000000E+001
  0.95141000000E+005,  0.10466627377E+007,  0.16500000000E+002,  0.00000000000E+000,  0.10000000000E+001
  0.95151000000E+005,  0.10485681365E+007,  0.16500000000E+002,  0.00000000000E+000,  0.10000000000E+001
  0.95161000000E+005,  0.10504225091E+007,  0.16500000000E+002,  0.00000000000E+000,  0.10000000000E+001
  0.95171000000E+005,  0.10522066821E+007,  0.16500000000E+002,  0.00000000000E+000,  0.10000000000E+001
  0.95181000000E+005,  0.10539442796E+007,  0.16500000000E+002,  0.00000000000E+000,  0.10000000000E+001
  0.95191000000E+005,  0.10556670937E+007,  0.16500000000E+002,  0.00000000000E+000,  0.10000000000E+001
  0.95201000000E+005,  0.10573861471E+007,  0.16500000000E+002,  0.00000000000E+000,  0.10000000000E+001
  0.95201500000E+005,  0.10574720335E+007,  0.16500000000E+002,  0.00000000000E+000,  0.10000000000E+001
  0.95204000000E+005,  0.10579001943E+007,  0.16500000000E+002,  0.00000000000E+000,  0.10000000000E+001
  0.95216500000E+005,  0.10600510866E+007,  0.16500000000E+002,  0.00000000000E+000,  0.10000000000E+001
  0.95276500000E+005,  0.10711855822E+007,  0.16500000000E+002,  0.00000000000E+000,  0.10000000000E+001
  0.95336500000E+005,  0.10822473216E+007,  0.16500000000E+002,  0.00000000000E+000,  0.10000000000E+001
  0.95396500000E+005,  0.10928703363E+007,  0.16500000000E+002,  0.00000000000E+000,  0.10000000000E+001
  0.95456500000E+005,  0.11031443028E+007,  0.16500000000E+002,  0.00000000000E+000,  0.10000000000E+001
  0.95516500000E+005,  0.11132967036E+007,  0.16500000000E+002,  0.00000000000E+000,  0.10000000000E+001
  0.95576500000E+005,  0.11232851903E+007,  0.16500000000E+002,  0.00000000000E+000,  0.10000000000E+001
  0.95636500000E+005,  0.11330618363E+007,  0.16500000000E+002,  0.00000000000E+000,  0.10000000000E+001
  0.95696500000E+005,  0.11427593835E+007,  0.16500000000E+002,  0.00000000000E+000,  0.10000000000E+001
  0.95756500000E+005,  0.11524038828E+007,  0.16500000000E+002,  0.00000000000E+000,  0.10000000000E+001
  0.95816500000E+005,  0.11618702044E+007,  0.16500000000E+002,  0.00000000000E+000,  0.10000000000E+001
  0.95876500000E+005,  0.11710658093E+007,  0.16500000000E+002,  0.00000000000E+000,  0.10000000000E+001
  0.95936500000E+005,  0.11800795474E+007,  0.16500000000E+002,  0.00000000000E+000,  0.10000000000E+001
  0.95996500000E+005,  0.11890028669E+007,  0.16500000000E+002,  0.00000000000E+000,  0.10000000000E+001
  0.96056500000E+005,  0.11978058670E+007,  0.16500000000E+002,  0.00000000000E+000,  0.10000000000E+001
  0.96116500000E+005,  0.12064605101E+007,  0.16500000000E+002,  0.00000000000E+000,  0.10000000000E+001
  0.96176500000E+005,  0.12150030786E+007,  0.16500000000E+002,  0.00000000000E+000,  0.10000000000E+001
  0.96194400000E+005,  0.12175231957E+007,  0.16500000000E+002,  0.00000000000E+000,  0.10000000000E+001
  0.96254400000E+005,  0.12259248699E+007,  0.16500000000E+002,  0.00000000000E+000,  0.10000000000E+001
  0.96314400000E+005,  0.12342554341E+007,  0.16500000000E+002,  0.00000000000E+000,  0.10000000000E+001
  0.96374400000E+005,  0.12425585916E+007,  0.16500000000E+002,  0.00000000000E+000,  0.10000000000E+001
  0.96434400000E+005,  0.12508456668E+007,  0.16500000000E+002,  0.00000000000E+000,  0.10000000000E+001
  0.96494400000E+005,  0.12590935265E+007,  0.16500000000E+002,  0.00000000000E+000,  0.10000000000E+001
  0.96554400000E+005,  0.12672773378E+007,  0.16500000000E+002,  0.00000000000E+000,  0.10000000000E+001
  0.96614400000E+005,  0.12753995330E+007,  0.16500000000E+002,  0.00000000000E+000,  0.10000000000E+001
  0.96674400000E+005,  0.12834849094E+007,  0.16500000000E+002,  0.00000000000E+000,  0.10000000000E+001
  0.96734400000E+005,  0.12915229453E+007,  0.16500000000E+002,  0.00000000000E+000,  0.10000000000E+001
  0.96794400000E+005,  0.12994549695E+007,  0.16500000000E+002,  0.00000000000E+000,  0.10000000000E+001
  0.96854400000E+005,  0.13073130976E+007,  0.16500000000E+002,  0.00000000000E+000,  0.10000000000E+001
  0.96914400000E+005,  0.13151641823E+007,  0.16500000000E+002,  0.00000000000E+000,  0.10000000000E+001
  0.96974400000E+005,  0.13229845559E+007,  0.16500000000E+002,  0.00000000000E+000,  0.10000000000E+001
  0.97034400000E+005,  0.13307419149E+007,  0.16500000000E+002,  0.00000000000E+000,  0.10000000000E+001
  0.97094400000E+005,  0.13383848305E+007,  0.16500000000E+002,  0.00000000000E+000,  0.10000000000E+001
  0.97154400000E+005,  0.13458703143E+007,  0.16500000000E+002,  0.00000000000E+000,  0.10000000000E+001
  0.97214400000E+005,  0.13532600661E+007,  0.16500000000E+002,  0.00000000000E+000,  0.10000000000E+001
  0.97274400000E+005,  0.13606240516E+007,  0.16500000000E+002,  0.00000000000E+000,  0.10000000000E+001
  0.97334400000E+005,  0.13679434809E+007,  0.16500000000E+002,  0.00000000000E+000,  0.10000000000E+001
  0.97394400000E+005,  0.13751690993E+007,  0.16500000000E+002,  0.00000000000E+000,  0.10000000000E+001
  0.97454400000E+005,  0.13822771555E+007,  0.16500000000E+002,  0.00000000000E+000,  0.10000000000E+001
  0.97510800000E+005,  0.13888616145E+007,  0.16500000000E+002,  0.00000000000E+000,  0.10000000000E+001
  0.97570800000E+005,  0.13957702401E+007,  0.16500000000E+002,  0.00000000000E+000,  0.10000000000E+001
  0.97630800000E+005,  0.14025787969E+007,  0.16500000000E+002,  0.00000000000E+000,  0.10000000000E+001
  0.97690800000E+005,  0.14092734517E+007,  0.16500000000E+002,  0.00000000000E+000,  0.10000000000E+001
  0.97750800000E+005,  0.14158489787E+007,  0.16500000000E+002,  0.00000000000E+000,  0.10000000000E+001
  0.97810800000E+005,  0.14223200552E+007,  0.16500000000E+002,  0.00000000000E+000,  0.10000000000E+001
  0.97870800000E+005,  0.14287247250E+007,  0.16500000000E+002,  0.00000000000E+000,  0.10000000000E+001
  0.97930800000E+005,  0.14350992320E+007,  0.16500000000E+002,  0.00000000000E+000,  0.10000000000E+001
  0.97990800000E+005,  0.14414652682E+007,  0.16500000000E+002,  0.00000000000E+000,  0.10000000000E+001
  0.98050800000E+005,  0.14478324815E+007,  0.16500000000E+002,  0.00000000000E+000,  0.10000000000E+001
  0.98110800000E+005,  0.14542034888E+007,  0.16500000000E+002,  0.00000000000E+000,  0.10000000000E+001
  0.98170800000E+005,  0.14605819264E+007,  0.16500000000E+002,  0.00000000000E+000,  0.10000000000E+001
  0.98230800000E+005,  0.14669492887E+007,  0.16500000000E+002,  0.00000000000E+000,  0.10000000000E+001
  0.98290800000E+005,  0.14732877356E+007,  0.16500000000E+002,  0.00000000000E+000,  0.10000000000E+001
  0.98350800000E+005,  0.14795977260E+007,  0.16500000000E+002,  0.00000000000E+000,  0.10000000000E+001
  0.98410800000E+005,  0.14858776372E+007,  0.16500000000E+002,  0.00000000000E+000,  0.10000000000E+001
  0.98470800000E+005,  0.14921194448E+007,  0.16500000000E+002,  0.00000000000E+000,  0.10000000000E+001
  0.98530800000E+005,  0.14983164203E+007,  0.16500000000E+002,  0.00000000000E+000,  0.10000000000E+001
  0.98590800000E+005,  0.15044620139E+007,  0.16500000000E+002,  0.00000000000E+000,  0.10000000000E+001
  0.98650800000E+005,  0.15105461841E+007,  0.16500000000E+002,  0.00000000000E+000,  0.10000000000E+001
  0.98710800000E+005,  0.15165581999E+007,  0.16500000000E+002,  0.00000000000E+000,  0.10000000000E+001
  0.98770800000E+005,  0.15225002185E+007,  0.16500000000E+002,  0.00000000000E+000,  0.10000000000E+001
  0.98827200000E+005,  0.15280273155E+007,  0.16500000000E+002,  0.00000000000E+000,  0.10000000000E+001
  0.98887200000E+005,  0.15338263445E+007,  0.16500000000E+002,  0.00000000000E+000,  0.10000000000E+001
  0.98947200000E+005,  0.15395222493E+007,  0.16500000000E+002,  0.00000000000E+000,  0.10000000000E+001
  0.99007200000E+005,  0.15451375366E+007,  0.16500000000E+002,  0.00000000000E+000,  0.10000000000E+001
  0.99067200000E+005,  0.15506806632E+007,  0.16500000000E+002,  0.00000000000E+000,  0.10000000000E+001
  0.99127200000E+005,  0.15561580326E+007,  0.16500000000E+002,  0.00000000000E+000,  0.10000000000E+001
  0.99187200000E+005,  0.15615830789E+007,  0.16500000000E+002,  0.00000000000E+000,  0.10000000000E+001
  0.99247200000E+005,  0.15669637481E+007,  0.16500000000E+002,  0.00000000000E+000,  0.10000000000E+001
  0.99307200000E+005,  0.15722978372E+007,  0.16500000000E+002,  0.00000000000E+000,  0.10000000000E+001
  0.99367200000E+005,  0.15775835386E+007,  0.16500000000E+002,  0.00000000000E+000,  0.10000000000E+001
  0.99427200000E+005,  0.15828232163E+007,  0.16500000000E+002,  0.00000000000E+000,  0.10000000000E+001
  0.99487200000E+005,  0.15880217261E+007,  0.16500000000E+002,  0.00000000000E+000,  0.10000000000E+001
  0.99547200000E+005,  0.15931881652E+007,  0.16500000000E+002,  0.00000000000E+000,  0.10000000000E+001
  0.99607200000E+005,  0.15983289804E+007,  0.16500000000E+002,  0.00000000000E+000,  0.10000000000E+001
  0.99667200000E+005,  0.16034391811E+007,  0.16500000000E+002,  0.00000000000E+000,  0.10000000000E+001
  0.99727200000E+005,  0.16085161274E+007,  0.16500000000E+002,  0.00000000000E+000,  0.10000000000E+001
  0.99787200000E+005,  0.16135668598E+007,  0.16500000000E+002,  0.00000000000E+000,  0.10000000000E+001
  0.99847200000E+005,  0.16185939570E+007,  0.16500000000E+002,  0.00000000000E+000,  0.10000000000E+001
  0.99907200000E+005,  0.16235814639E+007,  0.16500000000E+002,  0.00000000000E+000,  0.10000000000E+001
  0.99967200000E+005,  0.16285590921E+007,  0.16500000000E+002,  0.00000000000E+000,  0.10000000000E+001
  0.10002720000E+006,  0.16335288548E+007,  0.16500000000E+002,  0.00000000000E+000,  0.10000000000E+001
  0.10008720000E+006,  0.16384877300E+007,  0.16500000000E+002,  0.00000000000E+000,  0.10000000000E+001
  0.10014300000E+006,  0.16430864610E+007,  0.16500000000E+002,  0.00000000000E+000,  0.10000000000E+001
  0.10020300000E+006,  0.16480129439E+007,  0.16500000000E+002,  0.00000000000E+000,  0.10000000000E+001
  0.10026300000E+006,  0.16529173606E+007,  0.16500000000E+002,  0.00000000000E+000,  0.10000000000E+001
  0.10032300000E+006,  0.16577970631E+007,  0.16500000000E+002,  0.00000000000E+000,  0.10000000000E+001
  0.10038300000E+006,  0.16626514375E+007,  0.16500000000E+002,  0.00000000000E+000,  0.10000000000E+001
  0.10044300000E+006,  0.16674795753E+007,  0.16500000000E+002,  0.00000000000E+000,  0.10000000000E+001
  0.10050300000E+006,  0.16722769713E+007,  0.16500000000E+002,  0.00000000000E+000,  0.10000000000E+001
  0.10056300000E+006,  0.16770364626E+007,  0.16500000000E+002,  0.00000000000E+000,  0.10000000000E+001
  0.10062300000E+006,  0.16817509805E+007,  0.16500000000E+002,  0.00000000000E+000,  0.10000000000E+001
  0.10068300000E+006,  0.16864176780E+007,  0.16500000000E+002,  0.00000000000E+000,  0.10000000000E+001
  0.10074300000E+006,  0.16910385153E+007,  0.16500000000E+002,  0.00000000000E+000,  0.10000000000E+001
  0.10080300000E+006,  0.16956134984E+007,  0.16500000000E+002,  0.00000000000E+000,  0.10000000000E+001
  0.10086300000E+006,  0.17001365901E+007,  0.16500000000E+002,  0.00000000000E+000,  0.10000000000E+001
  0.10092300000E+006,  0.17045991226E+007,  0.16500000000E+002,  0.00000000000E+000,  0.10000000000E+001
  0.10098300000E+006,  0.17089972093E+007,  0.16500000000E+002,  0.00000000000E+000,  0.10000000000E+001
  0.10104300000E+006,  0.17133329363E+007,  0.16500000000E+002,  0.00000000000E+000,  0.10000000000E+001
  0.10110300000E+006,  0.17176118781E+007,  0.16500000000E+002,  0.00000000000E+000,  0.10000000000E+001
  0.10116300000E+006,  0.17218416598E+007,  0.16500000000E+002,  0.00000000000E+000,  0.10000000000E+001
  0.10122300000E+006,  0.17260315955E+007,  0.16500000000E+002,  0.00000000000E+000,  0.10000000000E+001
  0.10128300000E+006,  0.17301915620E+007,  0.16500000000E+002,  0.00000000000E+000,  0.10000000000E+001
  0.10134300000E+006,  0.17343289697E+007,  0.16500000000E+002,  0.00000000000E+000,  0.10000000000E+001
  0.10140300000E+006,  0.17384471744E+007,  0.16500000000E+002,  0.00000000000E+000,  0.10000000000E+001
  0.10146000000E+006,  0.17423413618E+007,  0.16500000000E+002,  0.00000000000E+000,  0.10000000000E+001
  0.10152000000E+006,  0.17464163485E+007,  0.16500000000E+002,  0.00000000000E+000,  0.10000000000E+001
  0.10158000000E+006,  0.17504603455E+007,  0.16500000000E+002,  0.00000000000E+000,  0.10000000000E+001
  0.10164000000E+006,  0.17544667498E+007,  0.16500000000E+002,  0.00000000000E+000,  0.10000000000E+001
  0.10170000000E+006,  0.17584329481E+007,  0.16500000000E+002,  0.00000000000E+000,  0.10000000000E+001
  0.10176000000E+006,  0.17623602984E+007,  0.16500000000E+002,  0.00000000000E+000,  0.10000000000E+001
  0.10182000000E+006,  0.17662507286E+007,  0.16500000000E+002,  0.00000000000E+000,  0.10000000000E+001
  0.10188000000E+006,  0.17701056025E+007,  0.16500000000E+002,  0.00000000000E+000,  0.10000000000E+001
  0.10194000000E+006,  0.17739264380E+007,  0.16500000000E+002,  0.00000000000E+000,  0.10000000000E+001
  0.10200000000E+006,  0.17777145644E+007,  0.16500000000E+002,  0.00000000000E+000,  0.10000000000E+001
  0.10206000000E+006,  0.17815149128E+007,  0.16500000000E+002,  0.00000000000E+000,  0.10000000000E+001
  0.10212000000E+006,  0.17852945614E+007,  0.16500000000E+002,  0.00000000000E+000,  0.10000000000E+001
  0.10218000000E+006,  0.17890521622E+007,  0.16500000000E+002,  0.00000000000E+000,  0.10000000000E+001
  0.10224000000E+006,  0.17927908616E+007,  0.16500000000E+002,  0.00000000000E+000,  0.10000000000E+001
  0.10230000000E+006,  0.17965167799E+007,  0.16500000000E+002,  0.00000000000E+000,  0.10000000000E+001
  0.10236000000E+006,  0.18002346100E+007,  0.16500000000E+002,  0.00000000000E+000,  0.10000000000E+001
  0.10242000000E+006,  0.18039455268E+007,  0.16500000000E+002,  0.00000000000E+000,  0.10000000000E+001
  0.10248000000E+006,  0.18076490542E+007,  0.16500000000E+002,  0.00000000000E+000,  0.10000000000E+001
  0.10254000000E+006,  0.18113443311E+007,  0.16500000000E+002,  0.00000000000E+000,  0.10000000000E+001
  0.10260000000E+006,  0.18150319187E+007,  0.16500000000E+002,  0.00000000000E+000,  0.10000000000E+001
  0.10266000000E+006,  0.18187154960E+007,  0.16500000000E+002,  0.00000000000E+000,  0.10000000000E+001
  0.10272000000E+006,  0.18223998200E+007,  0.16500000000E+002,  0.00000000000E+000,  0.10000000000E+001
  0.10277600000E+006,  0.18258421896E+007,  0.16500000000E+002,  0.00000000000E+000,  0.10000000000E+001
  0.10283600000E+006,  0.18295372449E+007,  0.16500000000E+002,  0.00000000000E+000,  0.10000000000E+001
  0.10289600000E+006,  0.18332400863E+007,  0.16500000000E+002,  0.00000000000E+000,  0.10000000000E+001
  0.10295600000E+006,  0.18369505810E+007,  0.16500000000E+002,  0.00000000000E+000,  0.10000000000E+001
  0.10301600000E+006,  0.18406681024E+007,  0.16500000000E+002,  0.00000000000E+000,  0.10000000000E+001
  0.10307600000E+006,  0.18443919361E+007,  0.16500000000E+002,  0.00000000000E+000,  0.10000000000E+001
  0.10313600000E+006,  0.18481210858E+007,  0.16500000000E+002,  0.00000000000E+000,  0.10000000000E+001
  0.10319600000E+006,  0.18518545599E+007,  0.16500000000E+002,  0.00000000000E+000,  0.10000000000E+001
  0.10325600000E+006,  0.18555908215E+007,  0.16500000000E+002,  0.00000000000E+000,  0.10000000000E+001
  0.10331600000E+006,  0.18593277230E+007,  0.16500000000E+002,  0.00000000000E+000,  0.10000000000E+001
  0.10337600000E+006,  0.18630630027E+007,  0.16500000000E+002,  0.00000000000E+000,  0.10000000000E+001
  0.10343600000E+006,  0.18667942104E+007,  0.16500000000E+002,  0.00000000000E+000,  0.10000000000E+001
  0.10349600000E+006,  0.18705184005E+007,  0.16500000000E+002,  0.00000000000E+000,  0.10000000000E+001
  0.10355600000E+006,  0.18742322642E+007,  0.16500000000E+002,  0.00000000000E+000,  0.10000000000E+001
  0.10361600000E+006,  0.18779330646E+007,  0.16500000000E+002,  0.00000000000E+000,  0.10000000000E+001
  0.10367600000E+006,  0.18816198779E+007,  0.16500000000E+002,  0.00000000000E+000,  0.10000000000E+001
  0.10373600000E+006,  0.18852947427E+007,  0.16500000000E+002,  0.00000000000E+000,  0.10000000000E+001
  0.10379600000E+006,  0.18889613151E+007,  0.16500000000E+002,  0.00000000000E+000,  0.10000000000E+001
  0.10385600000E+006,  0.18926229251E+007,  0.16500000000E+002,  0.00000000000E+000,  0.10000000000E+001
  0.10391600000E+006,  0.18962816919E+007,  0.16500000000E+002,  0.00000000000E+000,  0.10000000000E+001
  0.10397600000E+006,  0.18999384379E+007,  0.16500000000E+002,  0.00000000000E+000,  0.10000000000E+001
  0.10403600000E+006,  0.19035925652E+007,  0.16500000000E+002,  0.00000000000E+000,  0.10000000000E+001
  0.10409200000E+006,  0.19069994133E+007,  0.16500000000E+002,  0.00000000000E+000,  0.10000000000E+001
  0.10415200000E+006,  0.19106444181E+007,  0.16500000000E+002,  0.00000000000E+000,  0.10000000000E+001
  0.10421200000E+006,  0.19142837598E+007,  0.16500000000E+002,  0.00000000000E+000,  0.10000000000E+001
  0.10427200000E+006,  0.19179175933E+007,  0.16500000000E+002,  0.00000000000E+000,  0.10000000000E+001
