"           TIME(S)","              PRES","              TEMP","             SAT_G","             SAT_L"
  0.94870000000E+005,  0.10416050731E+007,  0.16500000000E+002,  0.00000000000E+000,  0.10000000000E+001
  0.94872000000E+005,  0.10416050731E+007,  0.16500000000E+002,  0.00000000000E+000,  0.10000000000E+001
  0.94874000000E+005,  0.10416050731E+007,  0.16500000000E+002,  0.00000000000E+000,  0.10000000000E+001
  0.94876000000E+005,  0.10416050731E+007,  0.16500000000E+002,  0.00000000000E+000,  0.10000000000E+001
  0.94878000000E+005,  0.10416050731E+007,  0.16500000000E+002,  0.00000000000E+000,  0.10000000000E+001
  0.94880000000E+005,  0.10416050731E+007,  0.16500000000E+002,  0.00000000000E+000,  0.10000000000E+001
  0.94882000000E+005,  0.10416050732E+007,  0.16500000000E+002,  0.00000000000E+000,  0.10000000000E+001
  0.94884000000E+005,  0.10416050734E+007,  0.16500000000E+002,  0.00000000000E+000,  0.10000000000E+001
  0.94886000000E+005,  0.10416050736E+007,  0.16500000000E+002,  0.00000000000E+000,  0.10000000000E+001
  0.94888000000E+005,  0.10416050737E+007,  0.16500000000E+002,  0.00000000000E+000,  0.10000000000E+001
  0.94890000000E+005,  0.10416050739E+007,  0.16500000000E+002,  0.00000000000E+000,  0.10000000000E+001
  0.94892000000E+005,  0.10416050741E+007,  0.16500000000E+002,  0.00000000000E+000,  0.10000000000E+001
  0.94894000000E+005,  0.10416050743E+007,  0.16500000000E+002,  0.00000000000E+000,  0.10000000000E+001
  0.94896000000E+005,  0.10416050746E+007,  0.16500000000E+002,  0.00000000000E+000,  0.10000000000E+001
  0.94898000000E+005,  0.10416050748E+007,  0.16500000000E+002,  0.00000000000E+000,  0.10000000000E+001
  0.94900000000E+005,  0.10416050751E+007,  0.16500000000E+002,  0.00000000000E+000,  0.10000000000E+001
  0.94902000000E+005,  0.10416050753E+007,  0.16500000000E+002,  0.00000000000E+000,  0.10000000000E+001
  0.94904000000E+005,  0.10416050756E+007,  0.16500000000E+002,  0.00000000000E+000,  0.10000000000E+001
  0.94906000000E+005,  0.10416050759E+007,  0.16500000000E+002,  0.00000000000E+000,  0.10000000000E+001
  0.94908000000E+005,  0.10416050762E+007,  0.16500000000E+002,  0.00000000000E+000,  0.10000000000E+001
  0.94910000000E+005,  0.10416050764E+007,  0.16500000000E+002,  0.00000000000E+000,  0.10000000000E+001
  0.94912000000E+005,  0.10416050767E+007,  0.16500000000E+002,  0.00000000000E+000,  0.10000000000E+001
  0.94914000000E+005,  0.10416050770E+007,  0.16500000000E+002,  0.00000000000E+000,  0.10000000000E+001
  0.94916000000E+005,  0.10416050773E+007,  0.16500000000E+002,  0.00000000000E+000,  0.10000000000E+001
  0.94918000000E+005,  0.10416050777E+007,  0.16500000000E+002,  0.00000000000E+000,  0.10000000000E+001
  0.94920000000E+005,  0.10416050780E+007,  0.16500000000E+002,  0.00000000000E+000,  0.10000000000E+001
  0.94922000000E+005,  0.10416050783E+007,  0.16500000000E+002,  0.00000000000E+000,  0.10000000000E+001
  0.94924000000E+005,  0.10416050786E+007,  0.16500000000E+002,  0.00000000000E+000,  0.10000000000E+001
  0.94926000000E+005,  0.10416050789E+007,  0.16500000000E+002,  0.00000000000E+000,  0.10000000000E+001
  0.94928000000E+005,  0.10416050793E+007,  0.16500000000E+002,  0.00000000000E+000,  0.10000000000E+001
  0.94930000000E+005,  0.10416050796E+007,  0.16500000000E+002,  0.00000000000E+000,  0.10000000000E+001
  0.94932000000E+005,  0.10416050799E+007,  0.16500000000E+002,  0.00000000000E+000,  0.10000000000E+001
  0.94934000000E+005,  0.10416050802E+007,  0.16500000000E+002,  0.00000000000E+000,  0.10000000000E+001
  0.94936000000E+005,  0.10416050806E+007,  0.16500000000E+002,  0.00000000000E+000,  0.10000000000E+001
  0.94938000000E+005,  0.10416050809E+007,  0.16500000000E+002,  0.00000000000E+000,  0.10000000000E+001
  0.94940000000E+005,  0.10416050812E+007,  0.16500000000E+002,  0.00000000000E+000,  0.10000000000E+001
  0.94942000000E+005,  0.10416050816E+007,  0.16500000000E+002,  0.00000000000E+000,  0.10000000000E+001
  0.94944000000E+005,  0.10416050819E+007,  0.16500000000E+002,  0.00000000000E+000,  0.10000000000E+001
  0.94946000000E+005,  0.10416050822E+007,  0.16500000000E+002,  0.00000000000E+000,  0.10000000000E+001
  0.94948000000E+005,  0.10416050825E+007,  0.16500000000E+002,  0.00000000000E+000,  0.10000000000E+001
  0.94950000000E+005,  0.10416050829E+007,  0.16500000000E+002,  0.00000000000E+000,  0.10000000000E+001
  0.94952000000E+005,  0.10416050832E+007,  0.16500000000E+002,  0.00000000000E+000,  0.10000000000E+001
  0.94954000000E+005,  0.10416050835E+007,  0.16500000000E+002,  0.00000000000E+000,  0.10000000000E+001
  0.94956000000E+005,  0.10416050839E+007,  0.16500000000E+002,  0.00000000000E+000,  0.10000000000E+001
  0.94958000000E+005,  0.10416050842E+007,  0.16500000000E+002,  0.00000000000E+000,  0.10000000000E+001
  0.94960000000E+005,  0.10416050845E+007,  0.16500000000E+002,  0.00000000000E+000,  0.10000000000E+001
  0.94970000000E+005,  0.10416050861E+007,  0.16500000000E+002,  0.00000000000E+000,  0.10000000000E+001
  0.95020000000E+005,  0.10416050927E+007,  0.16500000000E+002,  0.00000000000E+000,  0.10000000000E+001
  0.95100000000E+005,  0.10416051005E+007,  0.16500000000E+002,  0.00000000000E+000,  0.10000000000E+001
  0.95128100000E+005,  0.10416051030E+007,  0.16500000000E+002,  0.00000000000E+000,  0.10000000000E+001
  0.95208100000E+005,  0.10416051082E+007,  0.16500000000E+002,  0.00000000000E+000,  0.10000000000E+001
  0.95288100000E+005,  0.10416051125E+007,  0.16500000000E+002,  0.00000000000E+000,  0.10000000000E+001
  0.95368100000E+005,  0.10416051185E+007,  0.16500000000E+002,  0.00000000000E+000,  0.10000000000E+001
  0.95398200000E+005,  0.10416051211E+007,  0.16500000000E+002,  0.00000000000E+000,  0.10000000000E+001
  0.95478200000E+005,  0.10416051801E+007,  0.16500000000E+002,  0.00000000000E+000,  0.10000000000E+001
  0.95558200000E+005,  0.10416059050E+007,  0.16500000000E+002,  0.00000000000E+000,  0.10000000000E+001
  0.95638200000E+005,  0.10416109398E+007,  0.16500000000E+002,  0.00000000000E+000,  0.10000000000E+001
  0.95668300000E+005,  0.10416137708E+007,  0.16500000000E+002,  0.00000000000E+000,  0.10000000000E+001
  0.95748300000E+005,  0.10416614109E+007,  0.16500000000E+002,  0.00000000000E+000,  0.10000000000E+001
  0.95828300000E+005,  0.10419872557E+007,  0.16500000000E+002,  0.00000000000E+000,  0.10000000000E+001
  0.95908300000E+005,  0.10442676437E+007,  0.16500000000E+002,  0.00000000000E+000,  0.10000000000E+001
  0.95938400000E+005,  0.10456428254E+007,  0.16500000000E+002,  0.00000000000E+000,  0.10000000000E+001
  0.96018400000E+005,  0.10598202015E+007,  0.16500000000E+002,  0.00000000000E+000,  0.10000000000E+001
  0.96098400000E+005,  0.11132126553E+007,  0.16500000000E+002,  0.00000000000E+000,  0.10000000000E+001
  0.96178400000E+005,  0.14485800250E+007,  0.16500000000E+002,  0.00000000000E+000,  0.10000000000E+001
  0.96208500000E+005,  0.17295200618E+007,  0.16500000000E+002,  0.00000000000E+000,  0.10000000000E+001
  0.96288500000E+005,  0.23736627284E+007,  0.16500000000E+002,  0.00000000000E+000,  0.10000000000E+001
  0.96368500000E+005,  0.28449157896E+007,  0.16500000000E+002,  0.00000000000E+000,  0.10000000000E+001
  0.96448500000E+005,  0.33117413785E+007,  0.16500000000E+002,  0.00000000000E+000,  0.10000000000E+001
  0.96478600000E+005,  0.33751099899E+007,  0.16500000000E+002,  0.00000000000E+000,  0.10000000000E+001
  0.96558600000E+005,  0.34918808171E+007,  0.16500000000E+002,  0.00000000000E+000,  0.10000000000E+001
  0.96638600000E+005,  0.35619436292E+007,  0.16500000000E+002,  0.00000000000E+000,  0.10000000000E+001
  0.96718600000E+005,  0.36365611057E+007,  0.16500000000E+002,  0.00000000000E+000,  0.10000000000E+001
  0.96748700000E+005,  0.36225332339E+007,  0.16500000000E+002,  0.00000000000E+000,  0.10000000000E+001
  0.96828700000E+005,  0.36186092112E+007,  0.16500000000E+002,  0.00000000000E+000,  0.10000000000E+001
  0.96908700000E+005,  0.36022126656E+007,  0.16500000000E+002,  0.00000000000E+000,  0.10000000000E+001
  0.96988700000E+005,  0.36160550567E+007,  0.16500000000E+002,  0.00000000000E+000,  0.10000000000E+001
  0.97018800000E+005,  0.36114591266E+007,  0.16500000000E+002,  0.00000000000E+000,  0.10000000000E+001
  0.97098800000E+005,  0.36440688088E+007,  0.16500000000E+002,  0.00000000000E+000,  0.10000000000E+001
  0.97178800000E+005,  0.36511763478E+007,  0.16500000000E+002,  0.00000000000E+000,  0.10000000000E+001
  0.97258800000E+005,  0.36527842391E+007,  0.16500000000E+002,  0.00000000000E+000,  0.10000000000E+001
  0.97288900000E+005,  0.36382764581E+007,  0.16500000000E+002,  0.00000000000E+000,  0.10000000000E+001
  0.97368900000E+005,  0.36346752032E+007,  0.16500000000E+002,  0.00000000000E+000,  0.10000000000E+001
  0.97448900000E+005,  0.36291292085E+007,  0.16500000000E+002,  0.00000000000E+000,  0.10000000000E+001
  0.97528900000E+005,  0.36220394087E+007,  0.16500000000E+002,  0.00000000000E+000,  0.10000000000E+001
  0.97559000000E+005,  0.36093904690E+007,  0.16500000000E+002,  0.00000000000E+000,  0.10000000000E+001
  0.97639000000E+005,  0.35979145822E+007,  0.16500000000E+002,  0.00000000000E+000,  0.10000000000E+001
  0.97719000000E+005,  0.35872660456E+007,  0.16500000000E+002,  0.00000000000E+000,  0.10000000000E+001
  0.97799000000E+005,  0.35852039483E+007,  0.16500000000E+002,  0.00000000000E+000,  0.10000000000E+001
  0.97829100000E+005,  0.35823230876E+007,  0.16500000000E+002,  0.00000000000E+000,  0.10000000000E+001
  0.97909100000E+005,  0.35914794394E+007,  0.16500000000E+002,  0.00000000000E+000,  0.10000000000E+001
  0.97989100000E+005,  0.36029929830E+007,  0.16500000000E+002,  0.00000000000E+000,  0.10000000000E+001
  0.98069100000E+005,  0.36114803936E+007,  0.16500000000E+002,  0.00000000000E+000,  0.10000000000E+001
  0.98099200000E+005,  0.36122141381E+007,  0.16500000000E+002,  0.00000000000E+000,  0.10000000000E+001
  0.98179200000E+005,  0.36179248443E+007,  0.16500000000E+002,  0.00000000000E+000,  0.10000000000E+001
  0.98259200000E+005,  0.36248166189E+007,  0.16500000000E+002,  0.00000000000E+000,  0.10000000000E+001
  0.98339200000E+005,  0.36233569765E+007,  0.16500000000E+002,  0.00000000000E+000,  0.10000000000E+001
  0.98369300000E+005,  0.36187907611E+007,  0.16500000000E+002,  0.00000000000E+000,  0.10000000000E+001
  0.98449300000E+005,  0.36090210883E+007,  0.16500000000E+002,  0.00000000000E+000,  0.10000000000E+001
  0.98529300000E+005,  0.36052878611E+007,  0.16500000000E+002,  0.00000000000E+000,  0.10000000000E+001
  0.98609300000E+005,  0.36063580843E+007,  0.16500000000E+002,  0.00000000000E+000,  0.10000000000E+001
  0.98639400000E+005,  0.36061307874E+007,  0.16500000000E+002,  0.00000000000E+000,  0.10000000000E+001
  0.98719400000E+005,  0.36091704040E+007,  0.16500000000E+002,  0.00000000000E+000,  0.10000000000E+001
  0.98799400000E+005,  0.36139001436E+007,  0.16500000000E+002,  0.00000000000E+000,  0.10000000000E+001
  0.98879400000E+005,  0.36188630278E+007,  0.16500000000E+002,  0.00000000000E+000,  0.10000000000E+001
  0.98909500000E+005,  0.36199168232E+007,  0.16500000000E+002,  0.00000000000E+000,  0.10000000000E+001
  0.98989500000E+005,  0.36070743855E+007,  0.16500000000E+002,  0.00000000000E+000,  0.10000000000E+001
  0.98991500000E+005,  0.36067141859E+007,  0.16500000000E+002,  0.00000000000E+000,  0.10000000000E+001
  0.99001500000E+005,  0.36045873520E+007,  0.16500000000E+002,  0.00000000000E+000,  0.10000000000E+001
  0.99011500000E+005,  0.36020311875E+007,  0.16500000000E+002,  0.00000000000E+000,  0.10000000000E+001
  0.99021500000E+005,  0.35990105703E+007,  0.16500000000E+002,  0.00000000000E+000,  0.10000000000E+001
  0.99031500000E+005,  0.35955150448E+007,  0.16500000000E+002,  0.00000000000E+000,  0.10000000000E+001
  0.99041500000E+005,  0.35915524158E+007,  0.16500000000E+002,  0.00000000000E+000,  0.10000000000E+001
  0.99051500000E+005,  0.35871452804E+007,  0.16500000000E+002,  0.00000000000E+000,  0.10000000000E+001
  0.99061500000E+005,  0.35823270569E+007,  0.16500000000E+002,  0.00000000000E+000,  0.10000000000E+001
  0.99071500000E+005,  0.35771379294E+007,  0.16500000000E+002,  0.00000000000E+000,  0.10000000000E+001
  0.99081500000E+005,  0.35716212444E+007,  0.16500000000E+002,  0.00000000000E+000,  0.10000000000E+001
  0.99091500000E+005,  0.35658205881E+007,  0.16500000000E+002,  0.00000000000E+000,  0.10000000000E+001
  0.99101500000E+005,  0.35597779473E+007,  0.16500000000E+002,  0.00000000000E+000,  0.10000000000E+001
  0.99111500000E+005,  0.35535324716E+007,  0.16500000000E+002,  0.00000000000E+000,  0.10000000000E+001
  0.99121500000E+005,  0.35471198699E+007,  0.16500000000E+002,  0.00000000000E+000,  0.10000000000E+001
  0.99131500000E+005,  0.35405720033E+007,  0.16500000000E+002,  0.00000000000E+000,  0.10000000000E+001
  0.99141500000E+005,  0.35339170418E+007,  0.16500000000E+002,  0.00000000000E+000,  0.10000000000E+001
  0.99151500000E+005,  0.35271797565E+007,  0.16500000000E+002,  0.00000000000E+000,  0.10000000000E+001
  0.99161500000E+005,  0.35203818274E+007,  0.16500000000E+002,  0.00000000000E+000,  0.10000000000E+001
  0.99171500000E+005,  0.35135421536E+007,  0.16500000000E+002,  0.00000000000E+000,  0.10000000000E+001
  0.99179600000E+005,  0.35079822163E+007,  0.16500000000E+002,  0.00000000000E+000,  0.10000000000E+001
  0.99189600000E+005,  0.35011059678E+007,  0.16500000000E+002,  0.00000000000E+000,  0.10000000000E+001
  0.99199600000E+005,  0.34942286573E+007,  0.16500000000E+002,  0.00000000000E+000,  0.10000000000E+001
  0.99209600000E+005,  0.34873616867E+007,  0.16500000000E+002,  0.00000000000E+000,  0.10000000000E+001
  0.99219600000E+005,  0.34805148714E+007,  0.16500000000E+002,  0.00000000000E+000,  0.10000000000E+001
  0.99229600000E+005,  0.34736966275E+007,  0.16500000000E+002,  0.00000000000E+000,  0.10000000000E+001
  0.99239600000E+005,  0.34669139660E+007,  0.16500000000E+002,  0.00000000000E+000,  0.10000000000E+001
  0.99249600000E+005,  0.34601724465E+007,  0.16500000000E+002,  0.00000000000E+000,  0.10000000000E+001
  0.99259600000E+005,  0.34534763485E+007,  0.16500000000E+002,  0.00000000000E+000,  0.10000000000E+001
  0.99269600000E+005,  0.34468289096E+007,  0.16500000000E+002,  0.00000000000E+000,  0.10000000000E+001
  0.99279600000E+005,  0.34402324188E+007,  0.16500000000E+002,  0.00000000000E+000,  0.10000000000E+001
  0.99289600000E+005,  0.34336880226E+007,  0.16500000000E+002,  0.00000000000E+000,  0.10000000000E+001
  0.99299600000E+005,  0.34271957292E+007,  0.16500000000E+002,  0.00000000000E+000,  0.10000000000E+001
  0.99309600000E+005,  0.34207545253E+007,  0.16500000000E+002,  0.00000000000E+000,  0.10000000000E+001
  0.99319600000E+005,  0.34143627722E+007,  0.16500000000E+002,  0.00000000000E+000,  0.10000000000E+001
  0.99329600000E+005,  0.34080184925E+007,  0.16500000000E+002,  0.00000000000E+000,  0.10000000000E+001
  0.99339600000E+005,  0.34017192752E+007,  0.16500000000E+002,  0.00000000000E+000,  0.10000000000E+001
  0.99349600000E+005,  0.33954624279E+007,  0.16500000000E+002,  0.00000000000E+000,  0.10000000000E+001
  0.99359600000E+005,  0.33892452489E+007,  0.16500000000E+002,  0.00000000000E+000,  0.10000000000E+001
  0.99369600000E+005,  0.33830652016E+007,  0.16500000000E+002,  0.00000000000E+000,  0.10000000000E+001
  0.99379600000E+005,  0.33769199925E+007,  0.16500000000E+002,  0.00000000000E+000,  0.10000000000E+001
  0.99389600000E+005,  0.33708079740E+007,  0.16500000000E+002,  0.00000000000E+000,  0.10000000000E+001
  0.99399600000E+005,  0.33647284405E+007,  0.16500000000E+002,  0.00000000000E+000,  0.10000000000E+001
  0.99409600000E+005,  0.33586816265E+007,  0.16500000000E+002,  0.00000000000E+000,  0.10000000000E+001
  0.99419600000E+005,  0.33526684232E+007,  0.16500000000E+002,  0.00000000000E+000,  0.10000000000E+001
  0.99429600000E+005,  0.33466900637E+007,  0.16500000000E+002,  0.00000000000E+000,  0.10000000000E+001
  0.99439600000E+005,  0.33407479443E+007,  0.16500000000E+002,  0.00000000000E+000,  0.10000000000E+001
  0.99449600000E+005,  0.33348434809E+007,  0.16500000000E+002,  0.00000000000E+000,  0.10000000000E+001
  0.99449700000E+005,  0.33347844723E+007,  0.16500000000E+002,  0.00000000000E+000,  0.10000000000E+001
  0.99459700000E+005,  0.33289192767E+007,  0.16500000000E+002,  0.00000000000E+000,  0.10000000000E+001
  0.99469700000E+005,  0.33230941145E+007,  0.16500000000E+002,  0.00000000000E+000,  0.10000000000E+001
  0.99479700000E+005,  0.33173100200E+007,  0.16500000000E+002,  0.00000000000E+000,  0.10000000000E+001
  0.99489700000E+005,  0.33115680681E+007,  0.16500000000E+002,  0.00000000000E+000,  0.10000000000E+001
  0.99499700000E+005,  0.33058694101E+007,  0.16500000000E+002,  0.00000000000E+000,  0.10000000000E+001
  0.99509700000E+005,  0.33002152282E+007,  0.16500000000E+002,  0.00000000000E+000,  0.10000000000E+001
  0.99519700000E+005,  0.32946067694E+007,  0.16500000000E+002,  0.00000000000E+000,  0.10000000000E+001
  0.99529700000E+005,  0.32890452716E+007,  0.16500000000E+002,  0.00000000000E+000,  0.10000000000E+001
  0.99539700000E+005,  0.32835319762E+007,  0.16500000000E+002,  0.00000000000E+000,  0.10000000000E+001
  0.99549700000E+005,  0.32780681344E+007,  0.16500000000E+002,  0.00000000000E+000,  0.10000000000E+001
  0.99559700000E+005,  0.32726549476E+007,  0.16500000000E+002,  0.00000000000E+000,  0.10000000000E+001
  0.99569700000E+005,  0.32672935107E+007,  0.16500000000E+002,  0.00000000000E+000,  0.10000000000E+001
  0.99579700000E+005,  0.32619847775E+007,  0.16500000000E+002,  0.00000000000E+000,  0.10000000000E+001
  0.99589700000E+005,  0.32567295711E+007,  0.16500000000E+002,  0.00000000000E+000,  0.10000000000E+001
  0.99599700000E+005,  0.32515285466E+007,  0.16500000000E+002,  0.00000000000E+000,  0.10000000000E+001
  0.99609700000E+005,  0.32463822252E+007,  0.16500000000E+002,  0.00000000000E+000,  0.10000000000E+001
  0.99619700000E+005,  0.32412910545E+007,  0.16500000000E+002,  0.00000000000E+000,  0.10000000000E+001
  0.99629700000E+005,  0.32362554984E+007,  0.16500000000E+002,  0.00000000000E+000,  0.10000000000E+001
  0.99639700000E+005,  0.32312760278E+007,  0.16500000000E+002,  0.00000000000E+000,  0.10000000000E+001
  0.99649700000E+005,  0.32263530209E+007,  0.16500000000E+002,  0.00000000000E+000,  0.10000000000E+001
  0.99659700000E+005,  0.32214867877E+007,  0.16500000000E+002,  0.00000000000E+000,  0.10000000000E+001
  0.99669700000E+005,  0.32166775499E+007,  0.16500000000E+002,  0.00000000000E+000,  0.10000000000E+001
  0.99679700000E+005,  0.32119254367E+007,  0.16500000000E+002,  0.00000000000E+000,  0.10000000000E+001
  0.99689700000E+005,  0.32072304586E+007,  0.16500000000E+002,  0.00000000000E+000,  0.10000000000E+001
  0.99699700000E+005,  0.32025924539E+007,  0.16500000000E+002,  0.00000000000E+000,  0.10000000000E+001
  0.99709700000E+005,  0.31980111398E+007,  0.16500000000E+002,  0.00000000000E+000,  0.10000000000E+001
  0.99719700000E+005,  0.31934860531E+007,  0.16500000000E+002,  0.00000000000E+000,  0.10000000000E+001
  0.99719800000E+005,  0.31934408284E+007,  0.16500000000E+002,  0.00000000000E+000,  0.10000000000E+001
  0.99720300000E+005,  0.31932147933E+007,  0.16500000000E+002,  0.00000000000E+000,  0.10000000000E+001
  0.99722800000E+005,  0.31920879944E+007,  0.16500000000E+002,  0.00000000000E+000,  0.10000000000E+001
  0.99732800000E+005,  0.31876356959E+007,  0.16500000000E+002,  0.00000000000E+000,  0.10000000000E+001
  0.99742800000E+005,  0.31832381743E+007,  0.16500000000E+002,  0.00000000000E+000,  0.10000000000E+001
  0.99752800000E+005,  0.31788947996E+007,  0.16500000000E+002,  0.00000000000E+000,  0.10000000000E+001
  0.99762800000E+005,  0.31746049919E+007,  0.16500000000E+002,  0.00000000000E+000,  0.10000000000E+001
