"           TIME(S)","              PRES","              TEMP","             SAT_G","             SAT_L"
  0.94880500000E+005,  0.49931369016E+006,  0.16500000000E+002,  0.00000000000E+000,  0.10000000000E+001
  0.94881000000E+005,  0.49931369016E+006,  0.16500000000E+002,  0.00000000000E+000,  0.10000000000E+001
  0.94881500000E+005,  0.49931369016E+006,  0.16500000000E+002,  0.00000000000E+000,  0.10000000000E+001
  0.94882000000E+005,  0.60079425949E+006,  0.16500000000E+002,  0.00000000000E+000,  0.10000000000E+001
  0.94882500000E+005,  0.71514226362E+006,  0.16500000000E+002,  0.00000000000E+000,  0.10000000000E+001
  0.94883000000E+005,  0.82841574208E+006,  0.16500000000E+002,  0.00000000000E+000,  0.10000000000E+001
  0.94883500000E+005,  0.94061470109E+006,  0.16500000000E+002,  0.00000000000E+000,  0.10000000000E+001
  0.94884000000E+005,  0.10517146293E+007,  0.16500000000E+002,  0.00000000000E+000,  0.10000000000E+001
  0.94884500000E+005,  0.11616661394E+007,  0.16500000000E+002,  0.00000000000E+000,  0.10000000000E+001
  0.94885000000E+005,  0.12704065402E+007,  0.16500000000E+002,  0.00000000000E+000,  0.10000000000E+001
  0.94885500000E+005,  0.13778880626E+007,  0.16500000000E+002,  0.00000000000E+000,  0.10000000000E+001
  0.94886000000E+005,  0.14840871382E+007,  0.16500000000E+002,  0.00000000000E+000,  0.10000000000E+001
  0.94886500000E+005,  0.15889912702E+007,  0.16500000000E+002,  0.00000000000E+000,  0.10000000000E+001
  0.94887000000E+005,  0.16926085799E+007,  0.16500000000E+002,  0.00000000000E+000,  0.10000000000E+001
  0.94887500000E+005,  0.17949653608E+007,  0.16500000000E+002,  0.00000000000E+000,  0.10000000000E+001
  0.94888000000E+005,  0.18960952590E+007,  0.16500000000E+002,  0.00000000000E+000,  0.10000000000E+001
  0.94888500000E+005,  0.19960162182E+007,  0.16500000000E+002,  0.00000000000E+000,  0.10000000000E+001
  0.94889000000E+005,  0.20947258158E+007,  0.16500000000E+002,  0.00000000000E+000,  0.10000000000E+001
  0.94889500000E+005,  0.21921554364E+007,  0.16500000000E+002,  0.00000000000E+000,  0.10000000000E+001
  0.94890000000E+005,  0.22882312895E+007,  0.16500000000E+002,  0.00000000000E+000,  0.10000000000E+001
  0.94890500000E+005,  0.23828791880E+007,  0.16500000000E+002,  0.00000000000E+000,  0.10000000000E+001
  0.94891000000E+005,  0.24760084467E+007,  0.16500000000E+002,  0.00000000000E+000,  0.10000000000E+001
  0.94891500000E+005,  0.25675446974E+007,  0.16500000000E+002,  0.00000000000E+000,  0.10000000000E+001
  0.94892000000E+005,  0.26573870100E+007,  0.16500000000E+002,  0.00000000000E+000,  0.10000000000E+001
  0.94892500000E+005,  0.27454695416E+007,  0.16500000000E+002,  0.00000000000E+000,  0.10000000000E+001
  0.94893000000E+005,  0.28317349897E+007,  0.16500000000E+002,  0.00000000000E+000,  0.10000000000E+001
  0.94893500000E+005,  0.29161903398E+007,  0.16500000000E+002,  0.00000000000E+000,  0.10000000000E+001
  0.94894000000E+005,  0.29988252167E+007,  0.16500000000E+002,  0.00000000000E+000,  0.10000000000E+001
  0.94894500000E+005,  0.30796451673E+007,  0.16500000000E+002,  0.00000000000E+000,  0.10000000000E+001
  0.94895000000E+005,  0.31586202741E+007,  0.16500000000E+002,  0.00000000000E+000,  0.10000000000E+001
  0.94895500000E+005,  0.32357110320E+007,  0.16500000000E+002,  0.00000000000E+000,  0.10000000000E+001
  0.94896000000E+005,  0.33108553039E+007,  0.16500000000E+002,  0.00000000000E+000,  0.10000000000E+001
  0.94896500000E+005,  0.33839669170E+007,  0.16500000000E+002,  0.00000000000E+000,  0.10000000000E+001
  0.94897000000E+005,  0.34549542863E+007,  0.16500000000E+002,  0.00000000000E+000,  0.10000000000E+001
  0.94897500000E+005,  0.35236759612E+007,  0.16500000000E+002,  0.00000000000E+000,  0.10000000000E+001
  0.94898000000E+005,  0.35900432426E+007,  0.16500000000E+002,  0.00000000000E+000,  0.10000000000E+001
  0.94898500000E+005,  0.36539297761E+007,  0.16500000000E+002,  0.00000000000E+000,  0.10000000000E+001
  0.94899000000E+005,  0.37152529627E+007,  0.16500000000E+002,  0.00000000000E+000,  0.10000000000E+001
  0.94899500000E+005,  0.37739803507E+007,  0.16500000000E+002,  0.00000000000E+000,  0.10000000000E+001
  0.94900000000E+005,  0.38300931710E+007,  0.16500000000E+002,  0.00000000000E+000,  0.10000000000E+001
  0.94900500000E+005,  0.38837353806E+007,  0.16500000000E+002,  0.00000000000E+000,  0.10000000000E+001
  0.94901000000E+005,  0.39349626967E+007,  0.16500000000E+002,  0.00000000000E+000,  0.10000000000E+001
  0.94901500000E+005,  0.39840460273E+007,  0.16500000000E+002,  0.00000000000E+000,  0.10000000000E+001
  0.94902000000E+005,  0.40312124181E+007,  0.16500000000E+002,  0.00000000000E+000,  0.10000000000E+001
  0.94902500000E+005,  0.40764645557E+007,  0.16500000000E+002,  0.00000000000E+000,  0.10000000000E+001
  0.94903000000E+005,  0.41198472849E+007,  0.16500000000E+002,  0.00000000000E+000,  0.10000000000E+001
  0.94903500000E+005,  0.41615222020E+007,  0.16500000000E+002,  0.00000000000E+000,  0.10000000000E+001
  0.94904000000E+005,  0.42014200010E+007,  0.16500000000E+002,  0.00000000000E+000,  0.10000000000E+001
  0.94904500000E+005,  0.42396077268E+007,  0.16500000000E+002,  0.00000000000E+000,  0.10000000000E+001
  0.94905000000E+005,  0.42766410503E+007,  0.16500000000E+002,  0.00000000000E+000,  0.10000000000E+001
  0.94905500000E+005,  0.43131734214E+007,  0.16500000000E+002,  0.00000000000E+000,  0.10000000000E+001
  0.94906000000E+005,  0.43492998564E+007,  0.16500000000E+002,  0.00000000000E+000,  0.10000000000E+001
  0.94906500000E+005,  0.43848677872E+007,  0.16500000000E+002,  0.00000000000E+000,  0.10000000000E+001
  0.94907000000E+005,  0.44194764621E+007,  0.16500000000E+002,  0.00000000000E+000,  0.10000000000E+001
  0.94907500000E+005,  0.44528763856E+007,  0.16500000000E+002,  0.00000000000E+000,  0.10000000000E+001
  0.94908000000E+005,  0.44850688645E+007,  0.16500000000E+002,  0.00000000000E+000,  0.10000000000E+001
  0.94908500000E+005,  0.45161010440E+007,  0.16500000000E+002,  0.00000000000E+000,  0.10000000000E+001
  0.94909000000E+005,  0.45459207098E+007,  0.16500000000E+002,  0.00000000000E+000,  0.10000000000E+001
  0.94909500000E+005,  0.45746149801E+007,  0.16500000000E+002,  0.00000000000E+000,  0.10000000000E+001
  0.94910000000E+005,  0.46021628556E+007,  0.16500000000E+002,  0.00000000000E+000,  0.10000000000E+001
  0.94910500000E+005,  0.46284970005E+007,  0.16500000000E+002,  0.00000000000E+000,  0.10000000000E+001
  0.94911000000E+005,  0.46534417336E+007,  0.16500000000E+002,  0.00000000000E+000,  0.10000000000E+001
  0.94911500000E+005,  0.46767706607E+007,  0.16500000000E+002,  0.00000000000E+000,  0.10000000000E+001
  0.94912000000E+005,  0.46983882377E+007,  0.16500000000E+002,  0.00000000000E+000,  0.10000000000E+001
  0.94912500000E+005,  0.47181168199E+007,  0.16500000000E+002,  0.00000000000E+000,  0.10000000000E+001
  0.94913000000E+005,  0.47364755302E+007,  0.16500000000E+002,  0.00000000000E+000,  0.10000000000E+001
  0.94913500000E+005,  0.47530338162E+007,  0.16500000000E+002,  0.00000000000E+000,  0.10000000000E+001
  0.94914000000E+005,  0.47672706194E+007,  0.16500000000E+002,  0.00000000000E+000,  0.10000000000E+001
  0.94914500000E+005,  0.47797658472E+007,  0.16500000000E+002,  0.00000000000E+000,  0.10000000000E+001
  0.94915000000E+005,  0.47914464639E+007,  0.16500000000E+002,  0.00000000000E+000,  0.10000000000E+001
  0.94915500000E+005,  0.48015909332E+007,  0.16500000000E+002,  0.00000000000E+000,  0.10000000000E+001
  0.94916000000E+005,  0.48951223303E+007,  0.16500000000E+002,  0.00000000000E+000,  0.10000000000E+001
  0.94916500000E+005,  0.49925098361E+007,  0.16500000000E+002,  0.00000000000E+000,  0.10000000000E+001
  0.94917000000E+005,  0.50068077032E+007,  0.16500000000E+002,  0.00000000000E+000,  0.10000000000E+001
  0.94917500000E+005,  0.50090131225E+007,  0.16500000000E+002,  0.00000000000E+000,  0.10000000000E+001
  0.94918000000E+005,  0.50090255712E+007,  0.16500000000E+002,  0.00000000000E+000,  0.10000000000E+001
  0.94918500000E+005,  0.50063708581E+007,  0.16500000000E+002,  0.00000000000E+000,  0.10000000000E+001
  0.94919000000E+005,  0.50013043912E+007,  0.16500000000E+002,  0.00000000000E+000,  0.10000000000E+001
  0.94919500000E+005,  0.49943304323E+007,  0.16500000000E+002,  0.00000000000E+000,  0.10000000000E+001
  0.94920000000E+005,  0.49861302807E+007,  0.16500000000E+002,  0.00000000000E+000,  0.10000000000E+001
  0.94920500000E+005,  0.49772701186E+007,  0.16500000000E+002,  0.00000000000E+000,  0.10000000000E+001
  0.94921000000E+005,  0.49598664341E+007,  0.16500000000E+002,  0.00000000000E+000,  0.10000000000E+001
  0.94921500000E+005,  0.49420778273E+007,  0.16500000000E+002,  0.00000000000E+000,  0.10000000000E+001
  0.94922000000E+005,  0.49175714493E+007,  0.16500000000E+002,  0.00000000000E+000,  0.10000000000E+001
  0.94922500000E+005,  0.48928460584E+007,  0.16500000000E+002,  0.00000000000E+000,  0.10000000000E+001
  0.94923000000E+005,  0.48666111141E+007,  0.16500000000E+002,  0.00000000000E+000,  0.10000000000E+001
  0.94923500000E+005,  0.48405937405E+007,  0.16500000000E+002,  0.00000000000E+000,  0.10000000000E+001
  0.94924000000E+005,  0.48799548049E+007,  0.16500000000E+002,  0.00000000000E+000,  0.10000000000E+001
  0.94924500000E+005,  0.49221300523E+007,  0.16500000000E+002,  0.00000000000E+000,  0.10000000000E+001
  0.94925000000E+005,  0.49327525596E+007,  0.16500000000E+002,  0.00000000000E+000,  0.10000000000E+001
  0.94925500000E+005,  0.49371237832E+007,  0.16500000000E+002,  0.00000000000E+000,  0.10000000000E+001
  0.94926000000E+005,  0.49388705590E+007,  0.16500000000E+002,  0.00000000000E+000,  0.10000000000E+001
  0.94926500000E+005,  0.49378699399E+007,  0.16500000000E+002,  0.00000000000E+000,  0.10000000000E+001
  0.94927000000E+005,  0.49778474955E+007,  0.16500000000E+002,  0.00000000000E+000,  0.10000000000E+001
  0.94927500000E+005,  0.50167927792E+007,  0.16500000000E+002,  0.00000000000E+000,  0.10000000000E+001
  0.94928000000E+005,  0.50496337769E+007,  0.16500000000E+002,  0.00000000000E+000,  0.10000000000E+001
  0.94928500000E+005,  0.50766449787E+007,  0.16500000000E+002,  0.00000000000E+000,  0.10000000000E+001
  0.94929000000E+005,  0.51073215074E+007,  0.16500000000E+002,  0.00000000000E+000,  0.10000000000E+001
  0.94929500000E+005,  0.51328015318E+007,  0.16500000000E+002,  0.00000000000E+000,  0.10000000000E+001
  0.94930000000E+005,  0.51981147924E+007,  0.16500000000E+002,  0.00000000000E+000,  0.10000000000E+001
  0.94930500000E+005,  0.52577010417E+007,  0.16500000000E+002,  0.00000000000E+000,  0.10000000000E+001
  0.94931000000E+005,  0.53484813565E+007,  0.16500000000E+002,  0.00000000000E+000,  0.10000000000E+001
  0.94931500000E+005,  0.54273842251E+007,  0.16500000000E+002,  0.00000000000E+000,  0.10000000000E+001
  0.94932000000E+005,  0.55363231346E+007,  0.16500000000E+002,  0.00000000000E+000,  0.10000000000E+001
  0.94932500000E+005,  0.56275823880E+007,  0.16500000000E+002,  0.00000000000E+000,  0.10000000000E+001
  0.94933000000E+005,  0.57342551946E+007,  0.16500000000E+002,  0.00000000000E+000,  0.10000000000E+001
  0.94933500000E+005,  0.57849740705E+007,  0.16500000000E+002,  0.00000000000E+000,  0.10000000000E+001
  0.94934000000E+005,  0.58166282366E+007,  0.16500000000E+002,  0.00000000000E+000,  0.10000000000E+001
  0.94934500000E+005,  0.58289093808E+007,  0.16500000000E+002,  0.00000000000E+000,  0.10000000000E+001
  0.94935000000E+005,  0.58258435056E+007,  0.16500000000E+002,  0.00000000000E+000,  0.10000000000E+001
  0.94935500000E+005,  0.58124970060E+007,  0.16500000000E+002,  0.00000000000E+000,  0.10000000000E+001
  0.94936000000E+005,  0.57892332504E+007,  0.16500000000E+002,  0.00000000000E+000,  0.10000000000E+001
  0.94936500000E+005,  0.57577468107E+007,  0.16500000000E+002,  0.00000000000E+000,  0.10000000000E+001
  0.94937000000E+005,  0.57223466099E+007,  0.16500000000E+002,  0.00000000000E+000,  0.10000000000E+001
  0.94937500000E+005,  0.56845901367E+007,  0.16500000000E+002,  0.00000000000E+000,  0.10000000000E+001
  0.94938000000E+005,  0.56485808118E+007,  0.16500000000E+002,  0.00000000000E+000,  0.10000000000E+001
  0.94938500000E+005,  0.56050198961E+007,  0.16500000000E+002,  0.00000000000E+000,  0.10000000000E+001
  0.94939000000E+005,  0.55591550528E+007,  0.16500000000E+002,  0.00000000000E+000,  0.10000000000E+001
  0.94939500000E+005,  0.55190793240E+007,  0.16500000000E+002,  0.00000000000E+000,  0.10000000000E+001
  0.94940000000E+005,  0.54780512487E+007,  0.16500000000E+002,  0.00000000000E+000,  0.10000000000E+001
  0.94940500000E+005,  0.54459689391E+007,  0.16500000000E+002,  0.00000000000E+000,  0.10000000000E+001
  0.94941000000E+005,  0.54152655321E+007,  0.16500000000E+002,  0.00000000000E+000,  0.10000000000E+001
  0.94941500000E+005,  0.53848375566E+007,  0.16500000000E+002,  0.00000000000E+000,  0.10000000000E+001
  0.94942000000E+005,  0.53588688667E+007,  0.16500000000E+002,  0.00000000000E+000,  0.10000000000E+001
  0.94942500000E+005,  0.53343457088E+007,  0.16500000000E+002,  0.00000000000E+000,  0.10000000000E+001
  0.94943000000E+005,  0.53143892248E+007,  0.16500000000E+002,  0.00000000000E+000,  0.10000000000E+001
  0.94943500000E+005,  0.52991517033E+007,  0.16500000000E+002,  0.00000000000E+000,  0.10000000000E+001
  0.94944000000E+005,  0.52872627879E+007,  0.16500000000E+002,  0.00000000000E+000,  0.10000000000E+001
  0.94944500000E+005,  0.52745500175E+007,  0.16500000000E+002,  0.00000000000E+000,  0.10000000000E+001
  0.94945000000E+005,  0.52595520593E+007,  0.16500000000E+002,  0.00000000000E+000,  0.10000000000E+001
  0.94945500000E+005,  0.52459409077E+007,  0.16500000000E+002,  0.00000000000E+000,  0.10000000000E+001
  0.94946000000E+005,  0.52792236653E+007,  0.16500000000E+002,  0.00000000000E+000,  0.10000000000E+001
  0.94946500000E+005,  0.53008842139E+007,  0.16500000000E+002,  0.00000000000E+000,  0.10000000000E+001
  0.94947000000E+005,  0.53126672002E+007,  0.16500000000E+002,  0.00000000000E+000,  0.10000000000E+001
  0.94947500000E+005,  0.53132880335E+007,  0.16500000000E+002,  0.00000000000E+000,  0.10000000000E+001
  0.94948000000E+005,  0.53028992743E+007,  0.16500000000E+002,  0.00000000000E+000,  0.10000000000E+001
  0.94948500000E+005,  0.52945683784E+007,  0.16500000000E+002,  0.00000000000E+000,  0.10000000000E+001
  0.94949000000E+005,  0.52800233940E+007,  0.16500000000E+002,  0.00000000000E+000,  0.10000000000E+001
  0.94949500000E+005,  0.52757704006E+007,  0.16500000000E+002,  0.00000000000E+000,  0.10000000000E+001
  0.94950000000E+005,  0.52785292025E+007,  0.16500000000E+002,  0.00000000000E+000,  0.10000000000E+001
  0.94950500000E+005,  0.52847380099E+007,  0.16500000000E+002,  0.00000000000E+000,  0.10000000000E+001
  0.94951000000E+005,  0.52892991762E+007,  0.16500000000E+002,  0.00000000000E+000,  0.10000000000E+001
  0.94951500000E+005,  0.52948710977E+007,  0.16500000000E+002,  0.00000000000E+000,  0.10000000000E+001
  0.94952000000E+005,  0.53008191826E+007,  0.16500000000E+002,  0.00000000000E+000,  0.10000000000E+001
  0.94952500000E+005,  0.53049837013E+007,  0.16500000000E+002,  0.00000000000E+000,  0.10000000000E+001
  0.94953000000E+005,  0.53064619382E+007,  0.16500000000E+002,  0.00000000000E+000,  0.10000000000E+001
  0.94953500000E+005,  0.53062392326E+007,  0.16500000000E+002,  0.00000000000E+000,  0.10000000000E+001
  0.94954000000E+005,  0.53064400224E+007,  0.16500000000E+002,  0.00000000000E+000,  0.10000000000E+001
  0.94954500000E+005,  0.53043625844E+007,  0.16500000000E+002,  0.00000000000E+000,  0.10000000000E+001
  0.94955000000E+005,  0.52923277965E+007,  0.16500000000E+002,  0.00000000000E+000,  0.10000000000E+001
  0.94955500000E+005,  0.52830507327E+007,  0.16500000000E+002,  0.00000000000E+000,  0.10000000000E+001
  0.94956000000E+005,  0.52765733100E+007,  0.16500000000E+002,  0.00000000000E+000,  0.10000000000E+001
  0.94956500000E+005,  0.52706016936E+007,  0.16500000000E+002,  0.00000000000E+000,  0.10000000000E+001
  0.94957000000E+005,  0.52650178757E+007,  0.16500000000E+002,  0.00000000000E+000,  0.10000000000E+001
  0.94957500000E+005,  0.52600169491E+007,  0.16500000000E+002,  0.00000000000E+000,  0.10000000000E+001
  0.94958000000E+005,  0.52551478067E+007,  0.16500000000E+002,  0.00000000000E+000,  0.10000000000E+001
  0.94958500000E+005,  0.52508032882E+007,  0.16500000000E+002,  0.00000000000E+000,  0.10000000000E+001
  0.94959000000E+005,  0.52470371199E+007,  0.16500000000E+002,  0.00000000000E+000,  0.10000000000E+001
  0.94959500000E+005,  0.52428785721E+007,  0.16500000000E+002,  0.00000000000E+000,  0.10000000000E+001
  0.94960000000E+005,  0.52396807813E+007,  0.16500000000E+002,  0.00000000000E+000,  0.10000000000E+001
  0.94960500000E+005,  0.52374324977E+007,  0.16500000000E+002,  0.00000000000E+000,  0.10000000000E+001
  0.94961000000E+005,  0.52352382949E+007,  0.16500000000E+002,  0.00000000000E+000,  0.10000000000E+001
  0.94961500000E+005,  0.52334822376E+007,  0.16500000000E+002,  0.00000000000E+000,  0.10000000000E+001
  0.94962000000E+005,  0.52322854996E+007,  0.16500000000E+002,  0.00000000000E+000,  0.10000000000E+001
  0.94962500000E+005,  0.52312283798E+007,  0.16500000000E+002,  0.00000000000E+000,  0.10000000000E+001
  0.94963000000E+005,  0.52301698593E+007,  0.16500000000E+002,  0.00000000000E+000,  0.10000000000E+001
  0.94963500000E+005,  0.52296693182E+007,  0.16500000000E+002,  0.00000000000E+000,  0.10000000000E+001
  0.94964000000E+005,  0.52296041131E+007,  0.16500000000E+002,  0.00000000000E+000,  0.10000000000E+001
  0.94964500000E+005,  0.52294454626E+007,  0.16500000000E+002,  0.00000000000E+000,  0.10000000000E+001
  0.94965000000E+005,  0.52286996710E+007,  0.16500000000E+002,  0.00000000000E+000,  0.10000000000E+001
  0.94965500000E+005,  0.52276491941E+007,  0.16500000000E+002,  0.00000000000E+000,  0.10000000000E+001
  0.94966000000E+005,  0.52252925557E+007,  0.16500000000E+002,  0.00000000000E+000,  0.10000000000E+001
  0.94966500000E+005,  0.52235216747E+007,  0.16500000000E+002,  0.00000000000E+000,  0.10000000000E+001
  0.94967000000E+005,  0.52215737702E+007,  0.16500000000E+002,  0.00000000000E+000,  0.10000000000E+001
  0.94967500000E+005,  0.52197584285E+007,  0.16500000000E+002,  0.00000000000E+000,  0.10000000000E+001
  0.94968000000E+005,  0.52181163031E+007,  0.16500000000E+002,  0.00000000000E+000,  0.10000000000E+001
  0.94968500000E+005,  0.52166077387E+007,  0.16500000000E+002,  0.00000000000E+000,  0.10000000000E+001
  0.94969000000E+005,  0.52166323704E+007,  0.16500000000E+002,  0.00000000000E+000,  0.10000000000E+001
  0.94969500000E+005,  0.52181728453E+007,  0.16500000000E+002,  0.00000000000E+000,  0.10000000000E+001
  0.94970000000E+005,  0.52210423478E+007,  0.16500000000E+002,  0.00000000000E+000,  0.10000000000E+001
  0.94970500000E+005,  0.52239171320E+007,  0.16500000000E+002,  0.00000000000E+000,  0.10000000000E+001
  0.94971000000E+005,  0.52275355070E+007,  0.16500000000E+002,  0.00000000000E+000,  0.10000000000E+001
  0.94971500000E+005,  0.52313439706E+007,  0.16500000000E+002,  0.00000000000E+000,  0.10000000000E+001
  0.94972000000E+005,  0.52349520746E+007,  0.16500000000E+002,  0.00000000000E+000,  0.10000000000E+001
  0.94972500000E+005,  0.52383639955E+007,  0.16500000000E+002,  0.00000000000E+000,  0.10000000000E+001
  0.94973000000E+005,  0.52417728165E+007,  0.16500000000E+002,  0.00000000000E+000,  0.10000000000E+001
  0.94973500000E+005,  0.52448156221E+007,  0.16500000000E+002,  0.00000000000E+000,  0.10000000000E+001
  0.94974000000E+005,  0.52473663245E+007,  0.16500000000E+002,  0.00000000000E+000,  0.10000000000E+001
  0.94974500000E+005,  0.52490701367E+007,  0.16500000000E+002,  0.00000000000E+000,  0.10000000000E+001
