"           TIME(S)","              PRES","              TEMP","             SAT_G","             SAT_L"
  0.94881000000E+005,  0.47500077278E+006,  0.16500000000E+002,  0.00000000000E+000,  0.10000000000E+001
  0.94884000000E+005,  0.47500077276E+006,  0.16500000000E+002,  0.00000000000E+000,  0.10000000000E+001
  0.94885000000E+005,  0.47500077275E+006,  0.16500000000E+002,  0.00000000000E+000,  0.10000000000E+001
  0.94888000000E+005,  0.47500077273E+006,  0.16500000000E+002,  0.00000000000E+000,  0.10000000000E+001
  0.94890000000E+005,  0.47500077271E+006,  0.16500000000E+002,  0.00000000000E+000,  0.10000000000E+001
  0.94893000000E+005,  0.47500077269E+006,  0.16500000000E+002,  0.00000000000E+000,  0.10000000000E+001
  0.94895000000E+005,  0.47500077267E+006,  0.16500000000E+002,  0.00000000000E+000,  0.10000000000E+001
  0.94898000000E+005,  0.47500077265E+006,  0.16500000000E+002,  0.00000000000E+000,  0.10000000000E+001
  0.94900000000E+005,  0.47500077264E+006,  0.16500000000E+002,  0.00000000000E+000,  0.10000000000E+001
  0.94901000000E+005,  0.47500077263E+006,  0.16500000000E+002,  0.00000000000E+000,  0.10000000000E+001
  0.94905000000E+005,  0.47500077271E+006,  0.16500000000E+002,  0.00000000000E+000,  0.10000000000E+001
  0.94911000000E+005,  0.47500077502E+006,  0.16500000000E+002,  0.00000000000E+000,  0.10000000000E+001
  0.94921000000E+005,  0.47500086655E+006,  0.16500000000E+002,  0.00000000000E+000,  0.10000000000E+001
  0.94931000000E+005,  0.47500133239E+006,  0.16500000000E+002,  0.00000000000E+000,  0.10000000000E+001
  0.94941000000E+005,  0.47500290095E+006,  0.16500000000E+002,  0.00000000000E+000,  0.10000000000E+001
  0.94951000000E+005,  0.47500710857E+006,  0.16500000000E+002,  0.00000000000E+000,  0.10000000000E+001
  0.94961000000E+005,  0.47501679566E+006,  0.16500000000E+002,  0.00000000000E+000,  0.10000000000E+001
  0.94971000000E+005,  0.47503670438E+006,  0.16500000000E+002,  0.00000000000E+000,  0.10000000000E+001
  0.94981000000E+005,  0.47507412851E+006,  0.16500000000E+002,  0.00000000000E+000,  0.10000000000E+001
  0.94991000000E+005,  0.47513955465E+006,  0.16500000000E+002,  0.00000000000E+000,  0.10000000000E+001
  0.95001000000E+005,  0.47524724101E+006,  0.16500000000E+002,  0.00000000000E+000,  0.10000000000E+001
  0.95011000000E+005,  0.47541570588E+006,  0.16500000000E+002,  0.00000000000E+000,  0.10000000000E+001
  0.95021000000E+005,  0.47566811618E+006,  0.16500000000E+002,  0.00000000000E+000,  0.10000000000E+001
  0.95031000000E+005,  0.47603260135E+006,  0.16500000000E+002,  0.00000000000E+000,  0.10000000000E+001
  0.95041000000E+005,  0.47654251758E+006,  0.16500000000E+002,  0.00000000000E+000,  0.10000000000E+001
  0.95051000000E+005,  0.47723668345E+006,  0.16500000000E+002,  0.00000000000E+000,  0.10000000000E+001
  0.95061000000E+005,  0.47815960252E+006,  0.16500000000E+002,  0.00000000000E+000,  0.10000000000E+001
  0.95071000000E+005,  0.47936167883E+006,  0.16500000000E+002,  0.00000000000E+000,  0.10000000000E+001
  0.95081000000E+005,  0.48089938945E+006,  0.16500000000E+002,  0.00000000000E+000,  0.10000000000E+001
  0.95091000000E+005,  0.48283540548E+006,  0.16500000000E+002,  0.00000000000E+000,  0.10000000000E+001
  0.95101000000E+005,  0.48523857082E+006,  0.16500000000E+002,  0.00000000000E+000,  0.10000000000E+001
  0.95111000000E+005,  0.48818372318E+006,  0.16500000000E+002,  0.00000000000E+000,  0.10000000000E+001
  0.95121000000E+005,  0.49175122320E+006,  0.16500000000E+002,  0.00000000000E+000,  0.10000000000E+001
  0.95131000000E+005,  0.49602617352E+006,  0.16500000000E+002,  0.00000000000E+000,  0.10000000000E+001
  0.95141000000E+005,  0.50109724447E+006,  0.16500000000E+002,  0.00000000000E+000,  0.10000000000E+001
  0.95151000000E+005,  0.50705509485E+006,  0.16500000000E+002,  0.00000000000E+000,  0.10000000000E+001
  0.95161000000E+005,  0.51399036556E+006,  0.16500000000E+002,  0.00000000000E+000,  0.10000000000E+001
  0.95171000000E+005,  0.52199131993E+006,  0.16500000000E+002,  0.00000000000E+000,  0.10000000000E+001
  0.95181000000E+005,  0.53114119951E+006,  0.16500000000E+002,  0.00000000000E+000,  0.10000000000E+001
  0.95191000000E+005,  0.54151536271E+006,  0.16500000000E+002,  0.00000000000E+000,  0.10000000000E+001
  0.95201000000E+005,  0.55317851143E+006,  0.16500000000E+002,  0.00000000000E+000,  0.10000000000E+001
  0.95211000000E+005,  0.56618194619E+006,  0.16500000000E+002,  0.00000000000E+000,  0.10000000000E+001
  0.95221000000E+005,  0.58056103135E+006,  0.16500000000E+002,  0.00000000000E+000,  0.10000000000E+001
  0.95231000000E+005,  0.59633317552E+006,  0.16500000000E+002,  0.00000000000E+000,  0.10000000000E+001
  0.95241000000E+005,  0.61349629044E+006,  0.16500000000E+002,  0.00000000000E+000,  0.10000000000E+001
  0.95251000000E+005,  0.63202759303E+006,  0.16500000000E+002,  0.00000000000E+000,  0.10000000000E+001
  0.95261000000E+005,  0.65188352776E+006,  0.16500000000E+002,  0.00000000000E+000,  0.10000000000E+001
  0.95271000000E+005,  0.67299982596E+006,  0.16500000000E+002,  0.00000000000E+000,  0.10000000000E+001
  0.95281000000E+005,  0.69529283203E+006,  0.16500000000E+002,  0.00000000000E+000,  0.10000000000E+001
  0.95291000000E+005,  0.71866094447E+006,  0.16500000000E+002,  0.00000000000E+000,  0.10000000000E+001
  0.95301000000E+005,  0.74298716327E+006,  0.16500000000E+002,  0.00000000000E+000,  0.10000000000E+001
  0.95311000000E+005,  0.76814187932E+006,  0.16500000000E+002,  0.00000000000E+000,  0.10000000000E+001
  0.95321000000E+005,  0.79398637843E+006,  0.16500000000E+002,  0.00000000000E+000,  0.10000000000E+001
  0.95331000000E+005,  0.82037628143E+006,  0.16500000000E+002,  0.00000000000E+000,  0.10000000000E+001
  0.95341000000E+005,  0.84716540465E+006,  0.16500000000E+002,  0.00000000000E+000,  0.10000000000E+001
  0.95351000000E+005,  0.87420936644E+006,  0.16500000000E+002,  0.00000000000E+000,  0.10000000000E+001
  0.95361000000E+005,  0.90136896896E+006,  0.16500000000E+002,  0.00000000000E+000,  0.10000000000E+001
  0.95371000000E+005,  0.92851318963E+006,  0.16500000000E+002,  0.00000000000E+000,  0.10000000000E+001
  0.95381000000E+005,  0.95552149276E+006,  0.16500000000E+002,  0.00000000000E+000,  0.10000000000E+001
  0.95391000000E+005,  0.98228587484E+006,  0.16500000000E+002,  0.00000000000E+000,  0.10000000000E+001
  0.95401000000E+005,  0.10087117825E+007,  0.16500000000E+002,  0.00000000000E+000,  0.10000000000E+001
  0.95411000000E+005,  0.10347187852E+007,  0.16500000000E+002,  0.00000000000E+000,  0.10000000000E+001
  0.95421000000E+005,  0.10602405926E+007,  0.16500000000E+002,  0.00000000000E+000,  0.10000000000E+001
  0.95431000000E+005,  0.10852244274E+007,  0.16500000000E+002,  0.00000000000E+000,  0.10000000000E+001
  0.95441000000E+005,  0.11096301946E+007,  0.16500000000E+002,  0.00000000000E+000,  0.10000000000E+001
  0.95451000000E+005,  0.11334292012E+007,  0.16500000000E+002,  0.00000000000E+000,  0.10000000000E+001
  0.95461000000E+005,  0.11566029596E+007,  0.16500000000E+002,  0.00000000000E+000,  0.10000000000E+001
  0.95471000000E+005,  0.11791416052E+007,  0.16500000000E+002,  0.00000000000E+000,  0.10000000000E+001
  0.95481000000E+005,  0.12010425975E+007,  0.16500000000E+002,  0.00000000000E+000,  0.10000000000E+001
  0.95491000000E+005,  0.12223091983E+007,  0.16500000000E+002,  0.00000000000E+000,  0.10000000000E+001
  0.95501000000E+005,  0.12429493927E+007,  0.16500000000E+002,  0.00000000000E+000,  0.10000000000E+001
  0.95511000000E+005,  0.12629746300E+007,  0.16500000000E+002,  0.00000000000E+000,  0.10000000000E+001
  0.95521000000E+005,  0.12823988955E+007,  0.16500000000E+002,  0.00000000000E+000,  0.10000000000E+001
  0.95531000000E+005,  0.13012379152E+007,  0.16500000000E+002,  0.00000000000E+000,  0.10000000000E+001
  0.95541000000E+005,  0.13195085085E+007,  0.16500000000E+002,  0.00000000000E+000,  0.10000000000E+001
  0.95551000000E+005,  0.13372281065E+007,  0.16500000000E+002,  0.00000000000E+000,  0.10000000000E+001
  0.95561000000E+005,  0.13544142196E+007,  0.16500000000E+002,  0.00000000000E+000,  0.10000000000E+001
  0.95571000000E+005,  0.13710840727E+007,  0.16500000000E+002,  0.00000000000E+000,  0.10000000000E+001
  0.95581000000E+005,  0.13872547571E+007,  0.16500000000E+002,  0.00000000000E+000,  0.10000000000E+001
  0.95591000000E+005,  0.14029426323E+007,  0.16500000000E+002,  0.00000000000E+000,  0.10000000000E+001
  0.95601000000E+005,  0.14181635712E+007,  0.16500000000E+002,  0.00000000000E+000,  0.10000000000E+001
  0.95611000000E+005,  0.14329327767E+007,  0.16500000000E+002,  0.00000000000E+000,  0.10000000000E+001
  0.95621000000E+005,  0.14472648672E+007,  0.16500000000E+002,  0.00000000000E+000,  0.10000000000E+001
  0.95631000000E+005,  0.14611737842E+007,  0.16500000000E+002,  0.00000000000E+000,  0.10000000000E+001
  0.95641000000E+005,  0.14746727565E+007,  0.16500000000E+002,  0.00000000000E+000,  0.10000000000E+001
  0.95651000000E+005,  0.14877744297E+007,  0.16500000000E+002,  0.00000000000E+000,  0.10000000000E+001
  0.95661000000E+005,  0.15004910251E+007,  0.16500000000E+002,  0.00000000000E+000,  0.10000000000E+001
  0.95671000000E+005,  0.15128340882E+007,  0.16500000000E+002,  0.00000000000E+000,  0.10000000000E+001
  0.95681000000E+005,  0.15248147422E+007,  0.16500000000E+002,  0.00000000000E+000,  0.10000000000E+001
  0.95691000000E+005,  0.15364438119E+007,  0.16500000000E+002,  0.00000000000E+000,  0.10000000000E+001
  0.95701000000E+005,  0.15477315728E+007,  0.16500000000E+002,  0.00000000000E+000,  0.10000000000E+001
  0.95711000000E+005,  0.15586879604E+007,  0.16500000000E+002,  0.00000000000E+000,  0.10000000000E+001
  0.95721000000E+005,  0.15693225141E+007,  0.16500000000E+002,  0.00000000000E+000,  0.10000000000E+001
  0.95731000000E+005,  0.15796444766E+007,  0.16500000000E+002,  0.00000000000E+000,  0.10000000000E+001
  0.95741000000E+005,  0.15896629964E+007,  0.16500000000E+002,  0.00000000000E+000,  0.10000000000E+001
  0.95751000000E+005,  0.15993867631E+007,  0.16500000000E+002,  0.00000000000E+000,  0.10000000000E+001
  0.95761000000E+005,  0.16088241961E+007,  0.16500000000E+002,  0.00000000000E+000,  0.10000000000E+001
  0.95771000000E+005,  0.16179835812E+007,  0.16500000000E+002,  0.00000000000E+000,  0.10000000000E+001
  0.95781000000E+005,  0.16268730082E+007,  0.16500000000E+002,  0.00000000000E+000,  0.10000000000E+001
  0.95791000000E+005,  0.16355002337E+007,  0.16500000000E+002,  0.00000000000E+000,  0.10000000000E+001
  0.95801000000E+005,  0.16438729421E+007,  0.16500000000E+002,  0.00000000000E+000,  0.10000000000E+001
  0.95811000000E+005,  0.16519986548E+007,  0.16500000000E+002,  0.00000000000E+000,  0.10000000000E+001
  0.95821000000E+005,  0.16598846449E+007,  0.16500000000E+002,  0.00000000000E+000,  0.10000000000E+001
  0.95831000000E+005,  0.16675380596E+007,  0.16500000000E+002,  0.00000000000E+000,  0.10000000000E+001
  0.95841000000E+005,  0.16749658548E+007,  0.16500000000E+002,  0.00000000000E+000,  0.10000000000E+001
  0.95851000000E+005,  0.16821747884E+007,  0.16500000000E+002,  0.00000000000E+000,  0.10000000000E+001
  0.95861000000E+005,  0.16891715904E+007,  0.16500000000E+002,  0.00000000000E+000,  0.10000000000E+001
  0.95871000000E+005,  0.16959627602E+007,  0.16500000000E+002,  0.00000000000E+000,  0.10000000000E+001
  0.95881000000E+005,  0.17025546517E+007,  0.16500000000E+002,  0.00000000000E+000,  0.10000000000E+001
  0.95891000000E+005,  0.17089535393E+007,  0.16500000000E+002,  0.00000000000E+000,  0.10000000000E+001
  0.95901000000E+005,  0.17151654322E+007,  0.16500000000E+002,  0.00000000000E+000,  0.10000000000E+001
  0.95911000000E+005,  0.17211963360E+007,  0.16500000000E+002,  0.00000000000E+000,  0.10000000000E+001
  0.95921000000E+005,  0.17270520320E+007,  0.16500000000E+002,  0.00000000000E+000,  0.10000000000E+001
  0.95931000000E+005,  0.17327382084E+007,  0.16500000000E+002,  0.00000000000E+000,  0.10000000000E+001
  0.95941000000E+005,  0.17382604527E+007,  0.16500000000E+002,  0.00000000000E+000,  0.10000000000E+001
  0.95951000000E+005,  0.17436241907E+007,  0.16500000000E+002,  0.00000000000E+000,  0.10000000000E+001
  0.95961000000E+005,  0.17488346712E+007,  0.16500000000E+002,  0.00000000000E+000,  0.10000000000E+001
  0.95971000000E+005,  0.17538971206E+007,  0.16500000000E+002,  0.00000000000E+000,  0.10000000000E+001
  0.95981000000E+005,  0.17588164512E+007,  0.16500000000E+002,  0.00000000000E+000,  0.10000000000E+001
  0.95991000000E+005,  0.17635976801E+007,  0.16500000000E+002,  0.00000000000E+000,  0.10000000000E+001
  0.96001000000E+005,  0.17682456310E+007,  0.16500000000E+002,  0.00000000000E+000,  0.10000000000E+001
  0.96011000000E+005,  0.17727649835E+007,  0.16500000000E+002,  0.00000000000E+000,  0.10000000000E+001
  0.96021000000E+005,  0.17771602093E+007,  0.16500000000E+002,  0.00000000000E+000,  0.10000000000E+001
  0.96031000000E+005,  0.17814357422E+007,  0.16500000000E+002,  0.00000000000E+000,  0.10000000000E+001
  0.96041000000E+005,  0.17855960366E+007,  0.16500000000E+002,  0.00000000000E+000,  0.10000000000E+001
  0.96051000000E+005,  0.17896452160E+007,  0.16500000000E+002,  0.00000000000E+000,  0.10000000000E+001
  0.96061000000E+005,  0.17935873670E+007,  0.16500000000E+002,  0.00000000000E+000,  0.10000000000E+001
  0.96071000000E+005,  0.17974264375E+007,  0.16500000000E+002,  0.00000000000E+000,  0.10000000000E+001
  0.96081000000E+005,  0.18011663215E+007,  0.16500000000E+002,  0.00000000000E+000,  0.10000000000E+001
  0.96091000000E+005,  0.18048107735E+007,  0.16500000000E+002,  0.00000000000E+000,  0.10000000000E+001
  0.96101000000E+005,  0.18083634715E+007,  0.16500000000E+002,  0.00000000000E+000,  0.10000000000E+001
  0.96111000000E+005,  0.18118278848E+007,  0.16500000000E+002,  0.00000000000E+000,  0.10000000000E+001
  0.96121000000E+005,  0.18152074775E+007,  0.16500000000E+002,  0.00000000000E+000,  0.10000000000E+001
  0.96131000000E+005,  0.18185055438E+007,  0.16500000000E+002,  0.00000000000E+000,  0.10000000000E+001
  0.96141000000E+005,  0.18217253599E+007,  0.16500000000E+002,  0.00000000000E+000,  0.10000000000E+001
  0.96151000000E+005,  0.18248700286E+007,  0.16500000000E+002,  0.00000000000E+000,  0.10000000000E+001
  0.96161000000E+005,  0.18279426065E+007,  0.16500000000E+002,  0.00000000000E+000,  0.10000000000E+001
  0.96171000000E+005,  0.18309459580E+007,  0.16500000000E+002,  0.00000000000E+000,  0.10000000000E+001
  0.96181000000E+005,  0.18338829156E+007,  0.16500000000E+002,  0.00000000000E+000,  0.10000000000E+001
  0.96191000000E+005,  0.18367562121E+007,  0.16500000000E+002,  0.00000000000E+000,  0.10000000000E+001
  0.96201000000E+005,  0.18395685360E+007,  0.16500000000E+002,  0.00000000000E+000,  0.10000000000E+001
  0.96211000000E+005,  0.18423224278E+007,  0.16500000000E+002,  0.00000000000E+000,  0.10000000000E+001
  0.96221000000E+005,  0.18450202534E+007,  0.16500000000E+002,  0.00000000000E+000,  0.10000000000E+001
  0.96231000000E+005,  0.18476644685E+007,  0.16500000000E+002,  0.00000000000E+000,  0.10000000000E+001
  0.96241000000E+005,  0.18502573495E+007,  0.16500000000E+002,  0.00000000000E+000,  0.10000000000E+001
  0.96251000000E+005,  0.18528010899E+007,  0.16500000000E+002,  0.00000000000E+000,  0.10000000000E+001
  0.96261000000E+005,  0.18552977557E+007,  0.16500000000E+002,  0.00000000000E+000,  0.10000000000E+001
  0.96271000000E+005,  0.18577493584E+007,  0.16500000000E+002,  0.00000000000E+000,  0.10000000000E+001
  0.96281000000E+005,  0.18601578884E+007,  0.16500000000E+002,  0.00000000000E+000,  0.10000000000E+001
  0.96291000000E+005,  0.18625251957E+007,  0.16500000000E+002,  0.00000000000E+000,  0.10000000000E+001
  0.96301000000E+005,  0.18648531097E+007,  0.16500000000E+002,  0.00000000000E+000,  0.10000000000E+001
  0.96311000000E+005,  0.18671432614E+007,  0.16500000000E+002,  0.00000000000E+000,  0.10000000000E+001
  0.96321000000E+005,  0.18693973298E+007,  0.16500000000E+002,  0.00000000000E+000,  0.10000000000E+001
  0.96331000000E+005,  0.18716169590E+007,  0.16500000000E+002,  0.00000000000E+000,  0.10000000000E+001
  0.96341000000E+005,  0.18738035779E+007,  0.16500000000E+002,  0.00000000000E+000,  0.10000000000E+001
  0.96351000000E+005,  0.18759586524E+007,  0.16500000000E+002,  0.00000000000E+000,  0.10000000000E+001
  0.96361000000E+005,  0.18780835532E+007,  0.16500000000E+002,  0.00000000000E+000,  0.10000000000E+001
  0.96371000000E+005,  0.18801795161E+007,  0.16500000000E+002,  0.00000000000E+000,  0.10000000000E+001
  0.96381000000E+005,  0.18822478338E+007,  0.16500000000E+002,  0.00000000000E+000,  0.10000000000E+001
  0.96391000000E+005,  0.18842897061E+007,  0.16500000000E+002,  0.00000000000E+000,  0.10000000000E+001
  0.96401000000E+005,  0.18863061997E+007,  0.16500000000E+002,  0.00000000000E+000,  0.10000000000E+001
  0.96411000000E+005,  0.18882984036E+007,  0.16500000000E+002,  0.00000000000E+000,  0.10000000000E+001
  0.96421000000E+005,  0.18902673109E+007,  0.16500000000E+002,  0.00000000000E+000,  0.10000000000E+001
  0.96431000000E+005,  0.18922138585E+007,  0.16500000000E+002,  0.00000000000E+000,  0.10000000000E+001
  0.96441000000E+005,  0.18941389660E+007,  0.16500000000E+002,  0.00000000000E+000,  0.10000000000E+001
  0.96451000000E+005,  0.18960434832E+007,  0.16500000000E+002,  0.00000000000E+000,  0.10000000000E+001
  0.96461000000E+005,  0.18979281441E+007,  0.16500000000E+002,  0.00000000000E+000,  0.10000000000E+001
  0.96471000000E+005,  0.18997937460E+007,  0.16500000000E+002,  0.00000000000E+000,  0.10000000000E+001
  0.96481000000E+005,  0.19016409771E+007,  0.16500000000E+002,  0.00000000000E+000,  0.10000000000E+001
  0.96491000000E+005,  0.19034704976E+007,  0.16500000000E+002,  0.00000000000E+000,  0.10000000000E+001
  0.96501000000E+005,  0.19052829553E+007,  0.16500000000E+002,  0.00000000000E+000,  0.10000000000E+001
  0.96511000000E+005,  0.19070789108E+007,  0.16500000000E+002,  0.00000000000E+000,  0.10000000000E+001
  0.96521000000E+005,  0.19088589036E+007,  0.16500000000E+002,  0.00000000000E+000,  0.10000000000E+001
  0.96531000000E+005,  0.19106234141E+007,  0.16500000000E+002,  0.00000000000E+000,  0.10000000000E+001
  0.96541000000E+005,  0.19123728878E+007,  0.16500000000E+002,  0.00000000000E+000,  0.10000000000E+001
  0.96551000000E+005,  0.19141077750E+007,  0.16500000000E+002,  0.00000000000E+000,  0.10000000000E+001
  0.96561000000E+005,  0.19158285320E+007,  0.16500000000E+002,  0.00000000000E+000,  0.10000000000E+001
  0.96571000000E+005,  0.19175354392E+007,  0.16500000000E+002,  0.00000000000E+000,  0.10000000000E+001
  0.96581000000E+005,  0.19192289276E+007,  0.16500000000E+002,  0.00000000000E+000,  0.10000000000E+001
  0.96591000000E+005,  0.19209092689E+007,  0.16500000000E+002,  0.00000000000E+000,  0.10000000000E+001
  0.96601000000E+005,  0.19225767030E+007,  0.16500000000E+002,  0.00000000000E+000,  0.10000000000E+001
  0.96611000000E+005,  0.19242315348E+007,  0.16500000000E+002,  0.00000000000E+000,  0.10000000000E+001
  0.96621000000E+005,  0.19258740454E+007,  0.16500000000E+002,  0.00000000000E+000,  0.10000000000E+001
  0.96631000000E+005,  0.19275043902E+007,  0.16500000000E+002,  0.00000000000E+000,  0.10000000000E+001
  0.96641000000E+005,  0.19291227423E+007,  0.16500000000E+002,  0.00000000000E+000,  0.10000000000E+001
  0.96651000000E+005,  0.19307293554E+007,  0.16500000000E+002,  0.00000000000E+000,  0.10000000000E+001
  0.96661000000E+005,  0.19323243879E+007,  0.16500000000E+002,  0.00000000000E+000,  0.10000000000E+001
  0.96671000000E+005,  0.19339079071E+007,  0.16500000000E+002,  0.00000000000E+000,  0.10000000000E+001
  0.96681000000E+005,  0.19354800651E+007,  0.16500000000E+002,  0.00000000000E+000,  0.10000000000E+001
