"           TIME(S)","              PRES","              TEMP","             SAT_G","             SAT_L"
  0.94881000000E+005,  0.49640017586E+006,  0.16500000000E+002,  0.00000000000E+000,  0.10000000000E+001
  0.94882100000E+005,  0.52653481740E+006,  0.16500000000E+002,  0.00000000000E+000,  0.10000000000E+001
  0.94883200000E+005,  0.58745292343E+006,  0.16500000000E+002,  0.00000000000E+000,  0.10000000000E+001
  0.94884300000E+005,  0.65181453343E+006,  0.16500000000E+002,  0.00000000000E+000,  0.10000000000E+001
  0.94885000000E+005,  0.69570392073E+006,  0.16500000000E+002,  0.00000000000E+000,  0.10000000000E+001
  0.94886100000E+005,  0.75867648309E+006,  0.16500000000E+002,  0.00000000000E+000,  0.10000000000E+001
  0.94887200000E+005,  0.82407985637E+006,  0.16500000000E+002,  0.00000000000E+000,  0.10000000000E+001
  0.94888300000E+005,  0.88926535060E+006,  0.16500000000E+002,  0.00000000000E+000,  0.10000000000E+001
  0.94889400000E+005,  0.95441758219E+006,  0.16500000000E+002,  0.00000000000E+000,  0.10000000000E+001
  0.94890000000E+005,  0.99392165300E+006,  0.16500000000E+002,  0.00000000000E+000,  0.10000000000E+001
  0.94891100000E+005,  0.10564835833E+007,  0.16500000000E+002,  0.00000000000E+000,  0.10000000000E+001
  0.94892200000E+005,  0.11212732194E+007,  0.16500000000E+002,  0.00000000000E+000,  0.10000000000E+001
  0.94893300000E+005,  0.11862036161E+007,  0.16500000000E+002,  0.00000000000E+000,  0.10000000000E+001
  0.94894400000E+005,  0.12517339478E+007,  0.16500000000E+002,  0.00000000000E+000,  0.10000000000E+001
  0.94895000000E+005,  0.12912152986E+007,  0.16500000000E+002,  0.00000000000E+000,  0.10000000000E+001
  0.94896100000E+005,  0.13534533825E+007,  0.16500000000E+002,  0.00000000000E+000,  0.10000000000E+001
  0.94897200000E+005,  0.14181506538E+007,  0.16500000000E+002,  0.00000000000E+000,  0.10000000000E+001
  0.94898300000E+005,  0.14840246847E+007,  0.16500000000E+002,  0.00000000000E+000,  0.10000000000E+001
  0.94899400000E+005,  0.15486526818E+007,  0.16500000000E+002,  0.00000000000E+000,  0.10000000000E+001
  0.94900000000E+005,  0.15882869387E+007,  0.16500000000E+002,  0.00000000000E+000,  0.10000000000E+001
  0.94901100000E+005,  0.16508567649E+007,  0.16500000000E+002,  0.00000000000E+000,  0.10000000000E+001
  0.94902200000E+005,  0.17152675465E+007,  0.16500000000E+002,  0.00000000000E+000,  0.10000000000E+001
  0.94903300000E+005,  0.17806810959E+007,  0.16500000000E+002,  0.00000000000E+000,  0.10000000000E+001
  0.94904400000E+005,  0.18461428175E+007,  0.16500000000E+002,  0.00000000000E+000,  0.10000000000E+001
  0.94905000000E+005,  0.18849112497E+007,  0.16500000000E+002,  0.00000000000E+000,  0.10000000000E+001
  0.94906100000E+005,  0.19476099865E+007,  0.16500000000E+002,  0.00000000000E+000,  0.10000000000E+001
  0.94907200000E+005,  0.20121968500E+007,  0.16500000000E+002,  0.00000000000E+000,  0.10000000000E+001
  0.94908300000E+005,  0.20775238052E+007,  0.16500000000E+002,  0.00000000000E+000,  0.10000000000E+001
  0.94909400000E+005,  0.21428261831E+007,  0.16500000000E+002,  0.00000000000E+000,  0.10000000000E+001
  0.94910500000E+005,  0.22080498252E+007,  0.16500000000E+002,  0.00000000000E+000,  0.10000000000E+001
  0.94911000000E+005,  0.22420771684E+007,  0.16500000000E+002,  0.00000000000E+000,  0.10000000000E+001
  0.94912100000E+005,  0.23037311994E+007,  0.16500000000E+002,  0.00000000000E+000,  0.10000000000E+001
  0.94913200000E+005,  0.23686568666E+007,  0.16500000000E+002,  0.00000000000E+000,  0.10000000000E+001
  0.94914300000E+005,  0.24338454682E+007,  0.16500000000E+002,  0.00000000000E+000,  0.10000000000E+001
  0.94915400000E+005,  0.24996523999E+007,  0.16500000000E+002,  0.00000000000E+000,  0.10000000000E+001
  0.94916500000E+005,  0.26150187016E+007,  0.16500000000E+002,  0.00000000000E+000,  0.10000000000E+001
  0.94917600000E+005,  0.26950283320E+007,  0.16500000000E+002,  0.00000000000E+000,  0.10000000000E+001
  0.94918700000E+005,  0.27682498913E+007,  0.16500000000E+002,  0.00000000000E+000,  0.10000000000E+001
  0.94919800000E+005,  0.28415061357E+007,  0.16500000000E+002,  0.00000000000E+000,  0.10000000000E+001
  0.94920900000E+005,  0.29122554449E+007,  0.16500000000E+002,  0.00000000000E+000,  0.10000000000E+001
  0.94922000000E+005,  0.29768889190E+007,  0.16500000000E+002,  0.00000000000E+000,  0.10000000000E+001
  0.94923100000E+005,  0.30368780135E+007,  0.16500000000E+002,  0.00000000000E+000,  0.10000000000E+001
  0.94924200000E+005,  0.31220834565E+007,  0.16500000000E+002,  0.00000000000E+000,  0.10000000000E+001
  0.94925300000E+005,  0.32172582967E+007,  0.16500000000E+002,  0.00000000000E+000,  0.10000000000E+001
  0.94926400000E+005,  0.33074268118E+007,  0.16500000000E+002,  0.00000000000E+000,  0.10000000000E+001
  0.94927500000E+005,  0.34239276637E+007,  0.16500000000E+002,  0.00000000000E+000,  0.10000000000E+001
  0.94928600000E+005,  0.35485255400E+007,  0.16500000000E+002,  0.00000000000E+000,  0.10000000000E+001
  0.94929700000E+005,  0.36848963219E+007,  0.16500000000E+002,  0.00000000000E+000,  0.10000000000E+001
  0.94930800000E+005,  0.38599092647E+007,  0.16500000000E+002,  0.00000000000E+000,  0.10000000000E+001
  0.94931900000E+005,  0.40768844720E+007,  0.16500000000E+002,  0.00000000000E+000,  0.10000000000E+001
  0.94933000000E+005,  0.43365264228E+007,  0.16500000000E+002,  0.00000000000E+000,  0.10000000000E+001
  0.94934100000E+005,  0.46201070959E+007,  0.16500000000E+002,  0.00000000000E+000,  0.10000000000E+001
  0.94934100000E+005,  0.46201070959E+007,  0.16500000000E+002,  0.00000000000E+000,  0.10000000000E+001
