"           TIME(S)","              PRES","              TEMP","             SAT_G","             SAT_L"
  0.94881000000E+005,  0.45358991289E+006,  0.16500000000E+002,  0.00000000000E+000,  0.10000000000E+001
  0.94882100000E+005,  0.45358991288E+006,  0.16500000000E+002,  0.00000000000E+000,  0.10000000000E+001
  0.94883200000E+005,  0.45358991287E+006,  0.16500000000E+002,  0.00000000000E+000,  0.10000000000E+001
  0.94884300000E+005,  0.45358991286E+006,  0.16500000000E+002,  0.00000000000E+000,  0.10000000000E+001
  0.94885000000E+005,  0.45358991285E+006,  0.16500000000E+002,  0.00000000000E+000,  0.10000000000E+001
  0.94886100000E+005,  0.45358991284E+006,  0.16500000000E+002,  0.00000000000E+000,  0.10000000000E+001
  0.94887200000E+005,  0.45358991282E+006,  0.16500000000E+002,  0.00000000000E+000,  0.10000000000E+001
  0.94888300000E+005,  0.45358991280E+006,  0.16500000000E+002,  0.00000000000E+000,  0.10000000000E+001
  0.94889400000E+005,  0.45358991278E+006,  0.16500000000E+002,  0.00000000000E+000,  0.10000000000E+001
  0.94890000000E+005,  0.45358991277E+006,  0.16500000000E+002,  0.00000000000E+000,  0.10000000000E+001
  0.94891100000E+005,  0.45358991274E+006,  0.16500000000E+002,  0.00000000000E+000,  0.10000000000E+001
  0.94892200000E+005,  0.45358991272E+006,  0.16500000000E+002,  0.00000000000E+000,  0.10000000000E+001
  0.94893300000E+005,  0.45358991269E+006,  0.16500000000E+002,  0.00000000000E+000,  0.10000000000E+001
  0.94894400000E+005,  0.45358991266E+006,  0.16500000000E+002,  0.00000000000E+000,  0.10000000000E+001
  0.94895000000E+005,  0.45358991264E+006,  0.16500000000E+002,  0.00000000000E+000,  0.10000000000E+001
  0.94896100000E+005,  0.45358991261E+006,  0.16500000000E+002,  0.00000000000E+000,  0.10000000000E+001
  0.94897200000E+005,  0.45358991257E+006,  0.16500000000E+002,  0.00000000000E+000,  0.10000000000E+001
  0.94898300000E+005,  0.45358991254E+006,  0.16500000000E+002,  0.00000000000E+000,  0.10000000000E+001
  0.94899400000E+005,  0.45358991250E+006,  0.16500000000E+002,  0.00000000000E+000,  0.10000000000E+001
  0.94900000000E+005,  0.45358991248E+006,  0.16500000000E+002,  0.00000000000E+000,  0.10000000000E+001
  0.94901100000E+005,  0.45358991244E+006,  0.16500000000E+002,  0.00000000000E+000,  0.10000000000E+001
  0.94902200000E+005,  0.45358991239E+006,  0.16500000000E+002,  0.00000000000E+000,  0.10000000000E+001
  0.94903300000E+005,  0.45358991235E+006,  0.16500000000E+002,  0.00000000000E+000,  0.10000000000E+001
  0.94904400000E+005,  0.45358991230E+006,  0.16500000000E+002,  0.00000000000E+000,  0.10000000000E+001
  0.94905000000E+005,  0.45358991228E+006,  0.16500000000E+002,  0.00000000000E+000,  0.10000000000E+001
  0.94906100000E+005,  0.45358991223E+006,  0.16500000000E+002,  0.00000000000E+000,  0.10000000000E+001
  0.94907200000E+005,  0.45358991218E+006,  0.16500000000E+002,  0.00000000000E+000,  0.10000000000E+001
  0.94908300000E+005,  0.45358991213E+006,  0.16500000000E+002,  0.00000000000E+000,  0.10000000000E+001
  0.94909400000E+005,  0.45358991208E+006,  0.16500000000E+002,  0.00000000000E+000,  0.10000000000E+001
  0.94910500000E+005,  0.45358991203E+006,  0.16500000000E+002,  0.00000000000E+000,  0.10000000000E+001
  0.94911000000E+005,  0.45358991201E+006,  0.16500000000E+002,  0.00000000000E+000,  0.10000000000E+001
  0.94912100000E+005,  0.45358991195E+006,  0.16500000000E+002,  0.00000000000E+000,  0.10000000000E+001
  0.94913200000E+005,  0.45358991190E+006,  0.16500000000E+002,  0.00000000000E+000,  0.10000000000E+001
  0.94914300000E+005,  0.45358991184E+006,  0.16500000000E+002,  0.00000000000E+000,  0.10000000000E+001
  0.94915400000E+005,  0.45358991178E+006,  0.16500000000E+002,  0.00000000000E+000,  0.10000000000E+001
  0.94916500000E+005,  0.45358991173E+006,  0.16500000000E+002,  0.00000000000E+000,  0.10000000000E+001
  0.94917600000E+005,  0.45358991167E+006,  0.16500000000E+002,  0.00000000000E+000,  0.10000000000E+001
  0.94918700000E+005,  0.45358991161E+006,  0.16500000000E+002,  0.00000000000E+000,  0.10000000000E+001
  0.94919800000E+005,  0.45358991155E+006,  0.16500000000E+002,  0.00000000000E+000,  0.10000000000E+001
  0.94920900000E+005,  0.45358991149E+006,  0.16500000000E+002,  0.00000000000E+000,  0.10000000000E+001
  0.94922000000E+005,  0.45358991142E+006,  0.16500000000E+002,  0.00000000000E+000,  0.10000000000E+001
  0.94923100000E+005,  0.45358991136E+006,  0.16500000000E+002,  0.00000000000E+000,  0.10000000000E+001
  0.94924200000E+005,  0.45358991130E+006,  0.16500000000E+002,  0.00000000000E+000,  0.10000000000E+001
  0.94925300000E+005,  0.45358991124E+006,  0.16500000000E+002,  0.00000000000E+000,  0.10000000000E+001
  0.94926400000E+005,  0.45358991117E+006,  0.16500000000E+002,  0.00000000000E+000,  0.10000000000E+001
  0.94927500000E+005,  0.45358991111E+006,  0.16500000000E+002,  0.00000000000E+000,  0.10000000000E+001
  0.94928600000E+005,  0.45358991104E+006,  0.16500000000E+002,  0.00000000000E+000,  0.10000000000E+001
  0.94929700000E+005,  0.45358991098E+006,  0.16500000000E+002,  0.00000000000E+000,  0.10000000000E+001
  0.94930800000E+005,  0.45358991091E+006,  0.16500000000E+002,  0.00000000000E+000,  0.10000000000E+001
  0.94931900000E+005,  0.45358991084E+006,  0.16500000000E+002,  0.00000000000E+000,  0.10000000000E+001
  0.94933000000E+005,  0.45358991077E+006,  0.16500000000E+002,  0.00000000000E+000,  0.10000000000E+001
  0.94934100000E+005,  0.45358991071E+006,  0.16500000000E+002,  0.00000000000E+000,  0.10000000000E+001
  0.94935200000E+005,  0.45358991064E+006,  0.16500000000E+002,  0.00000000000E+000,  0.10000000000E+001
  0.94936300000E+005,  0.45358991057E+006,  0.16500000000E+002,  0.00000000000E+000,  0.10000000000E+001
  0.94937400000E+005,  0.45358991050E+006,  0.16500000000E+002,  0.00000000000E+000,  0.10000000000E+001
  0.94938500000E+005,  0.45358991043E+006,  0.16500000000E+002,  0.00000000000E+000,  0.10000000000E+001
  0.94939600000E+005,  0.45358991036E+006,  0.16500000000E+002,  0.00000000000E+000,  0.10000000000E+001
  0.94940700000E+005,  0.45358991029E+006,  0.16500000000E+002,  0.00000000000E+000,  0.10000000000E+001
  0.94941700000E+005,  0.45358991023E+006,  0.16500000000E+002,  0.00000000000E+000,  0.10000000000E+001
  0.94942900000E+005,  0.45358991015E+006,  0.16500000000E+002,  0.00000000000E+000,  0.10000000000E+001
  0.94944100000E+005,  0.45358991008E+006,  0.16500000000E+002,  0.00000000000E+000,  0.10000000000E+001
  0.94945300000E+005,  0.45358991000E+006,  0.16500000000E+002,  0.00000000000E+000,  0.10000000000E+001
  0.94946500000E+005,  0.45358990992E+006,  0.16500000000E+002,  0.00000000000E+000,  0.10000000000E+001
  0.94947700000E+005,  0.45358990985E+006,  0.16500000000E+002,  0.00000000000E+000,  0.10000000000E+001
  0.94948900000E+005,  0.45358990977E+006,  0.16500000000E+002,  0.00000000000E+000,  0.10000000000E+001
  0.94950100000E+005,  0.45358990969E+006,  0.16500000000E+002,  0.00000000000E+000,  0.10000000000E+001
  0.94951300000E+005,  0.45358990962E+006,  0.16500000000E+002,  0.00000000000E+000,  0.10000000000E+001
  0.94952500000E+005,  0.45358990954E+006,  0.16500000000E+002,  0.00000000000E+000,  0.10000000000E+001
  0.94953700000E+005,  0.45358990946E+006,  0.16500000000E+002,  0.00000000000E+000,  0.10000000000E+001
  0.94954900000E+005,  0.45358990939E+006,  0.16500000000E+002,  0.00000000000E+000,  0.10000000000E+001
  0.94956100000E+005,  0.45358990931E+006,  0.16500000000E+002,  0.00000000000E+000,  0.10000000000E+001
  0.94957300000E+005,  0.45358990923E+006,  0.16500000000E+002,  0.00000000000E+000,  0.10000000000E+001
  0.94958500000E+005,  0.45358990916E+006,  0.16500000000E+002,  0.00000000000E+000,  0.10000000000E+001
  0.94959700000E+005,  0.45358990908E+006,  0.16500000000E+002,  0.00000000000E+000,  0.10000000000E+001
  0.94960900000E+005,  0.45358990900E+006,  0.16500000000E+002,  0.00000000000E+000,  0.10000000000E+001
  0.94962100000E+005,  0.45358990893E+006,  0.16500000000E+002,  0.00000000000E+000,  0.10000000000E+001
  0.94963300000E+005,  0.45358990885E+006,  0.16500000000E+002,  0.00000000000E+000,  0.10000000000E+001
  0.94964500000E+005,  0.45358990878E+006,  0.16500000000E+002,  0.00000000000E+000,  0.10000000000E+001
  0.94965700000E+005,  0.45358990870E+006,  0.16500000000E+002,  0.00000000000E+000,  0.10000000000E+001
  0.94966900000E+005,  0.45358990863E+006,  0.16500000000E+002,  0.00000000000E+000,  0.10000000000E+001
  0.94968100000E+005,  0.45358990855E+006,  0.16500000000E+002,  0.00000000000E+000,  0.10000000000E+001
  0.94969300000E+005,  0.45358990848E+006,  0.16500000000E+002,  0.00000000000E+000,  0.10000000000E+001
  0.94970500000E+005,  0.45358990840E+006,  0.16500000000E+002,  0.00000000000E+000,  0.10000000000E+001
  0.94971700000E+005,  0.45358990833E+006,  0.16500000000E+002,  0.00000000000E+000,  0.10000000000E+001
  0.94972900000E+005,  0.45358990825E+006,  0.16500000000E+002,  0.00000000000E+000,  0.10000000000E+001
  0.94974100000E+005,  0.45358990818E+006,  0.16500000000E+002,  0.00000000000E+000,  0.10000000000E+001
  0.94975300000E+005,  0.45358990810E+006,  0.16500000000E+002,  0.00000000000E+000,  0.10000000000E+001
  0.94976500000E+005,  0.45358990803E+006,  0.16500000000E+002,  0.00000000000E+000,  0.10000000000E+001
  0.94977700000E+005,  0.45358990796E+006,  0.16500000000E+002,  0.00000000000E+000,  0.10000000000E+001
  0.94978900000E+005,  0.45358990788E+006,  0.16500000000E+002,  0.00000000000E+000,  0.10000000000E+001
  0.94980100000E+005,  0.45358990781E+006,  0.16500000000E+002,  0.00000000000E+000,  0.10000000000E+001
  0.94981300000E+005,  0.45358990774E+006,  0.16500000000E+002,  0.00000000000E+000,  0.10000000000E+001
  0.94982500000E+005,  0.45358990767E+006,  0.16500000000E+002,  0.00000000000E+000,  0.10000000000E+001
  0.94983700000E+005,  0.45358990759E+006,  0.16500000000E+002,  0.00000000000E+000,  0.10000000000E+001
  0.94984900000E+005,  0.45358990752E+006,  0.16500000000E+002,  0.00000000000E+000,  0.10000000000E+001
  0.94986100000E+005,  0.45358990745E+006,  0.16500000000E+002,  0.00000000000E+000,  0.10000000000E+001
  0.94987300000E+005,  0.45358990738E+006,  0.16500000000E+002,  0.00000000000E+000,  0.10000000000E+001
  0.94988500000E+005,  0.45358990731E+006,  0.16500000000E+002,  0.00000000000E+000,  0.10000000000E+001
  0.94989700000E+005,  0.45358990724E+006,  0.16500000000E+002,  0.00000000000E+000,  0.10000000000E+001
  0.94990900000E+005,  0.45358990717E+006,  0.16500000000E+002,  0.00000000000E+000,  0.10000000000E+001
  0.94992100000E+005,  0.45358990710E+006,  0.16500000000E+002,  0.00000000000E+000,  0.10000000000E+001
  0.94993300000E+005,  0.45358990703E+006,  0.16500000000E+002,  0.00000000000E+000,  0.10000000000E+001
  0.94994500000E+005,  0.45358990696E+006,  0.16500000000E+002,  0.00000000000E+000,  0.10000000000E+001
  0.94995700000E+005,  0.45358990689E+006,  0.16500000000E+002,  0.00000000000E+000,  0.10000000000E+001
  0.94996900000E+005,  0.45358990682E+006,  0.16500000000E+002,  0.00000000000E+000,  0.10000000000E+001
  0.94998100000E+005,  0.45358990675E+006,  0.16500000000E+002,  0.00000000000E+000,  0.10000000000E+001
  0.94999300000E+005,  0.45358990668E+006,  0.16500000000E+002,  0.00000000000E+000,  0.10000000000E+001
  0.95000500000E+005,  0.45358990661E+006,  0.16500000000E+002,  0.00000000000E+000,  0.10000000000E+001
  0.95001700000E+005,  0.45358990654E+006,  0.16500000000E+002,  0.00000000000E+000,  0.10000000000E+001
  0.95002900000E+005,  0.45358990647E+006,  0.16500000000E+002,  0.00000000000E+000,  0.10000000000E+001
  0.95004100000E+005,  0.45358990641E+006,  0.16500000000E+002,  0.00000000000E+000,  0.10000000000E+001
  0.95005300000E+005,  0.45358990634E+006,  0.16500000000E+002,  0.00000000000E+000,  0.10000000000E+001
  0.95006500000E+005,  0.45358990627E+006,  0.16500000000E+002,  0.00000000000E+000,  0.10000000000E+001
  0.95007700000E+005,  0.45358990621E+006,  0.16500000000E+002,  0.00000000000E+000,  0.10000000000E+001
  0.95008900000E+005,  0.45358990614E+006,  0.16500000000E+002,  0.00000000000E+000,  0.10000000000E+001
  0.95010100000E+005,  0.45358990607E+006,  0.16500000000E+002,  0.00000000000E+000,  0.10000000000E+001
  0.95011300000E+005,  0.45358990601E+006,  0.16500000000E+002,  0.00000000000E+000,  0.10000000000E+001
  0.95012500000E+005,  0.45358990594E+006,  0.16500000000E+002,  0.00000000000E+000,  0.10000000000E+001
  0.95013700000E+005,  0.45358990588E+006,  0.16500000000E+002,  0.00000000000E+000,  0.10000000000E+001
  0.95014900000E+005,  0.45358990581E+006,  0.16500000000E+002,  0.00000000000E+000,  0.10000000000E+001
  0.95016100000E+005,  0.45358990575E+006,  0.16500000000E+002,  0.00000000000E+000,  0.10000000000E+001
  0.95017300000E+005,  0.45358990568E+006,  0.16500000000E+002,  0.00000000000E+000,  0.10000000000E+001
  0.95018500000E+005,  0.45358990562E+006,  0.16500000000E+002,  0.00000000000E+000,  0.10000000000E+001
  0.95019700000E+005,  0.45358990556E+006,  0.16500000000E+002,  0.00000000000E+000,  0.10000000000E+001
  0.95020900000E+005,  0.45358990549E+006,  0.16500000000E+002,  0.00000000000E+000,  0.10000000000E+001
  0.95022100000E+005,  0.45358990543E+006,  0.16500000000E+002,  0.00000000000E+000,  0.10000000000E+001
  0.95023300000E+005,  0.45358990537E+006,  0.16500000000E+002,  0.00000000000E+000,  0.10000000000E+001
  0.95024500000E+005,  0.45358990530E+006,  0.16500000000E+002,  0.00000000000E+000,  0.10000000000E+001
  0.95025700000E+005,  0.45358990524E+006,  0.16500000000E+002,  0.00000000000E+000,  0.10000000000E+001
  0.95026900000E+005,  0.45358990518E+006,  0.16500000000E+002,  0.00000000000E+000,  0.10000000000E+001
  0.95028100000E+005,  0.45358990512E+006,  0.16500000000E+002,  0.00000000000E+000,  0.10000000000E+001
  0.95029300000E+005,  0.45358990505E+006,  0.16500000000E+002,  0.00000000000E+000,  0.10000000000E+001
  0.95030500000E+005,  0.45358990499E+006,  0.16500000000E+002,  0.00000000000E+000,  0.10000000000E+001
  0.95031700000E+005,  0.45358990493E+006,  0.16500000000E+002,  0.00000000000E+000,  0.10000000000E+001
  0.95032900000E+005,  0.45358990487E+006,  0.16500000000E+002,  0.00000000000E+000,  0.10000000000E+001
  0.95034100000E+005,  0.45358990481E+006,  0.16500000000E+002,  0.00000000000E+000,  0.10000000000E+001
  0.95035300000E+005,  0.45358990475E+006,  0.16500000000E+002,  0.00000000000E+000,  0.10000000000E+001
  0.95036500000E+005,  0.45358990469E+006,  0.16500000000E+002,  0.00000000000E+000,  0.10000000000E+001
  0.95037700000E+005,  0.45358990463E+006,  0.16500000000E+002,  0.00000000000E+000,  0.10000000000E+001
  0.95038900000E+005,  0.45358990457E+006,  0.16500000000E+002,  0.00000000000E+000,  0.10000000000E+001
  0.95040100000E+005,  0.45358990451E+006,  0.16500000000E+002,  0.00000000000E+000,  0.10000000000E+001
  0.95041300000E+005,  0.45358990445E+006,  0.16500000000E+002,  0.00000000000E+000,  0.10000000000E+001
  0.95042500000E+005,  0.45358990439E+006,  0.16500000000E+002,  0.00000000000E+000,  0.10000000000E+001
  0.95043700000E+005,  0.45358990433E+006,  0.16500000000E+002,  0.00000000000E+000,  0.10000000000E+001
  0.95044900000E+005,  0.45358990428E+006,  0.16500000000E+002,  0.00000000000E+000,  0.10000000000E+001
  0.95046100000E+005,  0.45358990422E+006,  0.16500000000E+002,  0.00000000000E+000,  0.10000000000E+001
  0.95047300000E+005,  0.45358990416E+006,  0.16500000000E+002,  0.00000000000E+000,  0.10000000000E+001
  0.95048500000E+005,  0.45358990410E+006,  0.16500000000E+002,  0.00000000000E+000,  0.10000000000E+001
  0.95049700000E+005,  0.45358990405E+006,  0.16500000000E+002,  0.00000000000E+000,  0.10000000000E+001
  0.95050900000E+005,  0.45358990399E+006,  0.16500000000E+002,  0.00000000000E+000,  0.10000000000E+001
  0.95052100000E+005,  0.45358990393E+006,  0.16500000000E+002,  0.00000000000E+000,  0.10000000000E+001
  0.95053300000E+005,  0.45358990388E+006,  0.16500000000E+002,  0.00000000000E+000,  0.10000000000E+001
  0.95054500000E+005,  0.45358990382E+006,  0.16500000000E+002,  0.00000000000E+000,  0.10000000000E+001
  0.95055700000E+005,  0.45358990376E+006,  0.16500000000E+002,  0.00000000000E+000,  0.10000000000E+001
  0.95056900000E+005,  0.45358990371E+006,  0.16500000000E+002,  0.00000000000E+000,  0.10000000000E+001
  0.95058100000E+005,  0.45358990365E+006,  0.16500000000E+002,  0.00000000000E+000,  0.10000000000E+001
  0.95059300000E+005,  0.45358990360E+006,  0.16500000000E+002,  0.00000000000E+000,  0.10000000000E+001
  0.95060500000E+005,  0.45358990354E+006,  0.16500000000E+002,  0.00000000000E+000,  0.10000000000E+001
  0.95061700000E+005,  0.45358990349E+006,  0.16500000000E+002,  0.00000000000E+000,  0.10000000000E+001
  0.95062900000E+005,  0.45358990343E+006,  0.16500000000E+002,  0.00000000000E+000,  0.10000000000E+001
  0.95064100000E+005,  0.45358990338E+006,  0.16500000000E+002,  0.00000000000E+000,  0.10000000000E+001
  0.95065300000E+005,  0.45358990332E+006,  0.16500000000E+002,  0.00000000000E+000,  0.10000000000E+001
  0.95066500000E+005,  0.45358990327E+006,  0.16500000000E+002,  0.00000000000E+000,  0.10000000000E+001
  0.95067700000E+005,  0.45358990321E+006,  0.16500000000E+002,  0.00000000000E+000,  0.10000000000E+001
  0.95068900000E+005,  0.45358990316E+006,  0.16500000000E+002,  0.00000000000E+000,  0.10000000000E+001
  0.95070100000E+005,  0.45358990311E+006,  0.16500000000E+002,  0.00000000000E+000,  0.10000000000E+001
  0.95071300000E+005,  0.45358990305E+006,  0.16500000000E+002,  0.00000000000E+000,  0.10000000000E+001
  0.95072500000E+005,  0.45358990300E+006,  0.16500000000E+002,  0.00000000000E+000,  0.10000000000E+001
  0.95073700000E+005,  0.45358990295E+006,  0.16500000000E+002,  0.00000000000E+000,  0.10000000000E+001
  0.95074900000E+005,  0.45358990290E+006,  0.16500000000E+002,  0.00000000000E+000,  0.10000000000E+001
  0.95076100000E+005,  0.45358990284E+006,  0.16500000000E+002,  0.00000000000E+000,  0.10000000000E+001
  0.95077300000E+005,  0.45358990279E+006,  0.16500000000E+002,  0.00000000000E+000,  0.10000000000E+001
  0.95078500000E+005,  0.45358990274E+006,  0.16500000000E+002,  0.00000000000E+000,  0.10000000000E+001
  0.95079700000E+005,  0.45358990269E+006,  0.16500000000E+002,  0.00000000000E+000,  0.10000000000E+001
  0.95080900000E+005,  0.45358990264E+006,  0.16500000000E+002,  0.00000000000E+000,  0.10000000000E+001
  0.95082100000E+005,  0.45358990259E+006,  0.16500000000E+002,  0.00000000000E+000,  0.10000000000E+001
  0.95083300000E+005,  0.45358990253E+006,  0.16500000000E+002,  0.00000000000E+000,  0.10000000000E+001
  0.95084500000E+005,  0.45358990248E+006,  0.16500000000E+002,  0.00000000000E+000,  0.10000000000E+001
  0.95085700000E+005,  0.45358990243E+006,  0.16500000000E+002,  0.00000000000E+000,  0.10000000000E+001
  0.95086900000E+005,  0.45358990238E+006,  0.16500000000E+002,  0.00000000000E+000,  0.10000000000E+001
  0.95088100000E+005,  0.45358990233E+006,  0.16500000000E+002,  0.00000000000E+000,  0.10000000000E+001
  0.95089300000E+005,  0.45358990228E+006,  0.16500000000E+002,  0.00000000000E+000,  0.10000000000E+001
  0.95090500000E+005,  0.45358990223E+006,  0.16500000000E+002,  0.00000000000E+000,  0.10000000000E+001
  0.95091700000E+005,  0.45358990218E+006,  0.16500000000E+002,  0.00000000000E+000,  0.10000000000E+001
  0.95092900000E+005,  0.45358990213E+006,  0.16500000000E+002,  0.00000000000E+000,  0.10000000000E+001
  0.95094100000E+005,  0.45358990208E+006,  0.16500000000E+002,  0.00000000000E+000,  0.10000000000E+001
  0.95095300000E+005,  0.45358990203E+006,  0.16500000000E+002,  0.00000000000E+000,  0.10000000000E+001
  0.95096500000E+005,  0.45358990199E+006,  0.16500000000E+002,  0.00000000000E+000,  0.10000000000E+001
  0.95097700000E+005,  0.45358990194E+006,  0.16500000000E+002,  0.00000000000E+000,  0.10000000000E+001
