"           TIME(S)","              PRES","              TEMP","             SAT_G","             SAT_L"
  0.94881000000E+005,  0.48270279191E+006,  0.16500000000E+002,  0.00000000000E+000,  0.10000000000E+001
  0.94882100000E+005,  0.48270279136E+006,  0.16500000000E+002,  0.00000000000E+000,  0.10000000000E+001
  0.94883200000E+005,  0.48270279086E+006,  0.16500000000E+002,  0.00000000000E+000,  0.10000000000E+001
  0.94884300000E+005,  0.48270279041E+006,  0.16500000000E+002,  0.00000000000E+000,  0.10000000000E+001
  0.94885000000E+005,  0.48270279013E+006,  0.16500000000E+002,  0.00000000000E+000,  0.10000000000E+001
  0.94886100000E+005,  0.48270278973E+006,  0.16500000000E+002,  0.00000000000E+000,  0.10000000000E+001
  0.94887200000E+005,  0.48270278936E+006,  0.16500000000E+002,  0.00000000000E+000,  0.10000000000E+001
  0.94888300000E+005,  0.48270278901E+006,  0.16500000000E+002,  0.00000000000E+000,  0.10000000000E+001
  0.94889400000E+005,  0.48270278869E+006,  0.16500000000E+002,  0.00000000000E+000,  0.10000000000E+001
  0.94890000000E+005,  0.48270278851E+006,  0.16500000000E+002,  0.00000000000E+000,  0.10000000000E+001
  0.94891100000E+005,  0.48270278821E+006,  0.16500000000E+002,  0.00000000000E+000,  0.10000000000E+001
  0.94892200000E+005,  0.48270278792E+006,  0.16500000000E+002,  0.00000000000E+000,  0.10000000000E+001
  0.94893300000E+005,  0.48270278764E+006,  0.16500000000E+002,  0.00000000000E+000,  0.10000000000E+001
  0.94894400000E+005,  0.48270278738E+006,  0.16500000000E+002,  0.00000000000E+000,  0.10000000000E+001
  0.94895000000E+005,  0.48270278724E+006,  0.16500000000E+002,  0.00000000000E+000,  0.10000000000E+001
  0.94896100000E+005,  0.48270278698E+006,  0.16500000000E+002,  0.00000000000E+000,  0.10000000000E+001
  0.94897200000E+005,  0.48270278674E+006,  0.16500000000E+002,  0.00000000000E+000,  0.10000000000E+001
  0.94898300000E+005,  0.48270278650E+006,  0.16500000000E+002,  0.00000000000E+000,  0.10000000000E+001
  0.94899400000E+005,  0.48270278627E+006,  0.16500000000E+002,  0.00000000000E+000,  0.10000000000E+001
  0.94900000000E+005,  0.48270278614E+006,  0.16500000000E+002,  0.00000000000E+000,  0.10000000000E+001
  0.94901100000E+005,  0.48270278592E+006,  0.16500000000E+002,  0.00000000000E+000,  0.10000000000E+001
  0.94902200000E+005,  0.48270278570E+006,  0.16500000000E+002,  0.00000000000E+000,  0.10000000000E+001
  0.94903300000E+005,  0.48270278548E+006,  0.16500000000E+002,  0.00000000000E+000,  0.10000000000E+001
  0.94904400000E+005,  0.48270278527E+006,  0.16500000000E+002,  0.00000000000E+000,  0.10000000000E+001
  0.94905000000E+005,  0.48270278516E+006,  0.16500000000E+002,  0.00000000000E+000,  0.10000000000E+001
  0.94906100000E+005,  0.48270278495E+006,  0.16500000000E+002,  0.00000000000E+000,  0.10000000000E+001
  0.94907200000E+005,  0.48270278475E+006,  0.16500000000E+002,  0.00000000000E+000,  0.10000000000E+001
  0.94908300000E+005,  0.48270278456E+006,  0.16500000000E+002,  0.00000000000E+000,  0.10000000000E+001
  0.94909400000E+005,  0.48270278436E+006,  0.16500000000E+002,  0.00000000000E+000,  0.10000000000E+001
  0.94910500000E+005,  0.48270278417E+006,  0.16500000000E+002,  0.00000000000E+000,  0.10000000000E+001
  0.94911000000E+005,  0.48270278408E+006,  0.16500000000E+002,  0.00000000000E+000,  0.10000000000E+001
  0.94912100000E+005,  0.48270278389E+006,  0.16500000000E+002,  0.00000000000E+000,  0.10000000000E+001
  0.94913200000E+005,  0.48270278371E+006,  0.16500000000E+002,  0.00000000000E+000,  0.10000000000E+001
  0.94914300000E+005,  0.48270278352E+006,  0.16500000000E+002,  0.00000000000E+000,  0.10000000000E+001
  0.94915400000E+005,  0.48270278334E+006,  0.16500000000E+002,  0.00000000000E+000,  0.10000000000E+001
  0.94916500000E+005,  0.48270278316E+006,  0.16500000000E+002,  0.00000000000E+000,  0.10000000000E+001
  0.94917600000E+005,  0.48270278299E+006,  0.16500000000E+002,  0.00000000000E+000,  0.10000000000E+001
  0.94918700000E+005,  0.48270278281E+006,  0.16500000000E+002,  0.00000000000E+000,  0.10000000000E+001
  0.94919800000E+005,  0.48270278264E+006,  0.16500000000E+002,  0.00000000000E+000,  0.10000000000E+001
  0.94920900000E+005,  0.48270278247E+006,  0.16500000000E+002,  0.00000000000E+000,  0.10000000000E+001
  0.94922000000E+005,  0.48270278230E+006,  0.16500000000E+002,  0.00000000000E+000,  0.10000000000E+001
  0.94923100000E+005,  0.48270278213E+006,  0.16500000000E+002,  0.00000000000E+000,  0.10000000000E+001
  0.94924200000E+005,  0.48270278197E+006,  0.16500000000E+002,  0.00000000000E+000,  0.10000000000E+001
  0.94925300000E+005,  0.48270278180E+006,  0.16500000000E+002,  0.00000000000E+000,  0.10000000000E+001
  0.94926400000E+005,  0.48270278164E+006,  0.16500000000E+002,  0.00000000000E+000,  0.10000000000E+001
  0.94927500000E+005,  0.48270278148E+006,  0.16500000000E+002,  0.00000000000E+000,  0.10000000000E+001
  0.94928600000E+005,  0.48270278132E+006,  0.16500000000E+002,  0.00000000000E+000,  0.10000000000E+001
