"           TIME(S)","              PRES","              TEMP","             SAT_G","             SAT_L"
  0.94881000000E+005,  0.49927755071E+006,  0.16500000000E+002,  0.00000000000E+000,  0.10000000000E+001
  0.94882100000E+005,  0.53170377252E+006,  0.16500000000E+002,  0.00000000000E+000,  0.10000000000E+001
  0.94883200000E+005,  0.59775727488E+006,  0.16500000000E+002,  0.00000000000E+000,  0.10000000000E+001
  0.94884300000E+005,  0.66380487808E+006,  0.16500000000E+002,  0.00000000000E+000,  0.10000000000E+001
  0.94885000000E+005,  0.70583266494E+006,  0.16500000000E+002,  0.00000000000E+000,  0.10000000000E+001
  0.94886100000E+005,  0.77187036642E+006,  0.16500000000E+002,  0.00000000000E+000,  0.10000000000E+001
  0.94887200000E+005,  0.83790204948E+006,  0.16500000000E+002,  0.00000000000E+000,  0.10000000000E+001
  0.94888300000E+005,  0.90392863970E+006,  0.16500000000E+002,  0.00000000000E+000,  0.10000000000E+001
  0.94889400000E+005,  0.96994801995E+006,  0.16500000000E+002,  0.00000000000E+000,  0.10000000000E+001
  0.94890000000E+005,  0.10059578362E+007,  0.16500000000E+002,  0.00000000000E+000,  0.10000000000E+001
  0.94891100000E+005,  0.10719688289E+007,  0.16500000000E+002,  0.00000000000E+000,  0.10000000000E+001
  0.94892200000E+005,  0.11379722824E+007,  0.16500000000E+002,  0.00000000000E+000,  0.10000000000E+001
  0.94893300000E+005,  0.12039694304E+007,  0.16500000000E+002,  0.00000000000E+000,  0.10000000000E+001
  0.94894400000E+005,  0.12699600268E+007,  0.16500000000E+002,  0.00000000000E+000,  0.10000000000E+001
  0.94895000000E+005,  0.13059522884E+007,  0.16500000000E+002,  0.00000000000E+000,  0.10000000000E+001
  0.94896100000E+005,  0.13719357072E+007,  0.16500000000E+002,  0.00000000000E+000,  0.10000000000E+001
  0.94897200000E+005,  0.14379096853E+007,  0.16500000000E+002,  0.00000000000E+000,  0.10000000000E+001
  0.94898300000E+005,  0.15038771006E+007,  0.16500000000E+002,  0.00000000000E+000,  0.10000000000E+001
  0.94899400000E+005,  0.15698393459E+007,  0.16500000000E+002,  0.00000000000E+000,  0.10000000000E+001
  0.94900000000E+005,  0.16058164120E+007,  0.16500000000E+002,  0.00000000000E+000,  0.10000000000E+001
  0.94901100000E+005,  0.16717691825E+007,  0.16500000000E+002,  0.00000000000E+000,  0.10000000000E+001
  0.94902200000E+005,  0.17377123383E+007,  0.16500000000E+002,  0.00000000000E+000,  0.10000000000E+001
  0.94903300000E+005,  0.18036486797E+007,  0.16500000000E+002,  0.00000000000E+000,  0.10000000000E+001
  0.94904400000E+005,  0.18695784128E+007,  0.16500000000E+002,  0.00000000000E+000,  0.10000000000E+001
  0.94905000000E+005,  0.19055369130E+007,  0.16500000000E+002,  0.00000000000E+000,  0.10000000000E+001
  0.94906100000E+005,  0.19714561945E+007,  0.16500000000E+002,  0.00000000000E+000,  0.10000000000E+001
  0.94907200000E+005,  0.20373671194E+007,  0.16500000000E+002,  0.00000000000E+000,  0.10000000000E+001
  0.94908300000E+005,  0.21032708991E+007,  0.16500000000E+002,  0.00000000000E+000,  0.10000000000E+001
  0.94909400000E+005,  0.21691697286E+007,  0.16500000000E+002,  0.00000000000E+000,  0.10000000000E+001
  0.94910500000E+005,  0.22350582800E+007,  0.16500000000E+002,  0.00000000000E+000,  0.10000000000E+001
  0.94911000000E+005,  0.22650055290E+007,  0.16500000000E+002,  0.00000000000E+000,  0.10000000000E+001
  0.94912100000E+005,  0.23308828108E+007,  0.16500000000E+002,  0.00000000000E+000,  0.10000000000E+001
  0.94913200000E+005,  0.23970295512E+007,  0.16500000000E+002,  0.00000000000E+000,  0.10000000000E+001
  0.94914300000E+005,  0.24630955580E+007,  0.16500000000E+002,  0.00000000000E+000,  0.10000000000E+001
  0.94915400000E+005,  0.25295010543E+007,  0.16500000000E+002,  0.00000000000E+000,  0.10000000000E+001
  0.94916500000E+005,  0.26523967377E+007,  0.16500000000E+002,  0.00000000000E+000,  0.10000000000E+001
  0.94917600000E+005,  0.27290406261E+007,  0.16500000000E+002,  0.00000000000E+000,  0.10000000000E+001
  0.94918700000E+005,  0.28024519310E+007,  0.16500000000E+002,  0.00000000000E+000,  0.10000000000E+001
  0.94919800000E+005,  0.28758525970E+007,  0.16500000000E+002,  0.00000000000E+000,  0.10000000000E+001
  0.94920900000E+005,  0.29470826238E+007,  0.16500000000E+002,  0.00000000000E+000,  0.10000000000E+001
  0.94922000000E+005,  0.30111693335E+007,  0.16500000000E+002,  0.00000000000E+000,  0.10000000000E+001
  0.94923100000E+005,  0.30709573487E+007,  0.16500000000E+002,  0.00000000000E+000,  0.10000000000E+001
  0.94924200000E+005,  0.31605598820E+007,  0.16500000000E+002,  0.00000000000E+000,  0.10000000000E+001
  0.94925300000E+005,  0.32580034647E+007,  0.16500000000E+002,  0.00000000000E+000,  0.10000000000E+001
  0.94926400000E+005,  0.33485243513E+007,  0.16500000000E+002,  0.00000000000E+000,  0.10000000000E+001
  0.94927500000E+005,  0.34698352136E+007,  0.16500000000E+002,  0.00000000000E+000,  0.10000000000E+001
  0.94928600000E+005,  0.35968785605E+007,  0.16500000000E+002,  0.00000000000E+000,  0.10000000000E+001
  0.94929700000E+005,  0.37364271852E+007,  0.16500000000E+002,  0.00000000000E+000,  0.10000000000E+001
  0.94930800000E+005,  0.39186095053E+007,  0.16500000000E+002,  0.00000000000E+000,  0.10000000000E+001
  0.94931900000E+005,  0.41432626973E+007,  0.16500000000E+002,  0.00000000000E+000,  0.10000000000E+001
  0.94933000000E+005,  0.44117602429E+007,  0.16500000000E+002,  0.00000000000E+000,  0.10000000000E+001
  0.94934100000E+005,  0.47019654434E+007,  0.16500000000E+002,  0.00000000000E+000,  0.10000000000E+001
  0.94935200000E+005,  0.49920744114E+007,  0.16500000000E+002,  0.00000000000E+000,  0.10000000000E+001
  0.94936300000E+005,  0.52821094892E+007,  0.16500000000E+002,  0.00000000000E+000,  0.10000000000E+001
  0.94937400000E+005,  0.55720137839E+007,  0.16500000000E+002,  0.00000000000E+000,  0.10000000000E+001
  0.94938500000E+005,  0.58618118457E+007,  0.16500000000E+002,  0.00000000000E+000,  0.10000000000E+001
  0.94939600000E+005,  0.61515012632E+007,  0.16500000000E+002,  0.00000000000E+000,  0.10000000000E+001
  0.94940700000E+005,  0.64410785696E+007,  0.16500000000E+002,  0.00000000000E+000,  0.10000000000E+001
  0.94941700000E+005,  0.67042300101E+007,  0.16500000000E+002,  0.00000000000E+000,  0.10000000000E+001
  0.94942900000E+005,  0.70198773291E+007,  0.16500000000E+002,  0.00000000000E+000,  0.10000000000E+001
  0.94944100000E+005,  0.73353845303E+007,  0.16500000000E+002,  0.00000000000E+000,  0.10000000000E+001
  0.94945300000E+005,  0.76507394120E+007,  0.16500000000E+002,  0.00000000000E+000,  0.10000000000E+001
  0.94946500000E+005,  0.80221750178E+007,  0.16500000000E+002,  0.00000000000E+000,  0.10000000000E+001
  0.94947700000E+005,  0.84090662140E+007,  0.16500000000E+002,  0.00000000000E+000,  0.10000000000E+001
  0.94948900000E+005,  0.87888653581E+007,  0.16500000000E+002,  0.00000000000E+000,  0.10000000000E+001
  0.94950100000E+005,  0.91507735132E+007,  0.16500000000E+002,  0.00000000000E+000,  0.10000000000E+001
  0.94951300000E+005,  0.95124250870E+007,  0.16500000000E+002,  0.00000000000E+000,  0.10000000000E+001
  0.94952500000E+005,  0.98760636706E+007,  0.16500000000E+002,  0.00000000000E+000,  0.10000000000E+001
  0.94953700000E+005,  0.10239568589E+008,  0.16500000000E+002,  0.00000000000E+000,  0.10000000000E+001
  0.94954900000E+005,  0.10600023022E+008,  0.16500000000E+002,  0.00000000000E+000,  0.10000000000E+001
  0.94956100000E+005,  0.10948383446E+008,  0.16500000000E+002,  0.00000000000E+000,  0.10000000000E+001
  0.94957300000E+005,  0.11296416609E+008,  0.16500000000E+002,  0.00000000000E+000,  0.10000000000E+001
  0.94958500000E+005,  0.11644104113E+008,  0.16500000000E+002,  0.00000000000E+000,  0.10000000000E+001
  0.94959700000E+005,  0.11991416803E+008,  0.16500000000E+002,  0.00000000000E+000,  0.10000000000E+001
  0.94960900000E+005,  0.12338325114E+008,  0.16500000000E+002,  0.00000000000E+000,  0.10000000000E+001
  0.94962100000E+005,  0.12684800796E+008,  0.16500000000E+002,  0.00000000000E+000,  0.10000000000E+001
  0.94963300000E+005,  0.13030809605E+008,  0.16500000000E+002,  0.00000000000E+000,  0.10000000000E+001
  0.94964500000E+005,  0.13376301924E+008,  0.16500000000E+002,  0.00000000000E+000,  0.10000000000E+001
  0.94965700000E+005,  0.13721206222E+008,  0.16500000000E+002,  0.00000000000E+000,  0.10000000000E+001
  0.94966900000E+005,  0.14065478607E+008,  0.16500000000E+002,  0.00000000000E+000,  0.10000000000E+001
  0.94968100000E+005,  0.14409003818E+008,  0.16500000000E+002,  0.00000000000E+000,  0.10000000000E+001
  0.94969300000E+005,  0.14751717167E+008,  0.16500000000E+002,  0.00000000000E+000,  0.10000000000E+001
  0.94970500000E+005,  0.15093458167E+008,  0.16500000000E+002,  0.00000000000E+000,  0.10000000000E+001
  0.94971700000E+005,  0.15434044115E+008,  0.16500000000E+002,  0.00000000000E+000,  0.10000000000E+001
  0.94972900000E+005,  0.15773319112E+008,  0.16500000000E+002,  0.00000000000E+000,  0.10000000000E+001
  0.94974100000E+005,  0.16111300382E+008,  0.16500000000E+002,  0.00000000000E+000,  0.10000000000E+001
  0.94975300000E+005,  0.16447367097E+008,  0.16500000000E+002,  0.00000000000E+000,  0.10000000000E+001
  0.94976500000E+005,  0.16781422938E+008,  0.16500000000E+002,  0.00000000000E+000,  0.10000000000E+001
  0.94977700000E+005,  0.17113048085E+008,  0.16500000000E+002,  0.00000000000E+000,  0.10000000000E+001
  0.94978900000E+005,  0.17441651536E+008,  0.16500000000E+002,  0.00000000000E+000,  0.10000000000E+001
  0.94980100000E+005,  0.17766340088E+008,  0.16500000000E+002,  0.00000000000E+000,  0.10000000000E+001
  0.94981300000E+005,  0.18085711513E+008,  0.16500000000E+002,  0.00000000000E+000,  0.10000000000E+001
  0.94982500000E+005,  0.18398019970E+008,  0.16500000000E+002,  0.00000000000E+000,  0.10000000000E+001
  0.94983700000E+005,  0.18700489868E+008,  0.16500000000E+002,  0.00000000000E+000,  0.10000000000E+001
  0.94984900000E+005,  0.18988156236E+008,  0.16500000000E+002,  0.00000000000E+000,  0.10000000000E+001
  0.94986100000E+005,  0.19251705996E+008,  0.16500000000E+002,  0.00000000000E+000,  0.10000000000E+001
  0.94987300000E+005,  0.19469934529E+008,  0.16500000000E+002,  0.00000000000E+000,  0.10000000000E+001
  0.94988500000E+005,  0.19603001069E+008,  0.16500000000E+002,  0.00000000000E+000,  0.10000000000E+001
  0.94989700000E+005,  0.19650180809E+008,  0.16500000000E+002,  0.00000000000E+000,  0.10000000000E+001
  0.94990900000E+005,  0.19707172602E+008,  0.16500000000E+002,  0.00000000000E+000,  0.10000000000E+001
  0.94992100000E+005,  0.19567780781E+008,  0.16500000000E+002,  0.00000000000E+000,  0.10000000000E+001
  0.94993300000E+005,  0.19383188133E+008,  0.16500000000E+002,  0.00000000000E+000,  0.10000000000E+001
  0.94994500000E+005,  0.18975825281E+008,  0.16500000000E+002,  0.00000000000E+000,  0.10000000000E+001
  0.94995700000E+005,  0.18448439363E+008,  0.16500000000E+002,  0.00000000000E+000,  0.10000000000E+001
  0.94996900000E+005,  0.17871072009E+008,  0.16500000000E+002,  0.00000000000E+000,  0.10000000000E+001
  0.94998100000E+005,  0.17234301727E+008,  0.16500000000E+002,  0.00000000000E+000,  0.10000000000E+001
  0.94999300000E+005,  0.16088896243E+008,  0.16500000000E+002,  0.00000000000E+000,  0.10000000000E+001
  0.95000500000E+005,  0.15435799244E+008,  0.16500000000E+002,  0.00000000000E+000,  0.10000000000E+001
  0.95001700000E+005,  0.14965623134E+008,  0.16500000000E+002,  0.00000000000E+000,  0.10000000000E+001
  0.95002900000E+005,  0.14620567154E+008,  0.16500000000E+002,  0.00000000000E+000,  0.10000000000E+001
  0.95004100000E+005,  0.14444829459E+008,  0.16500000000E+002,  0.00000000000E+000,  0.10000000000E+001
  0.95005300000E+005,  0.14341823480E+008,  0.16500000000E+002,  0.00000000000E+000,  0.10000000000E+001
  0.95006500000E+005,  0.14253513212E+008,  0.16500000000E+002,  0.00000000000E+000,  0.10000000000E+001
  0.95007700000E+005,  0.14164069331E+008,  0.16500000000E+002,  0.00000000000E+000,  0.10000000000E+001
  0.95008900000E+005,  0.14064597411E+008,  0.16500000000E+002,  0.00000000000E+000,  0.10000000000E+001
  0.95010100000E+005,  0.13974970814E+008,  0.16500000000E+002,  0.00000000000E+000,  0.10000000000E+001
  0.95011300000E+005,  0.13883540620E+008,  0.16500000000E+002,  0.00000000000E+000,  0.10000000000E+001
  0.95012500000E+005,  0.13793716218E+008,  0.16500000000E+002,  0.00000000000E+000,  0.10000000000E+001
  0.95013700000E+005,  0.13715083015E+008,  0.16500000000E+002,  0.00000000000E+000,  0.10000000000E+001
  0.95014900000E+005,  0.13648876170E+008,  0.16500000000E+002,  0.00000000000E+000,  0.10000000000E+001
  0.95016100000E+005,  0.13584974890E+008,  0.16500000000E+002,  0.00000000000E+000,  0.10000000000E+001
  0.95017300000E+005,  0.13546372220E+008,  0.16500000000E+002,  0.00000000000E+000,  0.10000000000E+001
  0.95018500000E+005,  0.13518417567E+008,  0.16500000000E+002,  0.00000000000E+000,  0.10000000000E+001
  0.95019700000E+005,  0.13493700249E+008,  0.16500000000E+002,  0.00000000000E+000,  0.10000000000E+001
  0.95020900000E+005,  0.13486461212E+008,  0.16500000000E+002,  0.00000000000E+000,  0.10000000000E+001
  0.95022100000E+005,  0.13484184639E+008,  0.16500000000E+002,  0.00000000000E+000,  0.10000000000E+001
  0.95023300000E+005,  0.13475033242E+008,  0.16500000000E+002,  0.00000000000E+000,  0.10000000000E+001
  0.95024500000E+005,  0.13445620045E+008,  0.16500000000E+002,  0.00000000000E+000,  0.10000000000E+001
  0.95025700000E+005,  0.13394317925E+008,  0.16500000000E+002,  0.00000000000E+000,  0.10000000000E+001
  0.95026900000E+005,  0.13329268638E+008,  0.16500000000E+002,  0.00000000000E+000,  0.10000000000E+001
  0.95028100000E+005,  0.13284356800E+008,  0.16500000000E+002,  0.00000000000E+000,  0.10000000000E+001
  0.95029300000E+005,  0.13303063149E+008,  0.16500000000E+002,  0.00000000000E+000,  0.10000000000E+001
  0.95030500000E+005,  0.13343605791E+008,  0.16500000000E+002,  0.00000000000E+000,  0.10000000000E+001
  0.95031700000E+005,  0.13379836263E+008,  0.16500000000E+002,  0.00000000000E+000,  0.10000000000E+001
  0.95032900000E+005,  0.13406251095E+008,  0.16500000000E+002,  0.00000000000E+000,  0.10000000000E+001
  0.95034100000E+005,  0.13421485878E+008,  0.16500000000E+002,  0.00000000000E+000,  0.10000000000E+001
  0.95035300000E+005,  0.13425583581E+008,  0.16500000000E+002,  0.00000000000E+000,  0.10000000000E+001
  0.95036500000E+005,  0.13419515510E+008,  0.16500000000E+002,  0.00000000000E+000,  0.10000000000E+001
  0.95037700000E+005,  0.13405431659E+008,  0.16500000000E+002,  0.00000000000E+000,  0.10000000000E+001
  0.95038900000E+005,  0.13378573357E+008,  0.16500000000E+002,  0.00000000000E+000,  0.10000000000E+001
  0.95040100000E+005,  0.13340693152E+008,  0.16500000000E+002,  0.00000000000E+000,  0.10000000000E+001
  0.95041300000E+005,  0.13292106521E+008,  0.16500000000E+002,  0.00000000000E+000,  0.10000000000E+001
  0.95042500000E+005,  0.13238883768E+008,  0.16500000000E+002,  0.00000000000E+000,  0.10000000000E+001
  0.95043700000E+005,  0.13178642796E+008,  0.16500000000E+002,  0.00000000000E+000,  0.10000000000E+001
  0.95044900000E+005,  0.13117454824E+008,  0.16500000000E+002,  0.00000000000E+000,  0.10000000000E+001
  0.95046100000E+005,  0.13056629635E+008,  0.16500000000E+002,  0.00000000000E+000,  0.10000000000E+001
  0.95047300000E+005,  0.12998455051E+008,  0.16500000000E+002,  0.00000000000E+000,  0.10000000000E+001
  0.95048500000E+005,  0.12947229206E+008,  0.16500000000E+002,  0.00000000000E+000,  0.10000000000E+001
  0.95049700000E+005,  0.12900799952E+008,  0.16500000000E+002,  0.00000000000E+000,  0.10000000000E+001
  0.95050900000E+005,  0.12859125820E+008,  0.16500000000E+002,  0.00000000000E+000,  0.10000000000E+001
  0.95052100000E+005,  0.12819779950E+008,  0.16500000000E+002,  0.00000000000E+000,  0.10000000000E+001
  0.95053300000E+005,  0.12785715419E+008,  0.16500000000E+002,  0.00000000000E+000,  0.10000000000E+001
  0.95054500000E+005,  0.12753049797E+008,  0.16500000000E+002,  0.00000000000E+000,  0.10000000000E+001
  0.95055700000E+005,  0.12723550487E+008,  0.16500000000E+002,  0.00000000000E+000,  0.10000000000E+001
  0.95056900000E+005,  0.12701656457E+008,  0.16500000000E+002,  0.00000000000E+000,  0.10000000000E+001
  0.95058100000E+005,  0.12689723053E+008,  0.16500000000E+002,  0.00000000000E+000,  0.10000000000E+001
  0.95059300000E+005,  0.12680041647E+008,  0.16500000000E+002,  0.00000000000E+000,  0.10000000000E+001
  0.95060500000E+005,  0.12669814516E+008,  0.16500000000E+002,  0.00000000000E+000,  0.10000000000E+001
  0.95061700000E+005,  0.12658469030E+008,  0.16500000000E+002,  0.00000000000E+000,  0.10000000000E+001
