"           TIME(S)","              PRES","              TEMP","             SAT_G","             SAT_L"
  0.94881000000E+005,  0.49931369016E+006,  0.16500000000E+002,  0.00000000000E+000,  0.10000000000E+001
  0.94882000000E+005,  0.60112407602E+006,  0.16500000000E+002,  0.00000000000E+000,  0.10000000000E+001
  0.94883000000E+005,  0.83171189197E+006,  0.16500000000E+002,  0.00000000000E+000,  0.10000000000E+001
  0.94884000000E+005,  0.10604620143E+007,  0.16500000000E+002,  0.00000000000E+000,  0.10000000000E+001
  0.94885000000E+005,  0.12872104815E+007,  0.16500000000E+002,  0.00000000000E+000,  0.10000000000E+001
  0.94886000000E+005,  0.15120050129E+007,  0.16500000000E+002,  0.00000000000E+000,  0.10000000000E+001
  0.94887000000E+005,  0.17347602504E+007,  0.16500000000E+002,  0.00000000000E+000,  0.10000000000E+001
  0.94888000000E+005,  0.19553511023E+007,  0.16500000000E+002,  0.00000000000E+000,  0.10000000000E+001
  0.94889000000E+005,  0.21736347399E+007,  0.16500000000E+002,  0.00000000000E+000,  0.10000000000E+001
  0.94890000000E+005,  0.23894487117E+007,  0.16500000000E+002,  0.00000000000E+000,  0.10000000000E+001
  0.94891000000E+005,  0.26026498231E+007,  0.16500000000E+002,  0.00000000000E+000,  0.10000000000E+001
  0.94892000000E+005,  0.28130738301E+007,  0.16500000000E+002,  0.00000000000E+000,  0.10000000000E+001
  0.94893000000E+005,  0.30205245027E+007,  0.16500000000E+002,  0.00000000000E+000,  0.10000000000E+001
  0.94894000000E+005,  0.32248322705E+007,  0.16500000000E+002,  0.00000000000E+000,  0.10000000000E+001
  0.94895000000E+005,  0.34258942839E+007,  0.16500000000E+002,  0.00000000000E+000,  0.10000000000E+001
  0.94896000000E+005,  0.36236102794E+007,  0.16500000000E+002,  0.00000000000E+000,  0.10000000000E+001
  0.94897000000E+005,  0.38177815249E+007,  0.16500000000E+002,  0.00000000000E+000,  0.10000000000E+001
  0.94898000000E+005,  0.40080945373E+007,  0.16500000000E+002,  0.00000000000E+000,  0.10000000000E+001
  0.94899000000E+005,  0.41941472884E+007,  0.16500000000E+002,  0.00000000000E+000,  0.10000000000E+001
  0.94900000000E+005,  0.43754549567E+007,  0.16500000000E+002,  0.00000000000E+000,  0.10000000000E+001
  0.94901000000E+005,  0.45514820159E+007,  0.16500000000E+002,  0.00000000000E+000,  0.10000000000E+001
  0.94902000000E+005,  0.47216363916E+007,  0.16500000000E+002,  0.00000000000E+000,  0.10000000000E+001
  0.94903000000E+005,  0.48852284814E+007,  0.16500000000E+002,  0.00000000000E+000,  0.10000000000E+001
  0.94904000000E+005,  0.50414873609E+007,  0.16500000000E+002,  0.00000000000E+000,  0.10000000000E+001
  0.94905000000E+005,  0.51896460450E+007,  0.16500000000E+002,  0.00000000000E+000,  0.10000000000E+001
  0.94906000000E+005,  0.53287177837E+007,  0.16500000000E+002,  0.00000000000E+000,  0.10000000000E+001
  0.94907000000E+005,  0.54581819232E+007,  0.16500000000E+002,  0.00000000000E+000,  0.10000000000E+001
  0.94908000000E+005,  0.55790516527E+007,  0.16500000000E+002,  0.00000000000E+000,  0.10000000000E+001
  0.94909000000E+005,  0.56920060763E+007,  0.16500000000E+002,  0.00000000000E+000,  0.10000000000E+001
  0.94910000000E+005,  0.57718852880E+007,  0.16500000000E+002,  0.00000000000E+000,  0.10000000000E+001
  0.94911000000E+005,  0.58608965748E+007,  0.16500000000E+002,  0.00000000000E+000,  0.10000000000E+001
  0.94912000000E+005,  0.59588849357E+007,  0.16500000000E+002,  0.00000000000E+000,  0.10000000000E+001
  0.94913000000E+005,  0.60523666001E+007,  0.16500000000E+002,  0.00000000000E+000,  0.10000000000E+001
  0.94914000000E+005,  0.61335940009E+007,  0.16500000000E+002,  0.00000000000E+000,  0.10000000000E+001
  0.94915000000E+005,  0.62235308135E+007,  0.16500000000E+002,  0.00000000000E+000,  0.10000000000E+001
  0.94916000000E+005,  0.63843564391E+007,  0.16500000000E+002,  0.00000000000E+000,  0.10000000000E+001
  0.94917000000E+005,  0.65683410581E+007,  0.16500000000E+002,  0.00000000000E+000,  0.10000000000E+001
  0.94918000000E+005,  0.66440671074E+007,  0.16500000000E+002,  0.00000000000E+000,  0.10000000000E+001
  0.94919000000E+005,  0.67227923744E+007,  0.16500000000E+002,  0.00000000000E+000,  0.10000000000E+001
  0.94920000000E+005,  0.67935948724E+007,  0.16500000000E+002,  0.00000000000E+000,  0.10000000000E+001
  0.94921000000E+005,  0.68594291536E+007,  0.16500000000E+002,  0.00000000000E+000,  0.10000000000E+001
  0.94922000000E+005,  0.68886543873E+007,  0.16500000000E+002,  0.00000000000E+000,  0.10000000000E+001
  0.94923000000E+005,  0.69029508830E+007,  0.16500000000E+002,  0.00000000000E+000,  0.10000000000E+001
  0.94924000000E+005,  0.69734578164E+007,  0.16500000000E+002,  0.00000000000E+000,  0.10000000000E+001
  0.94925000000E+005,  0.70790562724E+007,  0.16500000000E+002,  0.00000000000E+000,  0.10000000000E+001
  0.94926000000E+005,  0.71324772138E+007,  0.16500000000E+002,  0.00000000000E+000,  0.10000000000E+001
  0.94927000000E+005,  0.72026813423E+007,  0.16500000000E+002,  0.00000000000E+000,  0.10000000000E+001
  0.94928000000E+005,  0.73036418665E+007,  0.16500000000E+002,  0.00000000000E+000,  0.10000000000E+001
  0.94929000000E+005,  0.74038020998E+007,  0.16500000000E+002,  0.00000000000E+000,  0.10000000000E+001
  0.94930000000E+005,  0.75531452188E+007,  0.16500000000E+002,  0.00000000000E+000,  0.10000000000E+001
  0.94931000000E+005,  0.77599974048E+007,  0.16500000000E+002,  0.00000000000E+000,  0.10000000000E+001
  0.94932000000E+005,  0.80014919908E+007,  0.16500000000E+002,  0.00000000000E+000,  0.10000000000E+001
  0.94933000000E+005,  0.82470480121E+007,  0.16500000000E+002,  0.00000000000E+000,  0.10000000000E+001
  0.94934000000E+005,  0.84504919656E+007,  0.16500000000E+002,  0.00000000000E+000,  0.10000000000E+001
  0.94935000000E+005,  0.86131360356E+007,  0.16500000000E+002,  0.00000000000E+000,  0.10000000000E+001
  0.94936000000E+005,  0.87595578116E+007,  0.16500000000E+002,  0.00000000000E+000,  0.10000000000E+001
  0.94937000000E+005,  0.88236059417E+007,  0.16500000000E+002,  0.00000000000E+000,  0.10000000000E+001
  0.94938000000E+005,  0.87794420406E+007,  0.16500000000E+002,  0.00000000000E+000,  0.10000000000E+001
  0.94939000000E+005,  0.85785012240E+007,  0.16500000000E+002,  0.00000000000E+000,  0.10000000000E+001
  0.94940000000E+005,  0.82638870390E+007,  0.16500000000E+002,  0.00000000000E+000,  0.10000000000E+001
  0.94941000000E+005,  0.78937072602E+007,  0.16500000000E+002,  0.00000000000E+000,  0.10000000000E+001
  0.94946000000E+005,  0.79637357027E+007,  0.16500000000E+002,  0.00000000000E+000,  0.10000000000E+001
  0.94958000000E+005,  0.86986432269E+007,  0.16500000000E+002,  0.00000000000E+000,  0.10000000000E+001
  0.94970000000E+005,  0.80048142848E+007,  0.16500000000E+002,  0.00000000000E+000,  0.10000000000E+001
  0.94982000000E+005,  0.79900325601E+007,  0.16500000000E+002,  0.00000000000E+000,  0.10000000000E+001
  0.94994000000E+005,  0.81138774184E+007,  0.16500000000E+002,  0.00000000000E+000,  0.10000000000E+001
  0.95006000000E+005,  0.81915704207E+007,  0.16500000000E+002,  0.00000000000E+000,  0.10000000000E+001
  0.95018000000E+005,  0.80820231610E+007,  0.16500000000E+002,  0.00000000000E+000,  0.10000000000E+001
  0.95030000000E+005,  0.77772799505E+007,  0.16500000000E+002,  0.00000000000E+000,  0.10000000000E+001
  0.95042000000E+005,  0.71891166957E+007,  0.16500000000E+002,  0.00000000000E+000,  0.10000000000E+001
  0.95054000000E+005,  0.67674738289E+007,  0.16500000000E+002,  0.00000000000E+000,  0.10000000000E+001
  0.95066000000E+005,  0.65798329588E+007,  0.16500000000E+002,  0.00000000000E+000,  0.10000000000E+001
  0.95078000000E+005,  0.64706938776E+007,  0.16500000000E+002,  0.00000000000E+000,  0.10000000000E+001
  0.95090000000E+005,  0.64842975882E+007,  0.16500000000E+002,  0.00000000000E+000,  0.10000000000E+001
  0.95102000000E+005,  0.65610038499E+007,  0.16500000000E+002,  0.00000000000E+000,  0.10000000000E+001
  0.95114000000E+005,  0.66311048124E+007,  0.16500000000E+002,  0.00000000000E+000,  0.10000000000E+001
  0.95126000000E+005,  0.66835934774E+007,  0.16500000000E+002,  0.00000000000E+000,  0.10000000000E+001
  0.95138000000E+005,  0.67251646533E+007,  0.16500000000E+002,  0.00000000000E+000,  0.10000000000E+001
  0.95150000000E+005,  0.67606152847E+007,  0.16500000000E+002,  0.00000000000E+000,  0.10000000000E+001
