"           TIME(S)","              PRES","              TEMP","             SAT_G","             SAT_L"
  0.94880100000E+005,  0.49603034576E+006,  0.16500000000E+002,  0.00000000000E+000,  0.10000000000E+001
  0.94880200000E+005,  0.49789140635E+006,  0.16500000000E+002,  0.00000000000E+000,  0.10000000000E+001
  0.94880300000E+005,  0.49804595548E+006,  0.16500000000E+002,  0.00000000000E+000,  0.10000000000E+001
  0.94880400000E+005,  0.49821508452E+006,  0.16500000000E+002,  0.00000000000E+000,  0.10000000000E+001
  0.94880500000E+005,  0.49832302476E+006,  0.16500000000E+002,  0.00000000000E+000,  0.10000000000E+001
  0.94880600000E+005,  0.49826505043E+006,  0.16500000000E+002,  0.00000000000E+000,  0.10000000000E+001
  0.94880700000E+005,  0.49822003615E+006,  0.16500000000E+002,  0.00000000000E+000,  0.10000000000E+001
  0.94880800000E+005,  0.49831876796E+006,  0.16500000000E+002,  0.00000000000E+000,  0.10000000000E+001
  0.94880900000E+005,  0.49837771111E+006,  0.16500000000E+002,  0.00000000000E+000,  0.10000000000E+001
  0.94881000000E+005,  0.49829379471E+006,  0.16500000000E+002,  0.00000000000E+000,  0.10000000000E+001
  0.94881100000E+005,  0.49822717585E+006,  0.16500000000E+002,  0.00000000000E+000,  0.10000000000E+001
  0.94881200000E+005,  0.49829399822E+006,  0.16500000000E+002,  0.00000000000E+000,  0.10000000000E+001
  0.94881300000E+005,  0.49835959576E+006,  0.16500000000E+002,  0.00000000000E+000,  0.10000000000E+001
  0.94881400000E+005,  0.49829384000E+006,  0.16500000000E+002,  0.00000000000E+000,  0.10000000000E+001
  0.94881500000E+005,  0.49821724755E+006,  0.16500000000E+002,  0.00000000000E+000,  0.10000000000E+001
  0.94881600000E+005,  0.50032801744E+006,  0.16500000000E+002,  0.00000000000E+000,  0.10000000000E+001
  0.94881700000E+005,  0.50577635952E+006,  0.16500000000E+002,  0.00000000000E+000,  0.10000000000E+001
  0.94881800000E+005,  0.51146858886E+006,  0.16500000000E+002,  0.00000000000E+000,  0.10000000000E+001
  0.94881900000E+005,  0.51718227123E+006,  0.16500000000E+002,  0.00000000000E+000,  0.10000000000E+001
  0.94882000000E+005,  0.52306571254E+006,  0.16500000000E+002,  0.00000000000E+000,  0.10000000000E+001
  0.94882100000E+005,  0.52899795165E+006,  0.16500000000E+002,  0.00000000000E+000,  0.10000000000E+001
  0.94882200000E+005,  0.53480636399E+006,  0.16500000000E+002,  0.00000000000E+000,  0.10000000000E+001
  0.94882300000E+005,  0.54059407133E+006,  0.16500000000E+002,  0.00000000000E+000,  0.10000000000E+001
  0.94882400000E+005,  0.54647784407E+006,  0.16500000000E+002,  0.00000000000E+000,  0.10000000000E+001
  0.94882500000E+005,  0.55239318070E+006,  0.16500000000E+002,  0.00000000000E+000,  0.10000000000E+001
  0.94882600000E+005,  0.55824539770E+006,  0.16500000000E+002,  0.00000000000E+000,  0.10000000000E+001
  0.94882700000E+005,  0.56405031262E+006,  0.16500000000E+002,  0.00000000000E+000,  0.10000000000E+001
  0.94882800000E+005,  0.56988248812E+006,  0.16500000000E+002,  0.00000000000E+000,  0.10000000000E+001
  0.94882900000E+005,  0.57577377673E+006,  0.16500000000E+002,  0.00000000000E+000,  0.10000000000E+001
  0.94883000000E+005,  0.58164108325E+006,  0.16500000000E+002,  0.00000000000E+000,  0.10000000000E+001
  0.94883100000E+005,  0.58747088475E+006,  0.16500000000E+002,  0.00000000000E+000,  0.10000000000E+001
  0.94883200000E+005,  0.59330159480E+006,  0.16500000000E+002,  0.00000000000E+000,  0.10000000000E+001
  0.94883300000E+005,  0.59918898863E+006,  0.16500000000E+002,  0.00000000000E+000,  0.10000000000E+001
  0.94883400000E+005,  0.60505844681E+006,  0.16500000000E+002,  0.00000000000E+000,  0.10000000000E+001
  0.94883500000E+005,  0.61087351651E+006,  0.16500000000E+002,  0.00000000000E+000,  0.10000000000E+001
  0.94883600000E+005,  0.61670256117E+006,  0.16500000000E+002,  0.00000000000E+000,  0.10000000000E+001
  0.94883700000E+005,  0.62257689744E+006,  0.16500000000E+002,  0.00000000000E+000,  0.10000000000E+001
  0.94883800000E+005,  0.62846317382E+006,  0.16500000000E+002,  0.00000000000E+000,  0.10000000000E+001
  0.94883900000E+005,  0.63428482091E+006,  0.16500000000E+002,  0.00000000000E+000,  0.10000000000E+001
  0.94884000000E+005,  0.64016976897E+006,  0.16500000000E+002,  0.00000000000E+000,  0.10000000000E+001
  0.94884100000E+005,  0.64600074144E+006,  0.16500000000E+002,  0.00000000000E+000,  0.10000000000E+001
  0.94884200000E+005,  0.65187172282E+006,  0.16500000000E+002,  0.00000000000E+000,  0.10000000000E+001
  0.94884300000E+005,  0.65774666453E+006,  0.16500000000E+002,  0.00000000000E+000,  0.10000000000E+001
  0.94884400000E+005,  0.66355459987E+006,  0.16500000000E+002,  0.00000000000E+000,  0.10000000000E+001
  0.94884500000E+005,  0.66943661919E+006,  0.16500000000E+002,  0.00000000000E+000,  0.10000000000E+001
  0.94884600000E+005,  0.67525754079E+006,  0.16500000000E+002,  0.00000000000E+000,  0.10000000000E+001
  0.94884700000E+005,  0.68112736754E+006,  0.16500000000E+002,  0.00000000000E+000,  0.10000000000E+001
  0.94884800000E+005,  0.68700018213E+006,  0.16500000000E+002,  0.00000000000E+000,  0.10000000000E+001
  0.94884900000E+005,  0.69280846204E+006,  0.16500000000E+002,  0.00000000000E+000,  0.10000000000E+001
  0.94885000000E+005,  0.69869509784E+006,  0.16500000000E+002,  0.00000000000E+000,  0.10000000000E+001
  0.94885100000E+005,  0.70456567649E+006,  0.16500000000E+002,  0.00000000000E+000,  0.10000000000E+001
  0.94885200000E+005,  0.71034996060E+006,  0.16500000000E+002,  0.00000000000E+000,  0.10000000000E+001
  0.94885300000E+005,  0.71623735916E+006,  0.16500000000E+002,  0.00000000000E+000,  0.10000000000E+001
  0.94885400000E+005,  0.72213302861E+006,  0.16500000000E+002,  0.00000000000E+000,  0.10000000000E+001
  0.94885500000E+005,  0.72794556081E+006,  0.16500000000E+002,  0.00000000000E+000,  0.10000000000E+001
  0.94885600000E+005,  0.73379873805E+006,  0.16500000000E+002,  0.00000000000E+000,  0.10000000000E+001
  0.94885700000E+005,  0.73963127597E+006,  0.16500000000E+002,  0.00000000000E+000,  0.10000000000E+001
  0.94885800000E+005,  0.74552347497E+006,  0.16500000000E+002,  0.00000000000E+000,  0.10000000000E+001
  0.94885900000E+005,  0.75136133664E+006,  0.16500000000E+002,  0.00000000000E+000,  0.10000000000E+001
  0.94886000000E+005,  0.75719447805E+006,  0.16500000000E+002,  0.00000000000E+000,  0.10000000000E+001
  0.94886100000E+005,  0.76305153625E+006,  0.16500000000E+002,  0.00000000000E+000,  0.10000000000E+001
  0.94886200000E+005,  0.76889833182E+006,  0.16500000000E+002,  0.00000000000E+000,  0.10000000000E+001
  0.94886300000E+005,  0.77476995261E+006,  0.16500000000E+002,  0.00000000000E+000,  0.10000000000E+001
  0.94886400000E+005,  0.78060966611E+006,  0.16500000000E+002,  0.00000000000E+000,  0.10000000000E+001
  0.94886500000E+005,  0.78647039198E+006,  0.16500000000E+002,  0.00000000000E+000,  0.10000000000E+001
  0.94886600000E+005,  0.79228512501E+006,  0.16500000000E+002,  0.00000000000E+000,  0.10000000000E+001
  0.94886700000E+005,  0.79817564734E+006,  0.16500000000E+002,  0.00000000000E+000,  0.10000000000E+001
  0.94886800000E+005,  0.80403774138E+006,  0.16500000000E+002,  0.00000000000E+000,  0.10000000000E+001
  0.94886900000E+005,  0.80987025117E+006,  0.16500000000E+002,  0.00000000000E+000,  0.10000000000E+001
  0.94887000000E+005,  0.81572538971E+006,  0.16500000000E+002,  0.00000000000E+000,  0.10000000000E+001
  0.94887100000E+005,  0.82157369899E+006,  0.16500000000E+002,  0.00000000000E+000,  0.10000000000E+001
  0.94887200000E+005,  0.82742590796E+006,  0.16500000000E+002,  0.00000000000E+000,  0.10000000000E+001
  0.94887300000E+005,  0.83327721215E+006,  0.16500000000E+002,  0.00000000000E+000,  0.10000000000E+001
  0.94887400000E+005,  0.83912760524E+006,  0.16500000000E+002,  0.00000000000E+000,  0.10000000000E+001
  0.94887500000E+005,  0.84497649928E+006,  0.16500000000E+002,  0.00000000000E+000,  0.10000000000E+001
  0.94887600000E+005,  0.85082634473E+006,  0.16500000000E+002,  0.00000000000E+000,  0.10000000000E+001
  0.94887700000E+005,  0.85667961288E+006,  0.16500000000E+002,  0.00000000000E+000,  0.10000000000E+001
  0.94887800000E+005,  0.86252938766E+006,  0.16500000000E+002,  0.00000000000E+000,  0.10000000000E+001
  0.94887900000E+005,  0.86837791708E+006,  0.16500000000E+002,  0.00000000000E+000,  0.10000000000E+001
  0.94888000000E+005,  0.87423162860E+006,  0.16500000000E+002,  0.00000000000E+000,  0.10000000000E+001
  0.94888100000E+005,  0.88007933541E+006,  0.16500000000E+002,  0.00000000000E+000,  0.10000000000E+001
  0.94888200000E+005,  0.88593058641E+006,  0.16500000000E+002,  0.00000000000E+000,  0.10000000000E+001
  0.94888300000E+005,  0.89178408693E+006,  0.16500000000E+002,  0.00000000000E+000,  0.10000000000E+001
  0.94888400000E+005,  0.89762919168E+006,  0.16500000000E+002,  0.00000000000E+000,  0.10000000000E+001
  0.94888500000E+005,  0.90347831369E+006,  0.16500000000E+002,  0.00000000000E+000,  0.10000000000E+001
  0.94888600000E+005,  0.90932986809E+006,  0.16500000000E+002,  0.00000000000E+000,  0.10000000000E+001
  0.94888700000E+005,  0.91518119379E+006,  0.16500000000E+002,  0.00000000000E+000,  0.10000000000E+001
  0.94888800000E+005,  0.92102737838E+006,  0.16500000000E+002,  0.00000000000E+000,  0.10000000000E+001
  0.94888900000E+005,  0.92687843082E+006,  0.16500000000E+002,  0.00000000000E+000,  0.10000000000E+001
  0.94889000000E+005,  0.93273141313E+006,  0.16500000000E+002,  0.00000000000E+000,  0.10000000000E+001
  0.94889100000E+005,  0.93857754077E+006,  0.16500000000E+002,  0.00000000000E+000,  0.10000000000E+001
  0.94889200000E+005,  0.94442815345E+006,  0.16500000000E+002,  0.00000000000E+000,  0.10000000000E+001
  0.94889300000E+005,  0.95028225053E+006,  0.16500000000E+002,  0.00000000000E+000,  0.10000000000E+001
  0.94889400000E+005,  0.95612708631E+006,  0.16500000000E+002,  0.00000000000E+000,  0.10000000000E+001
  0.94889500000E+005,  0.96197365952E+006,  0.16500000000E+002,  0.00000000000E+000,  0.10000000000E+001
  0.94889600000E+005,  0.96782864644E+006,  0.16500000000E+002,  0.00000000000E+000,  0.10000000000E+001
  0.94889700000E+005,  0.97367537585E+006,  0.16500000000E+002,  0.00000000000E+000,  0.10000000000E+001
  0.94889800000E+005,  0.97952673516E+006,  0.16500000000E+002,  0.00000000000E+000,  0.10000000000E+001
  0.94889900000E+005,  0.98537496763E+006,  0.16500000000E+002,  0.00000000000E+000,  0.10000000000E+001
  0.94890000000E+005,  0.99122309853E+006,  0.16500000000E+002,  0.00000000000E+000,  0.10000000000E+001
  0.94890100000E+005,  0.99707243547E+006,  0.16500000000E+002,  0.00000000000E+000,  0.10000000000E+001
  0.94890200000E+005,  0.10029241818E+007,  0.16500000000E+002,  0.00000000000E+000,  0.10000000000E+001
  0.94890300000E+005,  0.10087718833E+007,  0.16500000000E+002,  0.00000000000E+000,  0.10000000000E+001
  0.94890400000E+005,  0.10146202278E+007,  0.16500000000E+002,  0.00000000000E+000,  0.10000000000E+001
  0.94890500000E+005,  0.10204744542E+007,  0.16500000000E+002,  0.00000000000E+000,  0.10000000000E+001
  0.94890600000E+005,  0.10263184425E+007,  0.16500000000E+002,  0.00000000000E+000,  0.10000000000E+001
  0.94890700000E+005,  0.10321664702E+007,  0.16500000000E+002,  0.00000000000E+000,  0.10000000000E+001
  0.94890800000E+005,  0.10380165753E+007,  0.16500000000E+002,  0.00000000000E+000,  0.10000000000E+001
  0.94890900000E+005,  0.10438638846E+007,  0.16500000000E+002,  0.00000000000E+000,  0.10000000000E+001
  0.94891000000E+005,  0.10497116876E+007,  0.16500000000E+002,  0.00000000000E+000,  0.10000000000E+001
  0.94891100000E+005,  0.10555665002E+007,  0.16500000000E+002,  0.00000000000E+000,  0.10000000000E+001
  0.94891200000E+005,  0.10614220570E+007,  0.16500000000E+002,  0.00000000000E+000,  0.10000000000E+001
  0.94891300000E+005,  0.10672077213E+007,  0.16500000000E+002,  0.00000000000E+000,  0.10000000000E+001
  0.94891400000E+005,  0.10731284262E+007,  0.16500000000E+002,  0.00000000000E+000,  0.10000000000E+001
  0.94891500000E+005,  0.10789723447E+007,  0.16500000000E+002,  0.00000000000E+000,  0.10000000000E+001
  0.94891600000E+005,  0.10847742012E+007,  0.16500000000E+002,  0.00000000000E+000,  0.10000000000E+001
  0.94891700000E+005,  0.10906531345E+007,  0.16500000000E+002,  0.00000000000E+000,  0.10000000000E+001
  0.94891800000E+005,  0.10965189508E+007,  0.16500000000E+002,  0.00000000000E+000,  0.10000000000E+001
  0.94891900000E+005,  0.11023673737E+007,  0.16500000000E+002,  0.00000000000E+000,  0.10000000000E+001
  0.94892000000E+005,  0.11082471452E+007,  0.16500000000E+002,  0.00000000000E+000,  0.10000000000E+001
  0.94892100000E+005,  0.11139641037E+007,  0.16500000000E+002,  0.00000000000E+000,  0.10000000000E+001
  0.94892200000E+005,  0.11198246585E+007,  0.16500000000E+002,  0.00000000000E+000,  0.10000000000E+001
  0.94892300000E+005,  0.11257296450E+007,  0.16500000000E+002,  0.00000000000E+000,  0.10000000000E+001
  0.94892400000E+005,  0.11316152390E+007,  0.16500000000E+002,  0.00000000000E+000,  0.10000000000E+001
  0.94892500000E+005,  0.11374300059E+007,  0.16500000000E+002,  0.00000000000E+000,  0.10000000000E+001
  0.94892600000E+005,  0.11432890240E+007,  0.16500000000E+002,  0.00000000000E+000,  0.10000000000E+001
  0.94892700000E+005,  0.11491523281E+007,  0.16500000000E+002,  0.00000000000E+000,  0.10000000000E+001
  0.94892800000E+005,  0.11550193048E+007,  0.16500000000E+002,  0.00000000000E+000,  0.10000000000E+001
  0.94892900000E+005,  0.11607678799E+007,  0.16500000000E+002,  0.00000000000E+000,  0.10000000000E+001
  0.94893000000E+005,  0.11666488520E+007,  0.16500000000E+002,  0.00000000000E+000,  0.10000000000E+001
  0.94893100000E+005,  0.11725324045E+007,  0.16500000000E+002,  0.00000000000E+000,  0.10000000000E+001
  0.94893200000E+005,  0.11783741139E+007,  0.16500000000E+002,  0.00000000000E+000,  0.10000000000E+001
  0.94893300000E+005,  0.11842228839E+007,  0.16500000000E+002,  0.00000000000E+000,  0.10000000000E+001
  0.94893400000E+005,  0.11900650309E+007,  0.16500000000E+002,  0.00000000000E+000,  0.10000000000E+001
  0.94893500000E+005,  0.11959078613E+007,  0.16500000000E+002,  0.00000000000E+000,  0.10000000000E+001
  0.94893600000E+005,  0.12017647298E+007,  0.16500000000E+002,  0.00000000000E+000,  0.10000000000E+001
  0.94893700000E+005,  0.12076070088E+007,  0.16500000000E+002,  0.00000000000E+000,  0.10000000000E+001
  0.94893800000E+005,  0.12134481955E+007,  0.16500000000E+002,  0.00000000000E+000,  0.10000000000E+001
  0.94893900000E+005,  0.12193027433E+007,  0.16500000000E+002,  0.00000000000E+000,  0.10000000000E+001
  0.94894000000E+005,  0.12251471052E+007,  0.16500000000E+002,  0.00000000000E+000,  0.10000000000E+001
  0.94894100000E+005,  0.12309932954E+007,  0.16500000000E+002,  0.00000000000E+000,  0.10000000000E+001
  0.94894200000E+005,  0.12368419113E+007,  0.16500000000E+002,  0.00000000000E+000,  0.10000000000E+001
  0.94894300000E+005,  0.12426958623E+007,  0.16500000000E+002,  0.00000000000E+000,  0.10000000000E+001
  0.94894400000E+005,  0.12485479908E+007,  0.16500000000E+002,  0.00000000000E+000,  0.10000000000E+001
  0.94894500000E+005,  0.12544084204E+007,  0.16500000000E+002,  0.00000000000E+000,  0.10000000000E+001
  0.94894600000E+005,  0.12602845507E+007,  0.16500000000E+002,  0.00000000000E+000,  0.10000000000E+001
  0.94894700000E+005,  0.12659827215E+007,  0.16500000000E+002,  0.00000000000E+000,  0.10000000000E+001
  0.94894800000E+005,  0.12720116829E+007,  0.16500000000E+002,  0.00000000000E+000,  0.10000000000E+001
  0.94894900000E+005,  0.12779053084E+007,  0.16500000000E+002,  0.00000000000E+000,  0.10000000000E+001
  0.94895000000E+005,  0.12837770703E+007,  0.16500000000E+002,  0.00000000000E+000,  0.10000000000E+001
  0.94895100000E+005,  0.12891393202E+007,  0.16500000000E+002,  0.00000000000E+000,  0.10000000000E+001
  0.94895200000E+005,  0.12953373931E+007,  0.16500000000E+002,  0.00000000000E+000,  0.10000000000E+001
  0.94895300000E+005,  0.13011931007E+007,  0.16500000000E+002,  0.00000000000E+000,  0.10000000000E+001
  0.94895400000E+005,  0.13069976725E+007,  0.16500000000E+002,  0.00000000000E+000,  0.10000000000E+001
  0.94895500000E+005,  0.13128410919E+007,  0.16500000000E+002,  0.00000000000E+000,  0.10000000000E+001
  0.94895600000E+005,  0.13186890016E+007,  0.16500000000E+002,  0.00000000000E+000,  0.10000000000E+001
  0.94895700000E+005,  0.13245344910E+007,  0.16500000000E+002,  0.00000000000E+000,  0.10000000000E+001
  0.94895800000E+005,  0.13303823445E+007,  0.16500000000E+002,  0.00000000000E+000,  0.10000000000E+001
  0.94895900000E+005,  0.13362293604E+007,  0.16500000000E+002,  0.00000000000E+000,  0.10000000000E+001
  0.94896000000E+005,  0.13420842954E+007,  0.16500000000E+002,  0.00000000000E+000,  0.10000000000E+001
  0.94896100000E+005,  0.13479279695E+007,  0.16500000000E+002,  0.00000000000E+000,  0.10000000000E+001
  0.94896200000E+005,  0.13537729292E+007,  0.16500000000E+002,  0.00000000000E+000,  0.10000000000E+001
  0.94896300000E+005,  0.13595687713E+007,  0.16500000000E+002,  0.00000000000E+000,  0.10000000000E+001
  0.94896400000E+005,  0.13654617191E+007,  0.16500000000E+002,  0.00000000000E+000,  0.10000000000E+001
  0.94896500000E+005,  0.13713024871E+007,  0.16500000000E+002,  0.00000000000E+000,  0.10000000000E+001
  0.94896600000E+005,  0.13771499347E+007,  0.16500000000E+002,  0.00000000000E+000,  0.10000000000E+001
  0.94896700000E+005,  0.13829996354E+007,  0.16500000000E+002,  0.00000000000E+000,  0.10000000000E+001
  0.94896800000E+005,  0.13888421366E+007,  0.16500000000E+002,  0.00000000000E+000,  0.10000000000E+001
  0.94896900000E+005,  0.13946744253E+007,  0.16500000000E+002,  0.00000000000E+000,  0.10000000000E+001
  0.94897000000E+005,  0.14005269360E+007,  0.16500000000E+002,  0.00000000000E+000,  0.10000000000E+001
  0.94897100000E+005,  0.14063801957E+007,  0.16500000000E+002,  0.00000000000E+000,  0.10000000000E+001
  0.94897200000E+005,  0.14122429911E+007,  0.16500000000E+002,  0.00000000000E+000,  0.10000000000E+001
  0.94897300000E+005,  0.14180953650E+007,  0.16500000000E+002,  0.00000000000E+000,  0.10000000000E+001
  0.94897400000E+005,  0.14239625132E+007,  0.16500000000E+002,  0.00000000000E+000,  0.10000000000E+001
  0.94897500000E+005,  0.14297469403E+007,  0.16500000000E+002,  0.00000000000E+000,  0.10000000000E+001
  0.94897600000E+005,  0.14355941541E+007,  0.16500000000E+002,  0.00000000000E+000,  0.10000000000E+001
  0.94897700000E+005,  0.14414364911E+007,  0.16500000000E+002,  0.00000000000E+000,  0.10000000000E+001
  0.94897800000E+005,  0.14472874978E+007,  0.16500000000E+002,  0.00000000000E+000,  0.10000000000E+001
  0.94897900000E+005,  0.14531302352E+007,  0.16500000000E+002,  0.00000000000E+000,  0.10000000000E+001
  0.94898000000E+005,  0.14589770811E+007,  0.16500000000E+002,  0.00000000000E+000,  0.10000000000E+001
  0.94898100000E+005,  0.14648218453E+007,  0.16500000000E+002,  0.00000000000E+000,  0.10000000000E+001
  0.94898200000E+005,  0.14706688412E+007,  0.16500000000E+002,  0.00000000000E+000,  0.10000000000E+001
  0.94898300000E+005,  0.14765229053E+007,  0.16500000000E+002,  0.00000000000E+000,  0.10000000000E+001
  0.94898400000E+005,  0.14823738325E+007,  0.16500000000E+002,  0.00000000000E+000,  0.10000000000E+001
  0.94898500000E+005,  0.14882407789E+007,  0.16500000000E+002,  0.00000000000E+000,  0.10000000000E+001
  0.94898600000E+005,  0.14940737025E+007,  0.16500000000E+002,  0.00000000000E+000,  0.10000000000E+001
  0.94898700000E+005,  0.14998950319E+007,  0.16500000000E+002,  0.00000000000E+000,  0.10000000000E+001
  0.94898800000E+005,  0.15057520727E+007,  0.16500000000E+002,  0.00000000000E+000,  0.10000000000E+001
  0.94898900000E+005,  0.15115834454E+007,  0.16500000000E+002,  0.00000000000E+000,  0.10000000000E+001
