"           TIME(S)","              PRES","              TEMP","             SAT_G","             SAT_L"
  0.94881000000E+005,  0.47882143832E+006,  0.16500000000E+002,  0.00000000000E+000,  0.10000000000E+001
  0.94882500000E+005,  0.58135260719E+006,  0.16500000000E+002,  0.00000000000E+000,  0.10000000000E+001
  0.94884000000E+005,  0.74495159531E+006,  0.16500000000E+002,  0.00000000000E+000,  0.10000000000E+001
  0.94885000000E+005,  0.85400473214E+006,  0.16500000000E+002,  0.00000000000E+000,  0.10000000000E+001
  0.94886500000E+005,  0.10175626244E+007,  0.16500000000E+002,  0.00000000000E+000,  0.10000000000E+001
  0.94888000000E+005,  0.11810952364E+007,  0.16500000000E+002,  0.00000000000E+000,  0.10000000000E+001
  0.94889500000E+005,  0.13446026496E+007,  0.16500000000E+002,  0.00000000000E+000,  0.10000000000E+001
  0.94890000000E+005,  0.13991001048E+007,  0.16500000000E+002,  0.00000000000E+000,  0.10000000000E+001
  0.94891500000E+005,  0.15625725839E+007,  0.16500000000E+002,  0.00000000000E+000,  0.10000000000E+001
  0.94893000000E+005,  0.17260196668E+007,  0.16500000000E+002,  0.00000000000E+000,  0.10000000000E+001
  0.94894500000E+005,  0.18894408282E+007,  0.16500000000E+002,  0.00000000000E+000,  0.10000000000E+001
  0.94895000000E+005,  0.19439105842E+007,  0.16500000000E+002,  0.00000000000E+000,  0.10000000000E+001
  0.94896500000E+005,  0.21072949336E+007,  0.16500000000E+002,  0.00000000000E+000,  0.10000000000E+001
  0.94898000000E+005,  0.22706506239E+007,  0.16500000000E+002,  0.00000000000E+000,  0.10000000000E+001
  0.94899500000E+005,  0.24339801414E+007,  0.16500000000E+002,  0.00000000000E+000,  0.10000000000E+001
  0.94900000000E+005,  0.24884175922E+007,  0.16500000000E+002,  0.00000000000E+000,  0.10000000000E+001
  0.94901500000E+005,  0.26517082960E+007,  0.16500000000E+002,  0.00000000000E+000,  0.10000000000E+001
  0.94903000000E+005,  0.28149694858E+007,  0.16500000000E+002,  0.00000000000E+000,  0.10000000000E+001
  0.94904500000E+005,  0.29782029221E+007,  0.16500000000E+002,  0.00000000000E+000,  0.10000000000E+001
  0.94905000000E+005,  0.30326082590E+007,  0.16500000000E+002,  0.00000000000E+000,  0.10000000000E+001
  0.94906500000E+005,  0.31957990839E+007,  0.16500000000E+002,  0.00000000000E+000,  0.10000000000E+001
  0.94908000000E+005,  0.33589610103E+007,  0.16500000000E+002,  0.00000000000E+000,  0.10000000000E+001
  0.94909500000E+005,  0.35220933006E+007,  0.16500000000E+002,  0.00000000000E+000,  0.10000000000E+001
  0.94911000000E+005,  0.36851932237E+007,  0.16500000000E+002,  0.00000000000E+000,  0.10000000000E+001
  0.94912500000E+005,  0.38482594121E+007,  0.16500000000E+002,  0.00000000000E+000,  0.10000000000E+001
  0.94914000000E+005,  0.40121268543E+007,  0.16500000000E+002,  0.00000000000E+000,  0.10000000000E+001
  0.94915500000E+005,  0.41762758140E+007,  0.16500000000E+002,  0.00000000000E+000,  0.10000000000E+001
  0.94917000000E+005,  0.44547239210E+007,  0.16500000000E+002,  0.00000000000E+000,  0.10000000000E+001
  0.94918500000E+005,  0.46364016158E+007,  0.16500000000E+002,  0.00000000000E+000,  0.10000000000E+001
  0.94920000000E+005,  0.48180339984E+007,  0.16500000000E+002,  0.00000000000E+000,  0.10000000000E+001
  0.94921500000E+005,  0.49887829893E+007,  0.16500000000E+002,  0.00000000000E+000,  0.10000000000E+001
  0.94923000000E+005,  0.51381319939E+007,  0.16500000000E+002,  0.00000000000E+000,  0.10000000000E+001
  0.94924500000E+005,  0.53656547011E+007,  0.16500000000E+002,  0.00000000000E+000,  0.10000000000E+001
  0.94926000000E+005,  0.55916832545E+007,  0.16500000000E+002,  0.00000000000E+000,  0.10000000000E+001
  0.94927500000E+005,  0.58714169513E+007,  0.16500000000E+002,  0.00000000000E+000,  0.10000000000E+001
  0.94929000000E+005,  0.61905375942E+007,  0.16500000000E+002,  0.00000000000E+000,  0.10000000000E+001
  0.94930500000E+005,  0.65843191430E+007,  0.16500000000E+002,  0.00000000000E+000,  0.10000000000E+001
  0.94932000000E+005,  0.71343320761E+007,  0.16500000000E+002,  0.00000000000E+000,  0.10000000000E+001
  0.94933500000E+005,  0.78182271564E+007,  0.16500000000E+002,  0.00000000000E+000,  0.10000000000E+001
  0.94935000000E+005,  0.85351307941E+007,  0.16500000000E+002,  0.00000000000E+000,  0.10000000000E+001
  0.94936500000E+005,  0.92514820360E+007,  0.16500000000E+002,  0.00000000000E+000,  0.10000000000E+001
  0.94938000000E+005,  0.99672468904E+007,  0.16500000000E+002,  0.00000000000E+000,  0.10000000000E+001
  0.94939500000E+005,  0.10682385150E+008,  0.16500000000E+002,  0.00000000000E+000,  0.10000000000E+001
  0.94941000000E+005,  0.11396850377E+008,  0.16500000000E+002,  0.00000000000E+000,  0.10000000000E+001
  0.94942000000E+005,  0.11872746233E+008,  0.16500000000E+002,  0.00000000000E+000,  0.10000000000E+001
  0.94947000000E+005,  0.14403420279E+008,  0.16500000000E+002,  0.00000000000E+000,  0.10000000000E+001
  0.94959000000E+005,  0.20902568174E+008,  0.16500000000E+002,  0.00000000000E+000,  0.10000000000E+001
  0.94971000000E+005,  0.26996970442E+008,  0.16500000000E+002,  0.00000000000E+000,  0.10000000000E+001
  0.94983000000E+005,  0.32190997994E+008,  0.16500000000E+002,  0.00000000000E+000,  0.10000000000E+001
  0.94995000000E+005,  0.32542998332E+008,  0.16500000000E+002,  0.00000000000E+000,  0.10000000000E+001
  0.94996500000E+005,  0.31731575563E+008,  0.16500000000E+002,  0.00000000000E+000,  0.10000000000E+001
  0.95004000000E+005,  0.35615710594E+008,  0.16500000000E+002,  0.00000000000E+000,  0.10000000000E+001
  0.95016000000E+005,  0.41893154495E+008,  0.16500000000E+002,  0.00000000000E+000,  0.10000000000E+001
  0.95028000000E+005,  0.48112619440E+008,  0.16500000000E+002,  0.00000000000E+000,  0.10000000000E+001
  0.95040000000E+005,  0.54170334768E+008,  0.16500000000E+002,  0.00000000000E+000,  0.10000000000E+001
  0.95052000000E+005,  0.60094168645E+008,  0.16500000000E+002,  0.00000000000E+000,  0.10000000000E+001
  0.95064000000E+005,  0.65683067464E+008,  0.16500000000E+002,  0.00000000000E+000,  0.10000000000E+001
  0.95076000000E+005,  0.69897491138E+008,  0.16500000000E+002,  0.00000000000E+000,  0.10000000000E+001
  0.95077500000E+005,  0.65518246073E+008,  0.16500000000E+002,  0.00000000000E+000,  0.10000000000E+001
  0.95077514648E+005,  0.65120700414E+008,  0.16500000000E+002,  0.00000000000E+000,  0.10000000000E+001
  0.95077523804E+005,  0.64784401378E+008,  0.16500000000E+002,  0.00000000000E+000,  0.10000000000E+001
  0.95077529526E+005,  0.64565350322E+008,  0.16500000000E+002,  0.00000000000E+000,  0.10000000000E+001
  0.95077558136E+005,  0.63485680050E+008,  0.16500000000E+002,  0.00000000000E+000,  0.10000000000E+001
  0.95077576017E+005,  0.62891330392E+008,  0.16500000000E+002,  0.00000000000E+000,  0.10000000000E+001
  0.95077587193E+005,  0.62490019128E+008,  0.16500000000E+002,  0.00000000000E+000,  0.10000000000E+001
  0.95077594178E+005,  0.62241053292E+008,  0.16500000000E+002,  0.00000000000E+000,  0.10000000000E+001
  0.95077629103E+005,  0.61046692786E+008,  0.16500000000E+002,  0.00000000000E+000,  0.10000000000E+001
  0.95077650931E+005,  0.60436542840E+008,  0.16500000000E+002,  0.00000000000E+000,  0.10000000000E+001
  0.95077760070E+005,  0.57285599488E+008,  0.16500000000E+002,  0.00000000000E+000,  0.10000000000E+001
  0.95077828282E+005,  0.56092763215E+008,  0.16500000000E+002,  0.00000000000E+000,  0.10000000000E+001
  0.95077870915E+005,  0.55203514803E+008,  0.16500000000E+002,  0.00000000000E+000,  0.10000000000E+001
  0.95077897560E+005,  0.54518801609E+008,  0.16500000000E+002,  0.00000000000E+000,  0.10000000000E+001
  0.95078030787E+005,  0.51424853218E+008,  0.16500000000E+002,  0.00000000000E+000,  0.10000000000E+001
  0.95078114054E+005,  0.50095707007E+008,  0.16500000000E+002,  0.00000000000E+000,  0.10000000000E+001
  0.95078120559E+005,  0.49962894781E+008,  0.16500000000E+002,  0.00000000000E+000,  0.10000000000E+001
  0.95078124624E+005,  0.49881252148E+008,  0.16500000000E+002,  0.00000000000E+000,  0.10000000000E+001
  0.95078144953E+005,  0.49479364915E+008,  0.16500000000E+002,  0.00000000000E+000,  0.10000000000E+001
  0.95078157659E+005,  0.49199719007E+008,  0.16500000000E+002,  0.00000000000E+000,  0.10000000000E+001
  0.95078221186E+005,  0.47779508645E+008,  0.16500000000E+002,  0.00000000000E+000,  0.10000000000E+001
  0.95078260891E+005,  0.47060105061E+008,  0.16500000000E+002,  0.00000000000E+000,  0.10000000000E+001
  0.95078285706E+005,  0.46543409294E+008,  0.16500000000E+002,  0.00000000000E+000,  0.10000000000E+001
  0.95078409783E+005,  0.44220608623E+008,  0.16500000000E+002,  0.00000000000E+000,  0.10000000000E+001
  0.95078487332E+005,  0.43157087119E+008,  0.16500000000E+002,  0.00000000000E+000,  0.10000000000E+001
  0.95078493390E+005,  0.43080517223E+008,  0.16500000000E+002,  0.00000000000E+000,  0.10000000000E+001
  0.95078523682E+005,  0.42728294207E+008,  0.16500000000E+002,  0.00000000000E+000,  0.10000000000E+001
  0.95078542615E+005,  0.42569383934E+008,  0.16500000000E+002,  0.00000000000E+000,  0.10000000000E+001
  0.95078637278E+005,  0.41977411832E+008,  0.16500000000E+002,  0.00000000000E+000,  0.10000000000E+001
  0.95079110595E+005,  0.41063609584E+008,  0.16500000000E+002,  0.00000000000E+000,  0.10000000000E+001
  0.95081477178E+005,  0.41802562264E+008,  0.16500000000E+002,  0.00000000000E+000,  0.10000000000E+001
  0.95093310091E+005,  0.47290549061E+008,  0.16500000000E+002,  0.00000000000E+000,  0.10000000000E+001
  0.95105310091E+005,  0.52877880609E+008,  0.16500000000E+002,  0.00000000000E+000,  0.10000000000E+001
  0.95117310091E+005,  0.58148813518E+008,  0.16500000000E+002,  0.00000000000E+000,  0.10000000000E+001
  0.95118810091E+005,  0.58705200513E+008,  0.16500000000E+002,  0.00000000000E+000,  0.10000000000E+001
  0.95126310091E+005,  0.61262491431E+008,  0.16500000000E+002,  0.00000000000E+000,  0.10000000000E+001
  0.95127810091E+005,  0.61279371577E+008,  0.16500000000E+002,  0.00000000000E+000,  0.10000000000E+001
  0.95128747591E+005,  0.60766584338E+008,  0.16500000000E+002,  0.00000000000E+000,  0.10000000000E+001
  0.95128820833E+005,  0.60541088384E+008,  0.16500000000E+002,  0.00000000000E+000,  0.10000000000E+001
  0.95128866610E+005,  0.60314237848E+008,  0.16500000000E+002,  0.00000000000E+000,  0.10000000000E+001
  0.95128895220E+005,  0.60097062398E+008,  0.16500000000E+002,  0.00000000000E+000,  0.10000000000E+001
  0.95128913101E+005,  0.59900495677E+008,  0.16500000000E+002,  0.00000000000E+000,  0.10000000000E+001
  0.95128924277E+005,  0.59734466600E+008,  0.16500000000E+002,  0.00000000000E+000,  0.10000000000E+001
  0.95128980157E+005,  0.58864705466E+008,  0.16500000000E+002,  0.00000000000E+000,  0.10000000000E+001
  0.95129015081E+005,  0.58300595472E+008,  0.16500000000E+002,  0.00000000000E+000,  0.10000000000E+001
  0.95129036909E+005,  0.57853116375E+008,  0.16500000000E+002,  0.00000000000E+000,  0.10000000000E+001
  0.95129146048E+005,  0.55635564355E+008,  0.16500000000E+002,  0.00000000000E+000,  0.10000000000E+001
  0.95129214260E+005,  0.54762599971E+008,  0.16500000000E+002,  0.00000000000E+000,  0.10000000000E+001
  0.95129256893E+005,  0.54490179265E+008,  0.16500000000E+002,  0.00000000000E+000,  0.10000000000E+001
  0.95129470056E+005,  0.54124350486E+008,  0.16500000000E+002,  0.00000000000E+000,  0.10000000000E+001
  0.95130535870E+005,  0.54440266443E+008,  0.16500000000E+002,  0.00000000000E+000,  0.10000000000E+001
  0.95135864940E+005,  0.56785799132E+008,  0.16500000000E+002,  0.00000000000E+000,  0.10000000000E+001
  0.95147864940E+005,  0.62165562936E+008,  0.16500000000E+002,  0.00000000000E+000,  0.10000000000E+001
  0.95151000000E+005,  0.63563651254E+008,  0.16500000000E+002,  0.00000000000E+000,  0.10000000000E+001
  0.95163000000E+005,  0.68805985428E+008,  0.16500000000E+002,  0.00000000000E+000,  0.10000000000E+001
  0.95175000000E+005,  0.73875690317E+008,  0.16500000000E+002,  0.00000000000E+000,  0.10000000000E+001
  0.95187000000E+005,  0.78671898614E+008,  0.16500000000E+002,  0.00000000000E+000,  0.10000000000E+001
  0.95188500000E+005,  0.79210090115E+008,  0.16500000000E+002,  0.00000000000E+000,  0.10000000000E+001
  0.95196000000E+005,  0.81782909638E+008,  0.16500000000E+002,  0.00000000000E+000,  0.10000000000E+001
  0.95197500000E+005,  0.82145460445E+008,  0.16500000000E+002,  0.00000000000E+000,  0.10000000000E+001
  0.95205000000E+005,  0.83523928272E+008,  0.16500000000E+002,  0.00000000000E+000,  0.10000000000E+001
