"           TIME(S)","              PRES","              TEMP","             SAT_G","             SAT_L"
  0.94881000000E+005,  0.47999173094E+006,  0.16500000000E+002,  0.00000000000E+000,  0.10000000000E+001
  0.94882100000E+005,  0.47999173124E+006,  0.16500000000E+002,  0.00000000000E+000,  0.10000000000E+001
  0.94883200000E+005,  0.47999173164E+006,  0.16500000000E+002,  0.00000000000E+000,  0.10000000000E+001
  0.94884300000E+005,  0.47999173204E+006,  0.16500000000E+002,  0.00000000000E+000,  0.10000000000E+001
  0.94885000000E+005,  0.47999173229E+006,  0.16500000000E+002,  0.00000000000E+000,  0.10000000000E+001
  0.94886100000E+005,  0.47999173265E+006,  0.16500000000E+002,  0.00000000000E+000,  0.10000000000E+001
  0.94887200000E+005,  0.47999173299E+006,  0.16500000000E+002,  0.00000000000E+000,  0.10000000000E+001
  0.94888300000E+005,  0.47999173329E+006,  0.16500000000E+002,  0.00000000000E+000,  0.10000000000E+001
  0.94889400000E+005,  0.47999173356E+006,  0.16500000000E+002,  0.00000000000E+000,  0.10000000000E+001
  0.94890000000E+005,  0.47999173369E+006,  0.16500000000E+002,  0.00000000000E+000,  0.10000000000E+001
  0.94891100000E+005,  0.47999173392E+006,  0.16500000000E+002,  0.00000000000E+000,  0.10000000000E+001
  0.94892200000E+005,  0.47999173411E+006,  0.16500000000E+002,  0.00000000000E+000,  0.10000000000E+001
  0.94893300000E+005,  0.47999173428E+006,  0.16500000000E+002,  0.00000000000E+000,  0.10000000000E+001
  0.94894400000E+005,  0.47999173443E+006,  0.16500000000E+002,  0.00000000000E+000,  0.10000000000E+001
  0.94895000000E+005,  0.47999173450E+006,  0.16500000000E+002,  0.00000000000E+000,  0.10000000000E+001
  0.94896100000E+005,  0.47999173461E+006,  0.16500000000E+002,  0.00000000000E+000,  0.10000000000E+001
  0.94897200000E+005,  0.47999173470E+006,  0.16500000000E+002,  0.00000000000E+000,  0.10000000000E+001
  0.94898300000E+005,  0.47999173478E+006,  0.16500000000E+002,  0.00000000000E+000,  0.10000000000E+001
  0.94899400000E+005,  0.47999173484E+006,  0.16500000000E+002,  0.00000000000E+000,  0.10000000000E+001
  0.94900000000E+005,  0.47999173487E+006,  0.16500000000E+002,  0.00000000000E+000,  0.10000000000E+001
  0.94901100000E+005,  0.47999173491E+006,  0.16500000000E+002,  0.00000000000E+000,  0.10000000000E+001
  0.94902200000E+005,  0.47999173495E+006,  0.16500000000E+002,  0.00000000000E+000,  0.10000000000E+001
  0.94903300000E+005,  0.47999173497E+006,  0.16500000000E+002,  0.00000000000E+000,  0.10000000000E+001
  0.94904400000E+005,  0.47999173498E+006,  0.16500000000E+002,  0.00000000000E+000,  0.10000000000E+001
  0.94905000000E+005,  0.47999173498E+006,  0.16500000000E+002,  0.00000000000E+000,  0.10000000000E+001
  0.94906100000E+005,  0.47999173498E+006,  0.16500000000E+002,  0.00000000000E+000,  0.10000000000E+001
  0.94907200000E+005,  0.47999173497E+006,  0.16500000000E+002,  0.00000000000E+000,  0.10000000000E+001
  0.94908300000E+005,  0.47999173496E+006,  0.16500000000E+002,  0.00000000000E+000,  0.10000000000E+001
  0.94909400000E+005,  0.47999173494E+006,  0.16500000000E+002,  0.00000000000E+000,  0.10000000000E+001
  0.94910500000E+005,  0.47999173491E+006,  0.16500000000E+002,  0.00000000000E+000,  0.10000000000E+001
  0.94911000000E+005,  0.47999173490E+006,  0.16500000000E+002,  0.00000000000E+000,  0.10000000000E+001
  0.94912100000E+005,  0.47999173487E+006,  0.16500000000E+002,  0.00000000000E+000,  0.10000000000E+001
  0.94913200000E+005,  0.47999173484E+006,  0.16500000000E+002,  0.00000000000E+000,  0.10000000000E+001
  0.94914300000E+005,  0.47999173480E+006,  0.16500000000E+002,  0.00000000000E+000,  0.10000000000E+001
  0.94915400000E+005,  0.47999173475E+006,  0.16500000000E+002,  0.00000000000E+000,  0.10000000000E+001
  0.94916500000E+005,  0.47999173471E+006,  0.16500000000E+002,  0.00000000000E+000,  0.10000000000E+001
  0.94917600000E+005,  0.47999173466E+006,  0.16500000000E+002,  0.00000000000E+000,  0.10000000000E+001
  0.94918700000E+005,  0.47999173461E+006,  0.16500000000E+002,  0.00000000000E+000,  0.10000000000E+001
  0.94919800000E+005,  0.47999173456E+006,  0.16500000000E+002,  0.00000000000E+000,  0.10000000000E+001
  0.94920900000E+005,  0.47999173450E+006,  0.16500000000E+002,  0.00000000000E+000,  0.10000000000E+001
  0.94922000000E+005,  0.47999173445E+006,  0.16500000000E+002,  0.00000000000E+000,  0.10000000000E+001
  0.94923100000E+005,  0.47999173439E+006,  0.16500000000E+002,  0.00000000000E+000,  0.10000000000E+001
  0.94924200000E+005,  0.47999173433E+006,  0.16500000000E+002,  0.00000000000E+000,  0.10000000000E+001
  0.94925300000E+005,  0.47999173427E+006,  0.16500000000E+002,  0.00000000000E+000,  0.10000000000E+001
  0.94926400000E+005,  0.47999173420E+006,  0.16500000000E+002,  0.00000000000E+000,  0.10000000000E+001
  0.94927500000E+005,  0.47999173414E+006,  0.16500000000E+002,  0.00000000000E+000,  0.10000000000E+001
  0.94928600000E+005,  0.47999173408E+006,  0.16500000000E+002,  0.00000000000E+000,  0.10000000000E+001
  0.94929700000E+005,  0.47999173401E+006,  0.16500000000E+002,  0.00000000000E+000,  0.10000000000E+001
  0.94930800000E+005,  0.47999173394E+006,  0.16500000000E+002,  0.00000000000E+000,  0.10000000000E+001
  0.94931900000E+005,  0.47999173387E+006,  0.16500000000E+002,  0.00000000000E+000,  0.10000000000E+001
  0.94933000000E+005,  0.47999173381E+006,  0.16500000000E+002,  0.00000000000E+000,  0.10000000000E+001
  0.94934100000E+005,  0.47999173374E+006,  0.16500000000E+002,  0.00000000000E+000,  0.10000000000E+001
  0.94935200000E+005,  0.47999173367E+006,  0.16500000000E+002,  0.00000000000E+000,  0.10000000000E+001
  0.94936300000E+005,  0.47999173360E+006,  0.16500000000E+002,  0.00000000000E+000,  0.10000000000E+001
  0.94937400000E+005,  0.47999173353E+006,  0.16500000000E+002,  0.00000000000E+000,  0.10000000000E+001
  0.94938500000E+005,  0.47999173346E+006,  0.16500000000E+002,  0.00000000000E+000,  0.10000000000E+001
  0.94939600000E+005,  0.47999173338E+006,  0.16500000000E+002,  0.00000000000E+000,  0.10000000000E+001
  0.94940700000E+005,  0.47999173331E+006,  0.16500000000E+002,  0.00000000000E+000,  0.10000000000E+001
  0.94941700000E+005,  0.47999173325E+006,  0.16500000000E+002,  0.00000000000E+000,  0.10000000000E+001
  0.94942900000E+005,  0.47999173317E+006,  0.16500000000E+002,  0.00000000000E+000,  0.10000000000E+001
  0.94944100000E+005,  0.47999173309E+006,  0.16500000000E+002,  0.00000000000E+000,  0.10000000000E+001
  0.94945300000E+005,  0.47999173301E+006,  0.16500000000E+002,  0.00000000000E+000,  0.10000000000E+001
  0.94946500000E+005,  0.47999173293E+006,  0.16500000000E+002,  0.00000000000E+000,  0.10000000000E+001
  0.94947700000E+005,  0.47999173285E+006,  0.16500000000E+002,  0.00000000000E+000,  0.10000000000E+001
  0.94948900000E+005,  0.47999173277E+006,  0.16500000000E+002,  0.00000000000E+000,  0.10000000000E+001
  0.94950100000E+005,  0.47999173269E+006,  0.16500000000E+002,  0.00000000000E+000,  0.10000000000E+001
  0.94951300000E+005,  0.47999173261E+006,  0.16500000000E+002,  0.00000000000E+000,  0.10000000000E+001
  0.94952500000E+005,  0.47999173253E+006,  0.16500000000E+002,  0.00000000000E+000,  0.10000000000E+001
  0.94953700000E+005,  0.47999173245E+006,  0.16500000000E+002,  0.00000000000E+000,  0.10000000000E+001
  0.94954900000E+005,  0.47999173237E+006,  0.16500000000E+002,  0.00000000000E+000,  0.10000000000E+001
  0.94956100000E+005,  0.47999173229E+006,  0.16500000000E+002,  0.00000000000E+000,  0.10000000000E+001
  0.94957300000E+005,  0.47999173221E+006,  0.16500000000E+002,  0.00000000000E+000,  0.10000000000E+001
  0.94958500000E+005,  0.47999173213E+006,  0.16500000000E+002,  0.00000000000E+000,  0.10000000000E+001
  0.94959700000E+005,  0.47999173205E+006,  0.16500000000E+002,  0.00000000000E+000,  0.10000000000E+001
  0.94960900000E+005,  0.47999173197E+006,  0.16500000000E+002,  0.00000000000E+000,  0.10000000000E+001
  0.94962100000E+005,  0.47999173189E+006,  0.16500000000E+002,  0.00000000000E+000,  0.10000000000E+001
  0.94963300000E+005,  0.47999173181E+006,  0.16500000000E+002,  0.00000000000E+000,  0.10000000000E+001
  0.94964500000E+005,  0.47999173173E+006,  0.16500000000E+002,  0.00000000000E+000,  0.10000000000E+001
  0.94965700000E+005,  0.47999173165E+006,  0.16500000000E+002,  0.00000000000E+000,  0.10000000000E+001
  0.94966900000E+005,  0.47999173157E+006,  0.16500000000E+002,  0.00000000000E+000,  0.10000000000E+001
  0.94968100000E+005,  0.47999173149E+006,  0.16500000000E+002,  0.00000000000E+000,  0.10000000000E+001
  0.94969300000E+005,  0.47999173141E+006,  0.16500000000E+002,  0.00000000000E+000,  0.10000000000E+001
  0.94969450000E+005,  0.47999173141E+006,  0.16500000000E+002,  0.00000000000E+000,  0.10000000000E+001
  0.94969543750E+005,  0.47999173140E+006,  0.16500000000E+002,  0.00000000000E+000,  0.10000000000E+001
  0.94970012500E+005,  0.47999173137E+006,  0.16500000000E+002,  0.00000000000E+000,  0.10000000000E+001
  0.94970031250E+005,  0.47999173137E+006,  0.16500000000E+002,  0.00000000000E+000,  0.10000000000E+001
  0.94970042969E+005,  0.47999173136E+006,  0.16500000000E+002,  0.00000000000E+000,  0.10000000000E+001
  0.94970050293E+005,  0.47999173136E+006,  0.16500000000E+002,  0.00000000000E+000,  0.10000000000E+001
  0.94970050865E+005,  0.47999173136E+006,  0.16500000000E+002,  0.00000000000E+000,  0.10000000000E+001
  0.94970051223E+005,  0.47999173136E+006,  0.16500000000E+002,  0.00000000000E+000,  0.10000000000E+001
  0.94970051446E+005,  0.47999173136E+006,  0.16500000000E+002,  0.00000000000E+000,  0.10000000000E+001
  0.94970051586E+005,  0.47999173136E+006,  0.16500000000E+002,  0.00000000000E+000,  0.10000000000E+001
  0.94970052285E+005,  0.47999173136E+006,  0.16500000000E+002,  0.00000000000E+000,  0.10000000000E+001
  0.94970052339E+005,  0.47999173136E+006,  0.16500000000E+002,  0.00000000000E+000,  0.10000000000E+001
  0.94970052373E+005,  0.47999173136E+006,  0.16500000000E+002,  0.00000000000E+000,  0.10000000000E+001
  0.94970052376E+005,  0.47999173136E+006,  0.16500000000E+002,  0.00000000000E+000,  0.10000000000E+001
  0.94970052389E+005,  0.47999173136E+006,  0.16500000000E+002,  0.00000000000E+000,  0.10000000000E+001
  0.94970052397E+005,  0.47999173136E+006,  0.16500000000E+002,  0.00000000000E+000,  0.10000000000E+001
