"           TIME(S)","              PRES","              TEMP","             SAT_G","             SAT_L"
  0.94881000000E+005,  0.45358991289E+006,  0.16500000000E+002,  0.00000000000E+000,  0.10000000000E+001
  0.94882100000E+005,  0.45358991289E+006,  0.16500000000E+002,  0.00000000000E+000,  0.10000000000E+001
  0.94883200000E+005,  0.45358991288E+006,  0.16500000000E+002,  0.00000000000E+000,  0.10000000000E+001
  0.94884300000E+005,  0.45358991287E+006,  0.16500000000E+002,  0.00000000000E+000,  0.10000000000E+001
  0.94885000000E+005,  0.45358991286E+006,  0.16500000000E+002,  0.00000000000E+000,  0.10000000000E+001
  0.94886100000E+005,  0.45358991285E+006,  0.16500000000E+002,  0.00000000000E+000,  0.10000000000E+001
  0.94887200000E+005,  0.45358991283E+006,  0.16500000000E+002,  0.00000000000E+000,  0.10000000000E+001
  0.94888300000E+005,  0.45358991282E+006,  0.16500000000E+002,  0.00000000000E+000,  0.10000000000E+001
  0.94889400000E+005,  0.45358991280E+006,  0.16500000000E+002,  0.00000000000E+000,  0.10000000000E+001
  0.94890000000E+005,  0.45358991278E+006,  0.16500000000E+002,  0.00000000000E+000,  0.10000000000E+001
  0.94891100000E+005,  0.45358991276E+006,  0.16500000000E+002,  0.00000000000E+000,  0.10000000000E+001
  0.94892200000E+005,  0.45358991273E+006,  0.16500000000E+002,  0.00000000000E+000,  0.10000000000E+001
  0.94893300000E+005,  0.45358991271E+006,  0.16500000000E+002,  0.00000000000E+000,  0.10000000000E+001
  0.94894400000E+005,  0.45358991268E+006,  0.16500000000E+002,  0.00000000000E+000,  0.10000000000E+001
  0.94895000000E+005,  0.45358991266E+006,  0.16500000000E+002,  0.00000000000E+000,  0.10000000000E+001
  0.94896100000E+005,  0.45358991263E+006,  0.16500000000E+002,  0.00000000000E+000,  0.10000000000E+001
  0.94897200000E+005,  0.45358991259E+006,  0.16500000000E+002,  0.00000000000E+000,  0.10000000000E+001
  0.94898300000E+005,  0.45358991255E+006,  0.16500000000E+002,  0.00000000000E+000,  0.10000000000E+001
  0.94899400000E+005,  0.45358991251E+006,  0.16500000000E+002,  0.00000000000E+000,  0.10000000000E+001
  0.94900000000E+005,  0.45358991249E+006,  0.16500000000E+002,  0.00000000000E+000,  0.10000000000E+001
  0.94901100000E+005,  0.45358991245E+006,  0.16500000000E+002,  0.00000000000E+000,  0.10000000000E+001
  0.94902200000E+005,  0.45358991241E+006,  0.16500000000E+002,  0.00000000000E+000,  0.10000000000E+001
  0.94903300000E+005,  0.45358991236E+006,  0.16500000000E+002,  0.00000000000E+000,  0.10000000000E+001
  0.94904400000E+005,  0.45358991232E+006,  0.16500000000E+002,  0.00000000000E+000,  0.10000000000E+001
  0.94905000000E+005,  0.45358991229E+006,  0.16500000000E+002,  0.00000000000E+000,  0.10000000000E+001
  0.94906100000E+005,  0.45358991224E+006,  0.16500000000E+002,  0.00000000000E+000,  0.10000000000E+001
  0.94907200000E+005,  0.45358991219E+006,  0.16500000000E+002,  0.00000000000E+000,  0.10000000000E+001
  0.94908300000E+005,  0.45358991214E+006,  0.16500000000E+002,  0.00000000000E+000,  0.10000000000E+001
  0.94909400000E+005,  0.45358991209E+006,  0.16500000000E+002,  0.00000000000E+000,  0.10000000000E+001
  0.94910500000E+005,  0.45358991203E+006,  0.16500000000E+002,  0.00000000000E+000,  0.10000000000E+001
  0.94911000000E+005,  0.45358991201E+006,  0.16500000000E+002,  0.00000000000E+000,  0.10000000000E+001
  0.94912100000E+005,  0.45358991195E+006,  0.16500000000E+002,  0.00000000000E+000,  0.10000000000E+001
  0.94913200000E+005,  0.45358991190E+006,  0.16500000000E+002,  0.00000000000E+000,  0.10000000000E+001
  0.94914300000E+005,  0.45358991184E+006,  0.16500000000E+002,  0.00000000000E+000,  0.10000000000E+001
  0.94915400000E+005,  0.45358991178E+006,  0.16500000000E+002,  0.00000000000E+000,  0.10000000000E+001
  0.94916500000E+005,  0.45358991172E+006,  0.16500000000E+002,  0.00000000000E+000,  0.10000000000E+001
  0.94917600000E+005,  0.45358991166E+006,  0.16500000000E+002,  0.00000000000E+000,  0.10000000000E+001
  0.94918700000E+005,  0.45358991160E+006,  0.16500000000E+002,  0.00000000000E+000,  0.10000000000E+001
  0.94919800000E+005,  0.45358991154E+006,  0.16500000000E+002,  0.00000000000E+000,  0.10000000000E+001
  0.94920900000E+005,  0.45358991148E+006,  0.16500000000E+002,  0.00000000000E+000,  0.10000000000E+001
  0.94922000000E+005,  0.45358991141E+006,  0.16500000000E+002,  0.00000000000E+000,  0.10000000000E+001
  0.94923100000E+005,  0.45358991135E+006,  0.16500000000E+002,  0.00000000000E+000,  0.10000000000E+001
  0.94924200000E+005,  0.45358991129E+006,  0.16500000000E+002,  0.00000000000E+000,  0.10000000000E+001
  0.94925300000E+005,  0.45358991122E+006,  0.16500000000E+002,  0.00000000000E+000,  0.10000000000E+001
  0.94926400000E+005,  0.45358991116E+006,  0.16500000000E+002,  0.00000000000E+000,  0.10000000000E+001
  0.94927500000E+005,  0.45358991109E+006,  0.16500000000E+002,  0.00000000000E+000,  0.10000000000E+001
  0.94928600000E+005,  0.45358991102E+006,  0.16500000000E+002,  0.00000000000E+000,  0.10000000000E+001
  0.94929700000E+005,  0.45358991096E+006,  0.16500000000E+002,  0.00000000000E+000,  0.10000000000E+001
  0.94930800000E+005,  0.45358991089E+006,  0.16500000000E+002,  0.00000000000E+000,  0.10000000000E+001
  0.94931900000E+005,  0.45358991082E+006,  0.16500000000E+002,  0.00000000000E+000,  0.10000000000E+001
  0.94933000000E+005,  0.45358991075E+006,  0.16500000000E+002,  0.00000000000E+000,  0.10000000000E+001
  0.94934100000E+005,  0.45358991069E+006,  0.16500000000E+002,  0.00000000000E+000,  0.10000000000E+001
  0.94935200000E+005,  0.45358991062E+006,  0.16500000000E+002,  0.00000000000E+000,  0.10000000000E+001
  0.94936300000E+005,  0.45358991055E+006,  0.16500000000E+002,  0.00000000000E+000,  0.10000000000E+001
  0.94937400000E+005,  0.45358991048E+006,  0.16500000000E+002,  0.00000000000E+000,  0.10000000000E+001
  0.94938500000E+005,  0.45358991041E+006,  0.16500000000E+002,  0.00000000000E+000,  0.10000000000E+001
  0.94939600000E+005,  0.45358991034E+006,  0.16500000000E+002,  0.00000000000E+000,  0.10000000000E+001
  0.94940700000E+005,  0.45358991027E+006,  0.16500000000E+002,  0.00000000000E+000,  0.10000000000E+001
  0.94941700000E+005,  0.45358991021E+006,  0.16500000000E+002,  0.00000000000E+000,  0.10000000000E+001
  0.94942900000E+005,  0.45358991013E+006,  0.16500000000E+002,  0.00000000000E+000,  0.10000000000E+001
  0.94944100000E+005,  0.45358991005E+006,  0.16500000000E+002,  0.00000000000E+000,  0.10000000000E+001
  0.94945300000E+005,  0.45358990998E+006,  0.16500000000E+002,  0.00000000000E+000,  0.10000000000E+001
  0.94946500000E+005,  0.45358990990E+006,  0.16500000000E+002,  0.00000000000E+000,  0.10000000000E+001
  0.94947700000E+005,  0.45358990983E+006,  0.16500000000E+002,  0.00000000000E+000,  0.10000000000E+001
  0.94948900000E+005,  0.45358990975E+006,  0.16500000000E+002,  0.00000000000E+000,  0.10000000000E+001
  0.94950100000E+005,  0.45358990967E+006,  0.16500000000E+002,  0.00000000000E+000,  0.10000000000E+001
  0.94951300000E+005,  0.45358990960E+006,  0.16500000000E+002,  0.00000000000E+000,  0.10000000000E+001
  0.94952500000E+005,  0.45358990952E+006,  0.16500000000E+002,  0.00000000000E+000,  0.10000000000E+001
  0.94953700000E+005,  0.45358990944E+006,  0.16500000000E+002,  0.00000000000E+000,  0.10000000000E+001
  0.94954900000E+005,  0.45358990937E+006,  0.16500000000E+002,  0.00000000000E+000,  0.10000000000E+001
  0.94956100000E+005,  0.45358990929E+006,  0.16500000000E+002,  0.00000000000E+000,  0.10000000000E+001
  0.94957300000E+005,  0.45358990921E+006,  0.16500000000E+002,  0.00000000000E+000,  0.10000000000E+001
  0.94958500000E+005,  0.45358990914E+006,  0.16500000000E+002,  0.00000000000E+000,  0.10000000000E+001
  0.94959700000E+005,  0.45358990906E+006,  0.16500000000E+002,  0.00000000000E+000,  0.10000000000E+001
  0.94960900000E+005,  0.45358990899E+006,  0.16500000000E+002,  0.00000000000E+000,  0.10000000000E+001
  0.94962100000E+005,  0.45358990891E+006,  0.16500000000E+002,  0.00000000000E+000,  0.10000000000E+001
  0.94963300000E+005,  0.45358990883E+006,  0.16500000000E+002,  0.00000000000E+000,  0.10000000000E+001
  0.94964500000E+005,  0.45358990876E+006,  0.16500000000E+002,  0.00000000000E+000,  0.10000000000E+001
  0.94965700000E+005,  0.45358990868E+006,  0.16500000000E+002,  0.00000000000E+000,  0.10000000000E+001
  0.94966900000E+005,  0.45358990861E+006,  0.16500000000E+002,  0.00000000000E+000,  0.10000000000E+001
  0.94968100000E+005,  0.45358990853E+006,  0.16500000000E+002,  0.00000000000E+000,  0.10000000000E+001
  0.94969300000E+005,  0.45358990846E+006,  0.16500000000E+002,  0.00000000000E+000,  0.10000000000E+001
  0.94970500000E+005,  0.45358990838E+006,  0.16500000000E+002,  0.00000000000E+000,  0.10000000000E+001
  0.94971700000E+005,  0.45358990831E+006,  0.16500000000E+002,  0.00000000000E+000,  0.10000000000E+001
  0.94972900000E+005,  0.45358990824E+006,  0.16500000000E+002,  0.00000000000E+000,  0.10000000000E+001
  0.94974100000E+005,  0.45358990816E+006,  0.16500000000E+002,  0.00000000000E+000,  0.10000000000E+001
  0.94975300000E+005,  0.45358990809E+006,  0.16500000000E+002,  0.00000000000E+000,  0.10000000000E+001
  0.94976500000E+005,  0.45358990802E+006,  0.16500000000E+002,  0.00000000000E+000,  0.10000000000E+001
  0.94977700000E+005,  0.45358990794E+006,  0.16500000000E+002,  0.00000000000E+000,  0.10000000000E+001
  0.94978900000E+005,  0.45358990787E+006,  0.16500000000E+002,  0.00000000000E+000,  0.10000000000E+001
  0.94980100000E+005,  0.45358990780E+006,  0.16500000000E+002,  0.00000000000E+000,  0.10000000000E+001
  0.94981300000E+005,  0.45358990773E+006,  0.16500000000E+002,  0.00000000000E+000,  0.10000000000E+001
  0.94982500000E+005,  0.45358990766E+006,  0.16500000000E+002,  0.00000000000E+000,  0.10000000000E+001
  0.94983700000E+005,  0.45358990758E+006,  0.16500000000E+002,  0.00000000000E+000,  0.10000000000E+001
  0.94984900000E+005,  0.45358990751E+006,  0.16500000000E+002,  0.00000000000E+000,  0.10000000000E+001
  0.94986100000E+005,  0.45358990744E+006,  0.16500000000E+002,  0.00000000000E+000,  0.10000000000E+001
  0.94987300000E+005,  0.45358990737E+006,  0.16500000000E+002,  0.00000000000E+000,  0.10000000000E+001
  0.94988500000E+005,  0.45358990731E+006,  0.16500000000E+002,  0.00000000000E+000,  0.10000000000E+001
  0.94989700000E+005,  0.45358990724E+006,  0.16500000000E+002,  0.00000000000E+000,  0.10000000000E+001
  0.94990900000E+005,  0.45358990717E+006,  0.16500000000E+002,  0.00000000000E+000,  0.10000000000E+001
  0.94992100000E+005,  0.45358990710E+006,  0.16500000000E+002,  0.00000000000E+000,  0.10000000000E+001
  0.94993300000E+005,  0.45358990704E+006,  0.16500000000E+002,  0.00000000000E+000,  0.10000000000E+001
  0.94994500000E+005,  0.45358990697E+006,  0.16500000000E+002,  0.00000000000E+000,  0.10000000000E+001
  0.94995700000E+005,  0.45358990691E+006,  0.16500000000E+002,  0.00000000000E+000,  0.10000000000E+001
  0.94996900000E+005,  0.45358990684E+006,  0.16500000000E+002,  0.00000000000E+000,  0.10000000000E+001
  0.94998100000E+005,  0.45358990678E+006,  0.16500000000E+002,  0.00000000000E+000,  0.10000000000E+001
  0.94999300000E+005,  0.45358990672E+006,  0.16500000000E+002,  0.00000000000E+000,  0.10000000000E+001
  0.95000500000E+005,  0.45358990666E+006,  0.16500000000E+002,  0.00000000000E+000,  0.10000000000E+001
  0.95001700000E+005,  0.45358990660E+006,  0.16500000000E+002,  0.00000000000E+000,  0.10000000000E+001
  0.95002900000E+005,  0.45358990654E+006,  0.16500000000E+002,  0.00000000000E+000,  0.10000000000E+001
  0.95004100000E+005,  0.45358990648E+006,  0.16500000000E+002,  0.00000000000E+000,  0.10000000000E+001
  0.95005300000E+005,  0.45358990643E+006,  0.16500000000E+002,  0.00000000000E+000,  0.10000000000E+001
  0.95006500000E+005,  0.45358990637E+006,  0.16500000000E+002,  0.00000000000E+000,  0.10000000000E+001
  0.95007700000E+005,  0.45358990632E+006,  0.16500000000E+002,  0.00000000000E+000,  0.10000000000E+001
  0.95008900000E+005,  0.45358990627E+006,  0.16500000000E+002,  0.00000000000E+000,  0.10000000000E+001
  0.95010100000E+005,  0.45358990622E+006,  0.16500000000E+002,  0.00000000000E+000,  0.10000000000E+001
  0.95011300000E+005,  0.45358990618E+006,  0.16500000000E+002,  0.00000000000E+000,  0.10000000000E+001
  0.95012500000E+005,  0.45358990613E+006,  0.16500000000E+002,  0.00000000000E+000,  0.10000000000E+001
  0.95013700000E+005,  0.45358990609E+006,  0.16500000000E+002,  0.00000000000E+000,  0.10000000000E+001
  0.95014900000E+005,  0.45358990605E+006,  0.16500000000E+002,  0.00000000000E+000,  0.10000000000E+001
  0.95016100000E+005,  0.45358990602E+006,  0.16500000000E+002,  0.00000000000E+000,  0.10000000000E+001
  0.95017300000E+005,  0.45358990599E+006,  0.16500000000E+002,  0.00000000000E+000,  0.10000000000E+001
  0.95018500000E+005,  0.45358990596E+006,  0.16500000000E+002,  0.00000000000E+000,  0.10000000000E+001
  0.95019700000E+005,  0.45358990594E+006,  0.16500000000E+002,  0.00000000000E+000,  0.10000000000E+001
  0.95020900000E+005,  0.45358990592E+006,  0.16500000000E+002,  0.00000000000E+000,  0.10000000000E+001
  0.95022100000E+005,  0.45358990590E+006,  0.16500000000E+002,  0.00000000000E+000,  0.10000000000E+001
  0.95023300000E+005,  0.45358990589E+006,  0.16500000000E+002,  0.00000000000E+000,  0.10000000000E+001
  0.95024500000E+005,  0.45358990588E+006,  0.16500000000E+002,  0.00000000000E+000,  0.10000000000E+001
  0.95025700000E+005,  0.45358990588E+006,  0.16500000000E+002,  0.00000000000E+000,  0.10000000000E+001
  0.95026900000E+005,  0.45358990589E+006,  0.16500000000E+002,  0.00000000000E+000,  0.10000000000E+001
  0.95028100000E+005,  0.45358990590E+006,  0.16500000000E+002,  0.00000000000E+000,  0.10000000000E+001
  0.95029300000E+005,  0.45358990592E+006,  0.16500000000E+002,  0.00000000000E+000,  0.10000000000E+001
  0.95030500000E+005,  0.45358990595E+006,  0.16500000000E+002,  0.00000000000E+000,  0.10000000000E+001
  0.95031700000E+005,  0.45358990598E+006,  0.16500000000E+002,  0.00000000000E+000,  0.10000000000E+001
  0.95032900000E+005,  0.45358990603E+006,  0.16500000000E+002,  0.00000000000E+000,  0.10000000000E+001
  0.95034100000E+005,  0.45358990608E+006,  0.16500000000E+002,  0.00000000000E+000,  0.10000000000E+001
  0.95035300000E+005,  0.45358990614E+006,  0.16500000000E+002,  0.00000000000E+000,  0.10000000000E+001
  0.95036500000E+005,  0.45358990622E+006,  0.16500000000E+002,  0.00000000000E+000,  0.10000000000E+001
  0.95037700000E+005,  0.45358990630E+006,  0.16500000000E+002,  0.00000000000E+000,  0.10000000000E+001
  0.95038900000E+005,  0.45358990640E+006,  0.16500000000E+002,  0.00000000000E+000,  0.10000000000E+001
  0.95040100000E+005,  0.45358990651E+006,  0.16500000000E+002,  0.00000000000E+000,  0.10000000000E+001
  0.95041300000E+005,  0.45358990663E+006,  0.16500000000E+002,  0.00000000000E+000,  0.10000000000E+001
  0.95042500000E+005,  0.45358990677E+006,  0.16500000000E+002,  0.00000000000E+000,  0.10000000000E+001
  0.95043700000E+005,  0.45358990693E+006,  0.16500000000E+002,  0.00000000000E+000,  0.10000000000E+001
  0.95044900000E+005,  0.45358990710E+006,  0.16500000000E+002,  0.00000000000E+000,  0.10000000000E+001
  0.95046100000E+005,  0.45358990729E+006,  0.16500000000E+002,  0.00000000000E+000,  0.10000000000E+001
  0.95047300000E+005,  0.45358990750E+006,  0.16500000000E+002,  0.00000000000E+000,  0.10000000000E+001
  0.95048500000E+005,  0.45358990773E+006,  0.16500000000E+002,  0.00000000000E+000,  0.10000000000E+001
  0.95049700000E+005,  0.45358990799E+006,  0.16500000000E+002,  0.00000000000E+000,  0.10000000000E+001
  0.95050900000E+005,  0.45358990826E+006,  0.16500000000E+002,  0.00000000000E+000,  0.10000000000E+001
  0.95052100000E+005,  0.45358990856E+006,  0.16500000000E+002,  0.00000000000E+000,  0.10000000000E+001
  0.95053300000E+005,  0.45358990889E+006,  0.16500000000E+002,  0.00000000000E+000,  0.10000000000E+001
  0.95054500000E+005,  0.45358990925E+006,  0.16500000000E+002,  0.00000000000E+000,  0.10000000000E+001
  0.95055700000E+005,  0.45358990964E+006,  0.16500000000E+002,  0.00000000000E+000,  0.10000000000E+001
  0.95056900000E+005,  0.45358991006E+006,  0.16500000000E+002,  0.00000000000E+000,  0.10000000000E+001
  0.95058100000E+005,  0.45358991051E+006,  0.16500000000E+002,  0.00000000000E+000,  0.10000000000E+001
  0.95059300000E+005,  0.45358991100E+006,  0.16500000000E+002,  0.00000000000E+000,  0.10000000000E+001
  0.95060500000E+005,  0.45358991153E+006,  0.16500000000E+002,  0.00000000000E+000,  0.10000000000E+001
  0.95061700000E+005,  0.45358991209E+006,  0.16500000000E+002,  0.00000000000E+000,  0.10000000000E+001
