"           TIME(S)","              PRES","              TEMP","             SAT_G","             SAT_L"
  0.94881000000E+005,  0.49931369016E+006,  0.16500000000E+002,  0.00000000000E+000,  0.10000000000E+001
  0.94882000000E+005,  0.60048899358E+006,  0.16500000000E+002,  0.00000000000E+000,  0.10000000000E+001
  0.94883000000E+005,  0.82905921993E+006,  0.16500000000E+002,  0.00000000000E+000,  0.10000000000E+001
  0.94884000000E+005,  0.10544470633E+007,  0.16500000000E+002,  0.00000000000E+000,  0.10000000000E+001
  0.94885000000E+005,  0.12763298125E+007,  0.16500000000E+002,  0.00000000000E+000,  0.10000000000E+001
  0.94886000000E+005,  0.14948770107E+007,  0.16500000000E+002,  0.00000000000E+000,  0.10000000000E+001
  0.94887000000E+005,  0.17099403656E+007,  0.16500000000E+002,  0.00000000000E+000,  0.10000000000E+001
  0.94888000000E+005,  0.19212675871E+007,  0.16500000000E+002,  0.00000000000E+000,  0.10000000000E+001
  0.94889000000E+005,  0.21285687396E+007,  0.16500000000E+002,  0.00000000000E+000,  0.10000000000E+001
  0.94890000000E+005,  0.23314814008E+007,  0.16500000000E+002,  0.00000000000E+000,  0.10000000000E+001
  0.94891000000E+005,  0.25297050978E+007,  0.16500000000E+002,  0.00000000000E+000,  0.10000000000E+001
  0.94892000000E+005,  0.27229947220E+007,  0.16500000000E+002,  0.00000000000E+000,  0.10000000000E+001
  0.94893000000E+005,  0.29109712539E+007,  0.16500000000E+002,  0.00000000000E+000,  0.10000000000E+001
  0.94894000000E+005,  0.30933573921E+007,  0.16500000000E+002,  0.00000000000E+000,  0.10000000000E+001
  0.94895000000E+005,  0.32699424822E+007,  0.16500000000E+002,  0.00000000000E+000,  0.10000000000E+001
  0.94896000000E+005,  0.34405083299E+007,  0.16500000000E+002,  0.00000000000E+000,  0.10000000000E+001
  0.94897000000E+005,  0.36047881594E+007,  0.16500000000E+002,  0.00000000000E+000,  0.10000000000E+001
  0.94898000000E+005,  0.37622459589E+007,  0.16500000000E+002,  0.00000000000E+000,  0.10000000000E+001
  0.94899000000E+005,  0.39122699762E+007,  0.16500000000E+002,  0.00000000000E+000,  0.10000000000E+001
  0.94900000000E+005,  0.40539729535E+007,  0.16500000000E+002,  0.00000000000E+000,  0.10000000000E+001
  0.94901000000E+005,  0.41866102482E+007,  0.16500000000E+002,  0.00000000000E+000,  0.10000000000E+001
  0.94902000000E+005,  0.43092359789E+007,  0.16500000000E+002,  0.00000000000E+000,  0.10000000000E+001
  0.94903000000E+005,  0.44218010733E+007,  0.16500000000E+002,  0.00000000000E+000,  0.10000000000E+001
  0.94904000000E+005,  0.45251807303E+007,  0.16500000000E+002,  0.00000000000E+000,  0.10000000000E+001
  0.94905000000E+005,  0.46202671651E+007,  0.16500000000E+002,  0.00000000000E+000,  0.10000000000E+001
  0.94906000000E+005,  0.47077380095E+007,  0.16500000000E+002,  0.00000000000E+000,  0.10000000000E+001
  0.94907000000E+005,  0.47886993565E+007,  0.16500000000E+002,  0.00000000000E+000,  0.10000000000E+001
  0.94908000000E+005,  0.48573848996E+007,  0.16500000000E+002,  0.00000000000E+000,  0.10000000000E+001
  0.94909000000E+005,  0.49288238774E+007,  0.16500000000E+002,  0.00000000000E+000,  0.10000000000E+001
  0.94910000000E+005,  0.49978635062E+007,  0.16500000000E+002,  0.00000000000E+000,  0.10000000000E+001
  0.94911000000E+005,  0.50589737279E+007,  0.16500000000E+002,  0.00000000000E+000,  0.10000000000E+001
  0.94912000000E+005,  0.51182274714E+007,  0.16500000000E+002,  0.00000000000E+000,  0.10000000000E+001
  0.94913000000E+005,  0.51811813444E+007,  0.16500000000E+002,  0.00000000000E+000,  0.10000000000E+001
  0.94914000000E+005,  0.52374590115E+007,  0.16500000000E+002,  0.00000000000E+000,  0.10000000000E+001
  0.94915000000E+005,  0.52930246468E+007,  0.16500000000E+002,  0.00000000000E+000,  0.10000000000E+001
  0.94916000000E+005,  0.54149131383E+007,  0.16500000000E+002,  0.00000000000E+000,  0.10000000000E+001
  0.94917000000E+005,  0.55585379882E+007,  0.16500000000E+002,  0.00000000000E+000,  0.10000000000E+001
  0.94918000000E+005,  0.55786337569E+007,  0.16500000000E+002,  0.00000000000E+000,  0.10000000000E+001
  0.94919000000E+005,  0.55974176170E+007,  0.16500000000E+002,  0.00000000000E+000,  0.10000000000E+001
