"           TIME(S)","              PRES","              TEMP","             SAT_G","             SAT_L"
  0.94881000000E+005,  0.47882143832E+006,  0.16500000000E+002,  0.00000000000E+000,  0.10000000000E+001
  0.94882100000E+005,  0.20078725943E+007,  0.16500000000E+002,  0.00000000000E+000,  0.10000000000E+001
  0.94883200000E+005,  0.51162348732E+007,  0.16500000000E+002,  0.00000000000E+000,  0.10000000000E+001
  0.94884300000E+005,  0.82143315464E+007,  0.16500000000E+002,  0.00000000000E+000,  0.10000000000E+001
  0.94885400000E+005,  0.11301569841E+008,  0.16500000000E+002,  0.00000000000E+000,  0.10000000000E+001
  0.94886500000E+005,  0.14377901248E+008,  0.16500000000E+002,  0.00000000000E+000,  0.10000000000E+001
  0.94887600000E+005,  0.17443546657E+008,  0.16500000000E+002,  0.00000000000E+000,  0.10000000000E+001
  0.94888700000E+005,  0.20498742391E+008,  0.16500000000E+002,  0.00000000000E+000,  0.10000000000E+001
  0.94889800000E+005,  0.23543647424E+008,  0.16500000000E+002,  0.00000000000E+000,  0.10000000000E+001
  0.94890900000E+005,  0.26578358640E+008,  0.16500000000E+002,  0.00000000000E+000,  0.10000000000E+001
  0.94892000000E+005,  0.29602933275E+008,  0.16500000000E+002,  0.00000000000E+000,  0.10000000000E+001
  0.94893100000E+005,  0.32617408976E+008,  0.16500000000E+002,  0.00000000000E+000,  0.10000000000E+001
  0.94894200000E+005,  0.35621813776E+008,  0.16500000000E+002,  0.00000000000E+000,  0.10000000000E+001
  0.94895300000E+005,  0.38616171939E+008,  0.16500000000E+002,  0.00000000000E+000,  0.10000000000E+001
  0.94896400000E+005,  0.41600502140E+008,  0.16500000000E+002,  0.00000000000E+000,  0.10000000000E+001
  0.94897500000E+005,  0.44574820731E+008,  0.16500000000E+002,  0.00000000000E+000,  0.10000000000E+001
  0.94898600000E+005,  0.47539140724E+008,  0.16500000000E+002,  0.00000000000E+000,  0.10000000000E+001
  0.94899700000E+005,  0.50493470011E+008,  0.16500000000E+002,  0.00000000000E+000,  0.10000000000E+001
  0.94900800000E+005,  0.53437819250E+008,  0.16500000000E+002,  0.00000000000E+000,  0.10000000000E+001
  0.94901900000E+005,  0.56372196596E+008,  0.16500000000E+002,  0.00000000000E+000,  0.10000000000E+001
  0.94903000000E+005,  0.59296607418E+008,  0.16500000000E+002,  0.00000000000E+000,  0.10000000000E+001
  0.94904100000E+005,  0.62211048054E+008,  0.16500000000E+002,  0.00000000000E+000,  0.10000000000E+001
  0.94905200000E+005,  0.65115516130E+008,  0.16500000000E+002,  0.00000000000E+000,  0.10000000000E+001
  0.94906300000E+005,  0.68010003552E+008,  0.16500000000E+002,  0.00000000000E+000,  0.10000000000E+001
  0.94907400000E+005,  0.70894503886E+008,  0.16500000000E+002,  0.00000000000E+000,  0.10000000000E+001
  0.94908500000E+005,  0.73769001972E+008,  0.16500000000E+002,  0.00000000000E+000,  0.10000000000E+001
  0.94909600000E+005,  0.76633482997E+008,  0.16500000000E+002,  0.00000000000E+000,  0.10000000000E+001
  0.94910700000E+005,  0.79487924979E+008,  0.16500000000E+002,  0.00000000000E+000,  0.10000000000E+001
  0.94911800000E+005,  0.82332308202E+008,  0.16500000000E+002,  0.00000000000E+000,  0.10000000000E+001
  0.94912900000E+005,  0.85173133182E+008,  0.16500000000E+002,  0.00000000000E+000,  0.10000000000E+001
  0.94914000000E+005,  0.88011197120E+008,  0.16500000000E+002,  0.00000000000E+000,  0.10000000000E+001
  0.94915100000E+005,  0.90841964793E+008,  0.16500000000E+002,  0.00000000000E+000,  0.10000000000E+001
  0.94916200000E+005,  0.95372807855E+008,  0.16500000000E+002,  0.00000000000E+000,  0.10000000000E+001
  0.94917300000E+005,  0.99346857516E+008,  0.16500000000E+002,  0.00000000000E+000,  0.10000000000E+001
  0.94917437500E+005,  0.99736076302E+008,  0.16500000000E+002,  0.00000000000E+000,  0.10000000000E+001
  0.94917523438E+005,  0.99979268185E+008,  0.16500000000E+002,  0.00000000000E+000,  0.10000000000E+001
  0.94917530151E+005,  0.99998263571E+008,  0.16500000000E+002,  0.00000000000E+000,  0.10000000000E+001
  0.94917530676E+005,  0.99999747562E+008,  0.16500000000E+002,  0.00000000000E+000,  0.10000000000E+001
  0.94917530717E+005,  0.99999863499E+008,  0.16500000000E+002,  0.00000000000E+000,  0.10000000000E+001
  0.94917530742E+005,  0.99999935959E+008,  0.16500000000E+002,  0.00000000000E+000,  0.10000000000E+001
  0.94917530758E+005,  0.99999981247E+008,  0.16500000000E+002,  0.00000000000E+000,  0.10000000000E+001
  0.94917530760E+005,  0.99999981247E+008,  0.16500000000E+002,  0.00000000000E+000,  0.10000000000E+001
  0.94917530766E+005,  0.99999981247E+008,  0.16500000000E+002,  0.00000000000E+000,  0.10000000000E+001
  0.94917530770E+005,  0.99999981247E+008,  0.16500000000E+002,  0.00000000000E+000,  0.10000000000E+001
