"           TIME(S)","              PRES","              TEMP","             SAT_G","             SAT_L"
  0.94881000000E+005,  0.47500077279E+006,  0.16500000000E+002,  0.00000000000E+000,  0.10000000000E+001
  0.94884000000E+005,  0.47500077278E+006,  0.16500000000E+002,  0.00000000000E+000,  0.10000000000E+001
  0.94885000000E+005,  0.47500077278E+006,  0.16500000000E+002,  0.00000000000E+000,  0.10000000000E+001
  0.94888000000E+005,  0.47500077278E+006,  0.16500000000E+002,  0.00000000000E+000,  0.10000000000E+001
  0.94890000000E+005,  0.47500077278E+006,  0.16500000000E+002,  0.00000000000E+000,  0.10000000000E+001
  0.94893000000E+005,  0.47500077277E+006,  0.16500000000E+002,  0.00000000000E+000,  0.10000000000E+001
  0.94895000000E+005,  0.47500077277E+006,  0.16500000000E+002,  0.00000000000E+000,  0.10000000000E+001
  0.94898000000E+005,  0.47500077277E+006,  0.16500000000E+002,  0.00000000000E+000,  0.10000000000E+001
  0.94900000000E+005,  0.47500077277E+006,  0.16500000000E+002,  0.00000000000E+000,  0.10000000000E+001
  0.94901000000E+005,  0.47500077277E+006,  0.16500000000E+002,  0.00000000000E+000,  0.10000000000E+001
  0.94905000000E+005,  0.47500077276E+006,  0.16500000000E+002,  0.00000000000E+000,  0.10000000000E+001
  0.94911000000E+005,  0.47500077276E+006,  0.16500000000E+002,  0.00000000000E+000,  0.10000000000E+001
  0.94921000000E+005,  0.47500077275E+006,  0.16500000000E+002,  0.00000000000E+000,  0.10000000000E+001
  0.94931000000E+005,  0.47500077273E+006,  0.16500000000E+002,  0.00000000000E+000,  0.10000000000E+001
  0.94941000000E+005,  0.47500077273E+006,  0.16500000000E+002,  0.00000000000E+000,  0.10000000000E+001
  0.94951000000E+005,  0.47500077272E+006,  0.16500000000E+002,  0.00000000000E+000,  0.10000000000E+001
  0.94961000000E+005,  0.47500077271E+006,  0.16500000000E+002,  0.00000000000E+000,  0.10000000000E+001
  0.94971000000E+005,  0.47500077271E+006,  0.16500000000E+002,  0.00000000000E+000,  0.10000000000E+001
  0.94981000000E+005,  0.47500077272E+006,  0.16500000000E+002,  0.00000000000E+000,  0.10000000000E+001
  0.94991000000E+005,  0.47500077275E+006,  0.16500000000E+002,  0.00000000000E+000,  0.10000000000E+001
  0.95001000000E+005,  0.47500077284E+006,  0.16500000000E+002,  0.00000000000E+000,  0.10000000000E+001
  0.95011000000E+005,  0.47500077300E+006,  0.16500000000E+002,  0.00000000000E+000,  0.10000000000E+001
  0.95021000000E+005,  0.47500077332E+006,  0.16500000000E+002,  0.00000000000E+000,  0.10000000000E+001
  0.95031000000E+005,  0.47500077388E+006,  0.16500000000E+002,  0.00000000000E+000,  0.10000000000E+001
  0.95041000000E+005,  0.47500077483E+006,  0.16500000000E+002,  0.00000000000E+000,  0.10000000000E+001
  0.95051000000E+005,  0.47500077637E+006,  0.16500000000E+002,  0.00000000000E+000,  0.10000000000E+001
  0.95061000000E+005,  0.47500077882E+006,  0.16500000000E+002,  0.00000000000E+000,  0.10000000000E+001
  0.95071000000E+005,  0.47500078257E+006,  0.16500000000E+002,  0.00000000000E+000,  0.10000000000E+001
  0.95081000000E+005,  0.47500078821E+006,  0.16500000000E+002,  0.00000000000E+000,  0.10000000000E+001
  0.95091000000E+005,  0.47500079648E+006,  0.16500000000E+002,  0.00000000000E+000,  0.10000000000E+001
  0.95101000000E+005,  0.47500080839E+006,  0.16500000000E+002,  0.00000000000E+000,  0.10000000000E+001
  0.95111000000E+005,  0.47500082524E+006,  0.16500000000E+002,  0.00000000000E+000,  0.10000000000E+001
  0.95121000000E+005,  0.47500084871E+006,  0.16500000000E+002,  0.00000000000E+000,  0.10000000000E+001
  0.95131000000E+005,  0.47500088095E+006,  0.16500000000E+002,  0.00000000000E+000,  0.10000000000E+001
  0.95141000000E+005,  0.47500092465E+006,  0.16500000000E+002,  0.00000000000E+000,  0.10000000000E+001
  0.95151000000E+005,  0.47500098320E+006,  0.16500000000E+002,  0.00000000000E+000,  0.10000000000E+001
  0.95161000000E+005,  0.47500106080E+006,  0.16500000000E+002,  0.00000000000E+000,  0.10000000000E+001
  0.95171000000E+005,  0.47500116267E+006,  0.16500000000E+002,  0.00000000000E+000,  0.10000000000E+001
  0.95181000000E+005,  0.47500129520E+006,  0.16500000000E+002,  0.00000000000E+000,  0.10000000000E+001
  0.95191000000E+005,  0.47500146625E+006,  0.16500000000E+002,  0.00000000000E+000,  0.10000000000E+001
  0.95201000000E+005,  0.47500168536E+006,  0.16500000000E+002,  0.00000000000E+000,  0.10000000000E+001
  0.95211000000E+005,  0.47500196417E+006,  0.16500000000E+002,  0.00000000000E+000,  0.10000000000E+001
  0.95221000000E+005,  0.47500231679E+006,  0.16500000000E+002,  0.00000000000E+000,  0.10000000000E+001
  0.95231000000E+005,  0.47500276028E+006,  0.16500000000E+002,  0.00000000000E+000,  0.10000000000E+001
  0.95241000000E+005,  0.47500331524E+006,  0.16500000000E+002,  0.00000000000E+000,  0.10000000000E+001
  0.95251000000E+005,  0.47500400649E+006,  0.16500000000E+002,  0.00000000000E+000,  0.10000000000E+001
  0.95261000000E+005,  0.47500486391E+006,  0.16500000000E+002,  0.00000000000E+000,  0.10000000000E+001
  0.95271000000E+005,  0.47500592339E+006,  0.16500000000E+002,  0.00000000000E+000,  0.10000000000E+001
  0.95281000000E+005,  0.47500722801E+006,  0.16500000000E+002,  0.00000000000E+000,  0.10000000000E+001
  0.95291000000E+005,  0.47500882946E+006,  0.16500000000E+002,  0.00000000000E+000,  0.10000000000E+001
  0.95301000000E+005,  0.47501078964E+006,  0.16500000000E+002,  0.00000000000E+000,  0.10000000000E+001
  0.95311000000E+005,  0.47501318267E+006,  0.16500000000E+002,  0.00000000000E+000,  0.10000000000E+001
  0.95321000000E+005,  0.47501609727E+006,  0.16500000000E+002,  0.00000000000E+000,  0.10000000000E+001
  0.95331000000E+005,  0.47501963958E+006,  0.16500000000E+002,  0.00000000000E+000,  0.10000000000E+001
  0.95341000000E+005,  0.47502393656E+006,  0.16500000000E+002,  0.00000000000E+000,  0.10000000000E+001
  0.95351000000E+005,  0.47502914007E+006,  0.16500000000E+002,  0.00000000000E+000,  0.10000000000E+001
  0.95361000000E+005,  0.47503543180E+006,  0.16500000000E+002,  0.00000000000E+000,  0.10000000000E+001
  0.95371000000E+005,  0.47504302923E+006,  0.16500000000E+002,  0.00000000000E+000,  0.10000000000E+001
  0.95381000000E+005,  0.47505219276E+006,  0.16500000000E+002,  0.00000000000E+000,  0.10000000000E+001
  0.95391000000E+005,  0.47506323439E+006,  0.16500000000E+002,  0.00000000000E+000,  0.10000000000E+001
  0.95401000000E+005,  0.47507652821E+006,  0.16500000000E+002,  0.00000000000E+000,  0.10000000000E+001
  0.95411000000E+005,  0.47509252338E+006,  0.16500000000E+002,  0.00000000000E+000,  0.10000000000E+001
  0.95421000000E+005,  0.47511175944E+006,  0.16500000000E+002,  0.00000000000E+000,  0.10000000000E+001
  0.95431000000E+005,  0.47513488543E+006,  0.16500000000E+002,  0.00000000000E+000,  0.10000000000E+001
  0.95441000000E+005,  0.47516268243E+006,  0.16500000000E+002,  0.00000000000E+000,  0.10000000000E+001
  0.95451000000E+005,  0.47519609168E+006,  0.16500000000E+002,  0.00000000000E+000,  0.10000000000E+001
  0.95461000000E+005,  0.47523624801E+006,  0.16500000000E+002,  0.00000000000E+000,  0.10000000000E+001
  0.95471000000E+005,  0.47528452008E+006,  0.16500000000E+002,  0.00000000000E+000,  0.10000000000E+001
  0.95481000000E+005,  0.47534255917E+006,  0.16500000000E+002,  0.00000000000E+000,  0.10000000000E+001
  0.95491000000E+005,  0.47541235721E+006,  0.16500000000E+002,  0.00000000000E+000,  0.10000000000E+001
  0.95501000000E+005,  0.47549631575E+006,  0.16500000000E+002,  0.00000000000E+000,  0.10000000000E+001
  0.95511000000E+005,  0.47559732705E+006,  0.16500000000E+002,  0.00000000000E+000,  0.10000000000E+001
  0.95521000000E+005,  0.47571886872E+006,  0.16500000000E+002,  0.00000000000E+000,  0.10000000000E+001
  0.95531000000E+005,  0.47586511341E+006,  0.16500000000E+002,  0.00000000000E+000,  0.10000000000E+001
  0.95541000000E+005,  0.47604105418E+006,  0.16500000000E+002,  0.00000000000E+000,  0.10000000000E+001
  0.95551000000E+005,  0.47625264422E+006,  0.16500000000E+002,  0.00000000000E+000,  0.10000000000E+001
  0.95561000000E+005,  0.47650695471E+006,  0.16500000000E+002,  0.00000000000E+000,  0.10000000000E+001
  0.95571000000E+005,  0.47681234445E+006,  0.16500000000E+002,  0.00000000000E+000,  0.10000000000E+001
  0.95581000000E+005,  0.47717864326E+006,  0.16500000000E+002,  0.00000000000E+000,  0.10000000000E+001
  0.95591000000E+005,  0.47761734474E+006,  0.16500000000E+002,  0.00000000000E+000,  0.10000000000E+001
  0.95601000000E+005,  0.47814180297E+006,  0.16500000000E+002,  0.00000000000E+000,  0.10000000000E+001
  0.95611000000E+005,  0.47876743181E+006,  0.16500000000E+002,  0.00000000000E+000,  0.10000000000E+001
  0.95621000000E+005,  0.47951189368E+006,  0.16500000000E+002,  0.00000000000E+000,  0.10000000000E+001
  0.95631000000E+005,  0.48039524992E+006,  0.16500000000E+002,  0.00000000000E+000,  0.10000000000E+001
  0.95641000000E+005,  0.48144024974E+006,  0.16500000000E+002,  0.00000000000E+000,  0.10000000000E+001
  0.95651000000E+005,  0.48267243873E+006,  0.16500000000E+002,  0.00000000000E+000,  0.10000000000E+001
  0.95661000000E+005,  0.48412022451E+006,  0.16500000000E+002,  0.00000000000E+000,  0.10000000000E+001
  0.95671000000E+005,  0.48581486277E+006,  0.16500000000E+002,  0.00000000000E+000,  0.10000000000E+001
  0.95681000000E+005,  0.48779051778E+006,  0.16500000000E+002,  0.00000000000E+000,  0.10000000000E+001
  0.95691000000E+005,  0.49008419747E+006,  0.16500000000E+002,  0.00000000000E+000,  0.10000000000E+001
  0.95701000000E+005,  0.49273565651E+006,  0.16500000000E+002,  0.00000000000E+000,  0.10000000000E+001
  0.95711000000E+005,  0.49578720058E+006,  0.16500000000E+002,  0.00000000000E+000,  0.10000000000E+001
  0.95721000000E+005,  0.49928349574E+006,  0.16500000000E+002,  0.00000000000E+000,  0.10000000000E+001
  0.95731000000E+005,  0.50327135783E+006,  0.16500000000E+002,  0.00000000000E+000,  0.10000000000E+001
  0.95741000000E+005,  0.50779949312E+006,  0.16500000000E+002,  0.00000000000E+000,  0.10000000000E+001
  0.95751000000E+005,  0.51291804995E+006,  0.16500000000E+002,  0.00000000000E+000,  0.10000000000E+001
  0.95761000000E+005,  0.51867838966E+006,  0.16500000000E+002,  0.00000000000E+000,  0.10000000000E+001
  0.95771000000E+005,  0.52513270813E+006,  0.16500000000E+002,  0.00000000000E+000,  0.10000000000E+001
  0.95781000000E+005,  0.53233366980E+006,  0.16500000000E+002,  0.00000000000E+000,  0.10000000000E+001
  0.95791000000E+005,  0.54033414785E+006,  0.16500000000E+002,  0.00000000000E+000,  0.10000000000E+001
  0.95801000000E+005,  0.54918690428E+006,  0.16500000000E+002,  0.00000000000E+000,  0.10000000000E+001
  0.95811000000E+005,  0.55894419692E+006,  0.16500000000E+002,  0.00000000000E+000,  0.10000000000E+001
  0.95821000000E+005,  0.56965747194E+006,  0.16500000000E+002,  0.00000000000E+000,  0.10000000000E+001
  0.95831000000E+005,  0.58137711341E+006,  0.16500000000E+002,  0.00000000000E+000,  0.10000000000E+001
  0.95841000000E+005,  0.59415204333E+006,  0.16500000000E+002,  0.00000000000E+000,  0.10000000000E+001
  0.95851000000E+005,  0.60802916738E+006,  0.16500000000E+002,  0.00000000000E+000,  0.10000000000E+001
  0.95861000000E+005,  0.62305335274E+006,  0.16500000000E+002,  0.00000000000E+000,  0.10000000000E+001
  0.95871000000E+005,  0.63926678229E+006,  0.16500000000E+002,  0.00000000000E+000,  0.10000000000E+001
  0.95881000000E+005,  0.65670846736E+006,  0.16500000000E+002,  0.00000000000E+000,  0.10000000000E+001
  0.95891000000E+005,  0.67541396559E+006,  0.16500000000E+002,  0.00000000000E+000,  0.10000000000E+001
  0.95901000000E+005,  0.69541407850E+006,  0.16500000000E+002,  0.00000000000E+000,  0.10000000000E+001
  0.95911000000E+005,  0.71673520811E+006,  0.16500000000E+002,  0.00000000000E+000,  0.10000000000E+001
  0.95921000000E+005,  0.73939875941E+006,  0.16500000000E+002,  0.00000000000E+000,  0.10000000000E+001
  0.95931000000E+005,  0.76342033636E+006,  0.16500000000E+002,  0.00000000000E+000,  0.10000000000E+001
  0.95941000000E+005,  0.78880893920E+006,  0.16500000000E+002,  0.00000000000E+000,  0.10000000000E+001
  0.95951000000E+005,  0.81556634699E+006,  0.16500000000E+002,  0.00000000000E+000,  0.10000000000E+001
  0.95961000000E+005,  0.84368614142E+006,  0.16500000000E+002,  0.00000000000E+000,  0.10000000000E+001
  0.95971000000E+005,  0.87315365852E+006,  0.16500000000E+002,  0.00000000000E+000,  0.10000000000E+001
  0.95981000000E+005,  0.90394471491E+006,  0.16500000000E+002,  0.00000000000E+000,  0.10000000000E+001
  0.95991000000E+005,  0.93602526560E+006,  0.16500000000E+002,  0.00000000000E+000,  0.10000000000E+001
  0.96001000000E+005,  0.96935158612E+006,  0.16500000000E+002,  0.00000000000E+000,  0.10000000000E+001
  0.96011000000E+005,  0.10038692013E+007,  0.16500000000E+002,  0.00000000000E+000,  0.10000000000E+001
  0.96021000000E+005,  0.10395124154E+007,  0.16500000000E+002,  0.00000000000E+000,  0.10000000000E+001
  0.96031000000E+005,  0.10762046068E+007,  0.16500000000E+002,  0.00000000000E+000,  0.10000000000E+001
  0.96041000000E+005,  0.11138588354E+007,  0.16500000000E+002,  0.00000000000E+000,  0.10000000000E+001
  0.96051000000E+005,  0.11523773873E+007,  0.16500000000E+002,  0.00000000000E+000,  0.10000000000E+001
  0.96061000000E+005,  0.11916532077E+007,  0.16500000000E+002,  0.00000000000E+000,  0.10000000000E+001
  0.96071000000E+005,  0.12315696717E+007,  0.16500000000E+002,  0.00000000000E+000,  0.10000000000E+001
  0.96081000000E+005,  0.12720043904E+007,  0.16500000000E+002,  0.00000000000E+000,  0.10000000000E+001
  0.96091000000E+005,  0.13128289183E+007,  0.16500000000E+002,  0.00000000000E+000,  0.10000000000E+001
  0.96101000000E+005,  0.13539104378E+007,  0.16500000000E+002,  0.00000000000E+000,  0.10000000000E+001
  0.96111000000E+005,  0.13951116599E+007,  0.16500000000E+002,  0.00000000000E+000,  0.10000000000E+001
  0.96121000000E+005,  0.14362940750E+007,  0.16500000000E+002,  0.00000000000E+000,  0.10000000000E+001
  0.96131000000E+005,  0.14773208791E+007,  0.16500000000E+002,  0.00000000000E+000,  0.10000000000E+001
  0.96141000000E+005,  0.15180591227E+007,  0.16500000000E+002,  0.00000000000E+000,  0.10000000000E+001
  0.96151000000E+005,  0.15583818758E+007,  0.16500000000E+002,  0.00000000000E+000,  0.10000000000E+001
  0.96161000000E+005,  0.15981696136E+007,  0.16500000000E+002,  0.00000000000E+000,  0.10000000000E+001
  0.96171000000E+005,  0.16373120434E+007,  0.16500000000E+002,  0.00000000000E+000,  0.10000000000E+001
  0.96181000000E+005,  0.16757104475E+007,  0.16500000000E+002,  0.00000000000E+000,  0.10000000000E+001
  0.96191000000E+005,  0.17132786648E+007,  0.16500000000E+002,  0.00000000000E+000,  0.10000000000E+001
  0.96201000000E+005,  0.17499429024E+007,  0.16500000000E+002,  0.00000000000E+000,  0.10000000000E+001
  0.96211000000E+005,  0.17856440092E+007,  0.16500000000E+002,  0.00000000000E+000,  0.10000000000E+001
  0.96221000000E+005,  0.18203361867E+007,  0.16500000000E+002,  0.00000000000E+000,  0.10000000000E+001
  0.96231000000E+005,  0.18539867137E+007,  0.16500000000E+002,  0.00000000000E+000,  0.10000000000E+001
  0.96241000000E+005,  0.18865765951E+007,  0.16500000000E+002,  0.00000000000E+000,  0.10000000000E+001
  0.96251000000E+005,  0.19180998434E+007,  0.16500000000E+002,  0.00000000000E+000,  0.10000000000E+001
  0.96261000000E+005,  0.19485616665E+007,  0.16500000000E+002,  0.00000000000E+000,  0.10000000000E+001
  0.96271000000E+005,  0.19779771416E+007,  0.16500000000E+002,  0.00000000000E+000,  0.10000000000E+001
  0.96281000000E+005,  0.20063699226E+007,  0.16500000000E+002,  0.00000000000E+000,  0.10000000000E+001
  0.96291000000E+005,  0.20337716841E+007,  0.16500000000E+002,  0.00000000000E+000,  0.10000000000E+001
  0.96301000000E+005,  0.20602202913E+007,  0.16500000000E+002,  0.00000000000E+000,  0.10000000000E+001
  0.96311000000E+005,  0.20857589254E+007,  0.16500000000E+002,  0.00000000000E+000,  0.10000000000E+001
  0.96321000000E+005,  0.21104342625E+007,  0.16500000000E+002,  0.00000000000E+000,  0.10000000000E+001
  0.96331000000E+005,  0.21342955126E+007,  0.16500000000E+002,  0.00000000000E+000,  0.10000000000E+001
  0.96341000000E+005,  0.21573931958E+007,  0.16500000000E+002,  0.00000000000E+000,  0.10000000000E+001
  0.96351000000E+005,  0.21797780918E+007,  0.16500000000E+002,  0.00000000000E+000,  0.10000000000E+001
  0.96361000000E+005,  0.22015001160E+007,  0.16500000000E+002,  0.00000000000E+000,  0.10000000000E+001
  0.96371000000E+005,  0.22226072987E+007,  0.16500000000E+002,  0.00000000000E+000,  0.10000000000E+001
  0.96381000000E+005,  0.22431457578E+007,  0.16500000000E+002,  0.00000000000E+000,  0.10000000000E+001
  0.96391000000E+005,  0.22631585714E+007,  0.16500000000E+002,  0.00000000000E+000,  0.10000000000E+001
  0.96401000000E+005,  0.22826853610E+007,  0.16500000000E+002,  0.00000000000E+000,  0.10000000000E+001
  0.96411000000E+005,  0.23017618681E+007,  0.16500000000E+002,  0.00000000000E+000,  0.10000000000E+001
  0.96421000000E+005,  0.23204199079E+007,  0.16500000000E+002,  0.00000000000E+000,  0.10000000000E+001
  0.96431000000E+005,  0.23386867131E+007,  0.16500000000E+002,  0.00000000000E+000,  0.10000000000E+001
  0.96441000000E+005,  0.23565855438E+007,  0.16500000000E+002,  0.00000000000E+000,  0.10000000000E+001
  0.96451000000E+005,  0.23741351496E+007,  0.16500000000E+002,  0.00000000000E+000,  0.10000000000E+001
  0.96461000000E+005,  0.23913500282E+007,  0.16500000000E+002,  0.00000000000E+000,  0.10000000000E+001
  0.96471000000E+005,  0.24082409857E+007,  0.16500000000E+002,  0.00000000000E+000,  0.10000000000E+001
  0.96481000000E+005,  0.24248170199E+007,  0.16500000000E+002,  0.00000000000E+000,  0.10000000000E+001
  0.96491000000E+005,  0.24410869527E+007,  0.16500000000E+002,  0.00000000000E+000,  0.10000000000E+001
  0.96501000000E+005,  0.24570539750E+007,  0.16500000000E+002,  0.00000000000E+000,  0.10000000000E+001
  0.96511000000E+005,  0.24727168201E+007,  0.16500000000E+002,  0.00000000000E+000,  0.10000000000E+001
  0.96521000000E+005,  0.24880716739E+007,  0.16500000000E+002,  0.00000000000E+000,  0.10000000000E+001
  0.96531000000E+005,  0.25031129713E+007,  0.16500000000E+002,  0.00000000000E+000,  0.10000000000E+001
  0.96541000000E+005,  0.25178339083E+007,  0.16500000000E+002,  0.00000000000E+000,  0.10000000000E+001
  0.96551000000E+005,  0.25322276676E+007,  0.16500000000E+002,  0.00000000000E+000,  0.10000000000E+001
  0.96561000000E+005,  0.25462869373E+007,  0.16500000000E+002,  0.00000000000E+000,  0.10000000000E+001
  0.96571000000E+005,  0.25600046249E+007,  0.16500000000E+002,  0.00000000000E+000,  0.10000000000E+001
  0.96581000000E+005,  0.25733740193E+007,  0.16500000000E+002,  0.00000000000E+000,  0.10000000000E+001
  0.96591000000E+005,  0.25863882270E+007,  0.16500000000E+002,  0.00000000000E+000,  0.10000000000E+001
  0.96601000000E+005,  0.25990394028E+007,  0.16500000000E+002,  0.00000000000E+000,  0.10000000000E+001
  0.96611000000E+005,  0.26113241491E+007,  0.16500000000E+002,  0.00000000000E+000,  0.10000000000E+001
  0.96621000000E+005,  0.26232405369E+007,  0.16500000000E+002,  0.00000000000E+000,  0.10000000000E+001
  0.96631000000E+005,  0.26347875323E+007,  0.16500000000E+002,  0.00000000000E+000,  0.10000000000E+001
  0.96641000000E+005,  0.26459648302E+007,  0.16500000000E+002,  0.00000000000E+000,  0.10000000000E+001
  0.96651000000E+005,  0.26567720807E+007,  0.16500000000E+002,  0.00000000000E+000,  0.10000000000E+001
  0.96661000000E+005,  0.26672109735E+007,  0.16500000000E+002,  0.00000000000E+000,  0.10000000000E+001
  0.96671000000E+005,  0.26772835357E+007,  0.16500000000E+002,  0.00000000000E+000,  0.10000000000E+001
  0.96681000000E+005,  0.26869929209E+007,  0.16500000000E+002,  0.00000000000E+000,  0.10000000000E+001
