"           TIME(S)","              PRES","              TEMP","             SAT_G","             SAT_L"
  0.94881000000E+005,  0.49765340215E+006,  0.16500000000E+002,  0.00000000000E+000,  0.10000000000E+001
  0.94882000000E+005,  0.59946404847E+006,  0.16500000000E+002,  0.00000000000E+000,  0.10000000000E+001
  0.94883000000E+005,  0.83005243492E+006,  0.16500000000E+002,  0.00000000000E+000,  0.10000000000E+001
  0.94884000000E+005,  0.10588030115E+007,  0.16500000000E+002,  0.00000000000E+000,  0.10000000000E+001
  0.94885000000E+005,  0.12855519012E+007,  0.16500000000E+002,  0.00000000000E+000,  0.10000000000E+001
  0.94886000000E+005,  0.15103469500E+007,  0.16500000000E+002,  0.00000000000E+000,  0.10000000000E+001
  0.94887000000E+005,  0.17331026559E+007,  0.16500000000E+002,  0.00000000000E+000,  0.10000000000E+001
  0.94888000000E+005,  0.19536938244E+007,  0.16500000000E+002,  0.00000000000E+000,  0.10000000000E+001
  0.94889000000E+005,  0.21719777362E+007,  0.16500000000E+002,  0.00000000000E+000,  0.10000000000E+001
  0.94890000000E+005,  0.23877919903E+007,  0.16500000000E+002,  0.00000000000E+000,  0.10000000000E+001
  0.94891000000E+005,  0.26009933925E+007,  0.16500000000E+002,  0.00000000000E+000,  0.10000000000E+001
  0.94892000000E+005,  0.28114176510E+007,  0.16500000000E+002,  0.00000000000E+000,  0.10000000000E+001
  0.94893000000E+005,  0.30188683222E+007,  0.16500000000E+002,  0.00000000000E+000,  0.10000000000E+001
  0.94894000000E+005,  0.32231757413E+007,  0.16500000000E+002,  0.00000000000E+000,  0.10000000000E+001
  0.94895000000E+005,  0.34242374183E+007,  0.16500000000E+002,  0.00000000000E+000,  0.10000000000E+001
  0.94896000000E+005,  0.36219530684E+007,  0.16500000000E+002,  0.00000000000E+000,  0.10000000000E+001
  0.94897000000E+005,  0.38161238094E+007,  0.16500000000E+002,  0.00000000000E+000,  0.10000000000E+001
  0.94898000000E+005,  0.40064359360E+007,  0.16500000000E+002,  0.00000000000E+000,  0.10000000000E+001
  0.94899000000E+005,  0.41924874544E+007,  0.16500000000E+002,  0.00000000000E+000,  0.10000000000E+001
  0.94900000000E+005,  0.43737934699E+007,  0.16500000000E+002,  0.00000000000E+000,  0.10000000000E+001
  0.94901000000E+005,  0.45498183907E+007,  0.16500000000E+002,  0.00000000000E+000,  0.10000000000E+001
  0.94902000000E+005,  0.47199700899E+007,  0.16500000000E+002,  0.00000000000E+000,  0.10000000000E+001
  0.94903000000E+005,  0.48835586665E+007,  0.16500000000E+002,  0.00000000000E+000,  0.10000000000E+001
  0.94904000000E+005,  0.50398130247E+007,  0.16500000000E+002,  0.00000000000E+000,  0.10000000000E+001
  0.94905000000E+005,  0.51879660218E+007,  0.16500000000E+002,  0.00000000000E+000,  0.10000000000E+001
  0.94906000000E+005,  0.53270307195E+007,  0.16500000000E+002,  0.00000000000E+000,  0.10000000000E+001
  0.94907000000E+005,  0.54564874788E+007,  0.16500000000E+002,  0.00000000000E+000,  0.10000000000E+001
  0.94908000000E+005,  0.55773531695E+007,  0.16500000000E+002,  0.00000000000E+000,  0.10000000000E+001
  0.94909000000E+005,  0.56903072829E+007,  0.16500000000E+002,  0.00000000000E+000,  0.10000000000E+001
  0.94910000000E+005,  0.57701650593E+007,  0.16500000000E+002,  0.00000000000E+000,  0.10000000000E+001
  0.94911000000E+005,  0.58591941340E+007,  0.16500000000E+002,  0.00000000000E+000,  0.10000000000E+001
  0.94912000000E+005,  0.59572059330E+007,  0.16500000000E+002,  0.00000000000E+000,  0.10000000000E+001
  0.94913000000E+005,  0.60506868934E+007,  0.16500000000E+002,  0.00000000000E+000,  0.10000000000E+001
  0.94914000000E+005,  0.61319137580E+007,  0.16500000000E+002,  0.00000000000E+000,  0.10000000000E+001
  0.94915000000E+005,  0.62218655754E+007,  0.16500000000E+002,  0.00000000000E+000,  0.10000000000E+001
  0.94916000000E+005,  0.63826891854E+007,  0.16500000000E+002,  0.00000000000E+000,  0.10000000000E+001
  0.94917000000E+005,  0.65666775285E+007,  0.16500000000E+002,  0.00000000000E+000,  0.10000000000E+001
  0.94918000000E+005,  0.66424473222E+007,  0.16500000000E+002,  0.00000000000E+000,  0.10000000000E+001
  0.94919000000E+005,  0.67211841129E+007,  0.16500000000E+002,  0.00000000000E+000,  0.10000000000E+001
  0.94920000000E+005,  0.67920013727E+007,  0.16500000000E+002,  0.00000000000E+000,  0.10000000000E+001
  0.94921000000E+005,  0.68578348716E+007,  0.16500000000E+002,  0.00000000000E+000,  0.10000000000E+001
  0.94922000000E+005,  0.68870823817E+007,  0.16500000000E+002,  0.00000000000E+000,  0.10000000000E+001
  0.94923000000E+005,  0.69013894345E+007,  0.16500000000E+002,  0.00000000000E+000,  0.10000000000E+001
  0.94924000000E+005,  0.69718906182E+007,  0.16500000000E+002,  0.00000000000E+000,  0.10000000000E+001
  0.94925000000E+005,  0.70775018378E+007,  0.16500000000E+002,  0.00000000000E+000,  0.10000000000E+001
  0.94926000000E+005,  0.71309431905E+007,  0.16500000000E+002,  0.00000000000E+000,  0.10000000000E+001
  0.94927000000E+005,  0.72011756726E+007,  0.16500000000E+002,  0.00000000000E+000,  0.10000000000E+001
  0.94928000000E+005,  0.73021592706E+007,  0.16500000000E+002,  0.00000000000E+000,  0.10000000000E+001
  0.94929000000E+005,  0.74023290133E+007,  0.16500000000E+002,  0.00000000000E+000,  0.10000000000E+001
  0.94930000000E+005,  0.75516807118E+007,  0.16500000000E+002,  0.00000000000E+000,  0.10000000000E+001
  0.94931000000E+005,  0.77585746540E+007,  0.16500000000E+002,  0.00000000000E+000,  0.10000000000E+001
  0.94932000000E+005,  0.80001490273E+007,  0.16500000000E+002,  0.00000000000E+000,  0.10000000000E+001
  0.94933000000E+005,  0.82457914212E+007,  0.16500000000E+002,  0.00000000000E+000,  0.10000000000E+001
  0.94934000000E+005,  0.84492885042E+007,  0.16500000000E+002,  0.00000000000E+000,  0.10000000000E+001
  0.94935000000E+005,  0.86118857492E+007,  0.16500000000E+002,  0.00000000000E+000,  0.10000000000E+001
  0.94936000000E+005,  0.87582290325E+007,  0.16500000000E+002,  0.00000000000E+000,  0.10000000000E+001
  0.94937000000E+005,  0.88222268168E+007,  0.16500000000E+002,  0.00000000000E+000,  0.10000000000E+001
  0.94938000000E+005,  0.87779341776E+007,  0.16500000000E+002,  0.00000000000E+000,  0.10000000000E+001
  0.94939000000E+005,  0.85767638696E+007,  0.16500000000E+002,  0.00000000000E+000,  0.10000000000E+001
  0.94940000000E+005,  0.82619820605E+007,  0.16500000000E+002,  0.00000000000E+000,  0.10000000000E+001
  0.94941000000E+005,  0.78916344223E+007,  0.16500000000E+002,  0.00000000000E+000,  0.10000000000E+001
  0.94946000000E+005,  0.79620007057E+007,  0.16500000000E+002,  0.00000000000E+000,  0.10000000000E+001
  0.94958000000E+005,  0.86970408507E+007,  0.16500000000E+002,  0.00000000000E+000,  0.10000000000E+001
  0.94970000000E+005,  0.80035234364E+007,  0.16500000000E+002,  0.00000000000E+000,  0.10000000000E+001
  0.94982000000E+005,  0.79887510506E+007,  0.16500000000E+002,  0.00000000000E+000,  0.10000000000E+001
  0.94994000000E+005,  0.81126354766E+007,  0.16500000000E+002,  0.00000000000E+000,  0.10000000000E+001
  0.95006000000E+005,  0.81903392245E+007,  0.16500000000E+002,  0.00000000000E+000,  0.10000000000E+001
  0.95018000000E+005,  0.80807895015E+007,  0.16500000000E+002,  0.00000000000E+000,  0.10000000000E+001
  0.95030000000E+005,  0.77760264194E+007,  0.16500000000E+002,  0.00000000000E+000,  0.10000000000E+001
  0.95042000000E+005,  0.71878719297E+007,  0.16500000000E+002,  0.00000000000E+000,  0.10000000000E+001
  0.95054000000E+005,  0.67662613076E+007,  0.16500000000E+002,  0.00000000000E+000,  0.10000000000E+001
  0.95066000000E+005,  0.65786523694E+007,  0.16500000000E+002,  0.00000000000E+000,  0.10000000000E+001
  0.95078000000E+005,  0.64695386313E+007,  0.16500000000E+002,  0.00000000000E+000,  0.10000000000E+001
  0.95090000000E+005,  0.64831507431E+007,  0.16500000000E+002,  0.00000000000E+000,  0.10000000000E+001
  0.95102000000E+005,  0.65598642533E+007,  0.16500000000E+002,  0.00000000000E+000,  0.10000000000E+001
  0.95114000000E+005,  0.66299873015E+007,  0.16500000000E+002,  0.00000000000E+000,  0.10000000000E+001
  0.95126000000E+005,  0.66825023361E+007,  0.16500000000E+002,  0.00000000000E+000,  0.10000000000E+001
  0.95138000000E+005,  0.67241227560E+007,  0.16500000000E+002,  0.00000000000E+000,  0.10000000000E+001
  0.95150000000E+005,  0.67596150611E+007,  0.16500000000E+002,  0.00000000000E+000,  0.10000000000E+001
  0.95151000000E+005,  0.67398988619E+007,  0.16500000000E+002,  0.00000000000E+000,  0.10000000000E+001
  0.95163000000E+005,  0.67705525213E+007,  0.16500000000E+002,  0.00000000000E+000,  0.10000000000E+001
  0.95175000000E+005,  0.67581790162E+007,  0.16500000000E+002,  0.00000000000E+000,  0.10000000000E+001
  0.95187000000E+005,  0.67310126550E+007,  0.16500000000E+002,  0.00000000000E+000,  0.10000000000E+001
  0.95199000000E+005,  0.67011385436E+007,  0.16500000000E+002,  0.00000000000E+000,  0.10000000000E+001
  0.95211000000E+005,  0.66685210471E+007,  0.16500000000E+002,  0.00000000000E+000,  0.10000000000E+001
  0.95223000000E+005,  0.66456461415E+007,  0.16500000000E+002,  0.00000000000E+000,  0.10000000000E+001
  0.95235000000E+005,  0.66261113772E+007,  0.16500000000E+002,  0.00000000000E+000,  0.10000000000E+001
  0.95247000000E+005,  0.65917736525E+007,  0.16500000000E+002,  0.00000000000E+000,  0.10000000000E+001
  0.95259000000E+005,  0.65484245931E+007,  0.16500000000E+002,  0.00000000000E+000,  0.10000000000E+001
  0.95271000000E+005,  0.64998749381E+007,  0.16500000000E+002,  0.00000000000E+000,  0.10000000000E+001
  0.95283000000E+005,  0.64456077471E+007,  0.16500000000E+002,  0.00000000000E+000,  0.10000000000E+001
  0.95295000000E+005,  0.63837676753E+007,  0.16500000000E+002,  0.00000000000E+000,  0.10000000000E+001
  0.95307000000E+005,  0.63212014780E+007,  0.16500000000E+002,  0.00000000000E+000,  0.10000000000E+001
  0.95319000000E+005,  0.62718610194E+007,  0.16500000000E+002,  0.00000000000E+000,  0.10000000000E+001
  0.95331000000E+005,  0.62420018614E+007,  0.16500000000E+002,  0.00000000000E+000,  0.10000000000E+001
  0.95343000000E+005,  0.62221560648E+007,  0.16500000000E+002,  0.00000000000E+000,  0.10000000000E+001
  0.95355000000E+005,  0.61859186676E+007,  0.16500000000E+002,  0.00000000000E+000,  0.10000000000E+001
  0.95367000000E+005,  0.61551078071E+007,  0.16500000000E+002,  0.00000000000E+000,  0.10000000000E+001
  0.95379000000E+005,  0.61237134972E+007,  0.16500000000E+002,  0.00000000000E+000,  0.10000000000E+001
  0.95391000000E+005,  0.60931678205E+007,  0.16500000000E+002,  0.00000000000E+000,  0.10000000000E+001
  0.95403000000E+005,  0.60562718719E+007,  0.16500000000E+002,  0.00000000000E+000,  0.10000000000E+001
  0.95415000000E+005,  0.60222967343E+007,  0.16500000000E+002,  0.00000000000E+000,  0.10000000000E+001
  0.95427000000E+005,  0.59896156847E+007,  0.16500000000E+002,  0.00000000000E+000,  0.10000000000E+001
  0.95439000000E+005,  0.59610617851E+007,  0.16500000000E+002,  0.00000000000E+000,  0.10000000000E+001
  0.95451000000E+005,  0.59368081616E+007,  0.16500000000E+002,  0.00000000000E+000,  0.10000000000E+001
  0.95463000000E+005,  0.59160149340E+007,  0.16500000000E+002,  0.00000000000E+000,  0.10000000000E+001
  0.95475000000E+005,  0.58970435572E+007,  0.16500000000E+002,  0.00000000000E+000,  0.10000000000E+001
  0.95487000000E+005,  0.58801199425E+007,  0.16500000000E+002,  0.00000000000E+000,  0.10000000000E+001
  0.95499000000E+005,  0.58654580888E+007,  0.16500000000E+002,  0.00000000000E+000,  0.10000000000E+001
  0.95511000000E+005,  0.58546478189E+007,  0.16500000000E+002,  0.00000000000E+000,  0.10000000000E+001
  0.95523000000E+005,  0.58445617767E+007,  0.16500000000E+002,  0.00000000000E+000,  0.10000000000E+001
  0.95535000000E+005,  0.58356752857E+007,  0.16500000000E+002,  0.00000000000E+000,  0.10000000000E+001
  0.95547000000E+005,  0.58287299051E+007,  0.16500000000E+002,  0.00000000000E+000,  0.10000000000E+001
  0.95559000000E+005,  0.58274287125E+007,  0.16500000000E+002,  0.00000000000E+000,  0.10000000000E+001
  0.95571000000E+005,  0.58283310211E+007,  0.16500000000E+002,  0.00000000000E+000,  0.10000000000E+001
  0.95583000000E+005,  0.58272844538E+007,  0.16500000000E+002,  0.00000000000E+000,  0.10000000000E+001
  0.95595000000E+005,  0.57984821073E+007,  0.16500000000E+002,  0.00000000000E+000,  0.10000000000E+001
  0.95607000000E+005,  0.57947209436E+007,  0.16500000000E+002,  0.00000000000E+000,  0.10000000000E+001
  0.95619000000E+005,  0.57976420212E+007,  0.16500000000E+002,  0.00000000000E+000,  0.10000000000E+001
