"           TIME(S)","              PRES","              TEMP","             SAT_G","             SAT_L"
  0.94881000000E+005,  0.48235205431E+006,  0.16500000000E+002,  0.00000000000E+000,  0.10000000000E+001
  0.94884000000E+005,  0.48235205385E+006,  0.16500000000E+002,  0.00000000000E+000,  0.10000000000E+001
  0.94885000000E+005,  0.48235205370E+006,  0.16500000000E+002,  0.00000000000E+000,  0.10000000000E+001
  0.94888000000E+005,  0.48235205328E+006,  0.16500000000E+002,  0.00000000000E+000,  0.10000000000E+001
  0.94890000000E+005,  0.48235205302E+006,  0.16500000000E+002,  0.00000000000E+000,  0.10000000000E+001
  0.94893000000E+005,  0.48235205265E+006,  0.16500000000E+002,  0.00000000000E+000,  0.10000000000E+001
  0.94895000000E+005,  0.48235205242E+006,  0.16500000000E+002,  0.00000000000E+000,  0.10000000000E+001
  0.94898000000E+005,  0.48235205208E+006,  0.16500000000E+002,  0.00000000000E+000,  0.10000000000E+001
  0.94900000000E+005,  0.48235205187E+006,  0.16500000000E+002,  0.00000000000E+000,  0.10000000000E+001
  0.94901000000E+005,  0.48235205177E+006,  0.16500000000E+002,  0.00000000000E+000,  0.10000000000E+001
  0.94905000000E+005,  0.48235205139E+006,  0.16500000000E+002,  0.00000000000E+000,  0.10000000000E+001
  0.94911000000E+005,  0.48235205088E+006,  0.16500000000E+002,  0.00000000000E+000,  0.10000000000E+001
  0.94921000000E+005,  0.48235205042E+006,  0.16500000000E+002,  0.00000000000E+000,  0.10000000000E+001
  0.94931000000E+005,  0.48235205186E+006,  0.16500000000E+002,  0.00000000000E+000,  0.10000000000E+001
  0.94941000000E+005,  0.48235206116E+006,  0.16500000000E+002,  0.00000000000E+000,  0.10000000000E+001
  0.94951000000E+005,  0.48235209733E+006,  0.16500000000E+002,  0.00000000000E+000,  0.10000000000E+001
  0.94961000000E+005,  0.48235221237E+006,  0.16500000000E+002,  0.00000000000E+000,  0.10000000000E+001
  0.94971000000E+005,  0.48235253280E+006,  0.16500000000E+002,  0.00000000000E+000,  0.10000000000E+001
  0.94981000000E+005,  0.48235333683E+006,  0.16500000000E+002,  0.00000000000E+000,  0.10000000000E+001
  0.94991000000E+005,  0.48235518318E+006,  0.16500000000E+002,  0.00000000000E+000,  0.10000000000E+001
  0.95001000000E+005,  0.48235910560E+006,  0.16500000000E+002,  0.00000000000E+000,  0.10000000000E+001
  0.95011000000E+005,  0.48236687948E+006,  0.16500000000E+002,  0.00000000000E+000,  0.10000000000E+001
  0.95021000000E+005,  0.48238135476E+006,  0.16500000000E+002,  0.00000000000E+000,  0.10000000000E+001
  0.95031000000E+005,  0.48240683579E+006,  0.16500000000E+002,  0.00000000000E+000,  0.10000000000E+001
  0.95041000000E+005,  0.48244947757E+006,  0.16500000000E+002,  0.00000000000E+000,  0.10000000000E+001
  0.95051000000E+005,  0.48251766138E+006,  0.16500000000E+002,  0.00000000000E+000,  0.10000000000E+001
  0.95061000000E+005,  0.48262232128E+006,  0.16500000000E+002,  0.00000000000E+000,  0.10000000000E+001
  0.95071000000E+005,  0.48277719365E+006,  0.16500000000E+002,  0.00000000000E+000,  0.10000000000E+001
  0.95081000000E+005,  0.48299899583E+006,  0.16500000000E+002,  0.00000000000E+000,  0.10000000000E+001
  0.95091000000E+005,  0.48330752766E+006,  0.16500000000E+002,  0.00000000000E+000,  0.10000000000E+001
  0.95101000000E+005,  0.48372573473E+006,  0.16500000000E+002,  0.00000000000E+000,  0.10000000000E+001
  0.95111000000E+005,  0.48427974753E+006,  0.16500000000E+002,  0.00000000000E+000,  0.10000000000E+001
  0.95121000000E+005,  0.48499895662E+006,  0.16500000000E+002,  0.00000000000E+000,  0.10000000000E+001
  0.95131000000E+005,  0.48591610583E+006,  0.16500000000E+002,  0.00000000000E+000,  0.10000000000E+001
  0.95141000000E+005,  0.48706746809E+006,  0.16500000000E+002,  0.00000000000E+000,  0.10000000000E+001
  0.95151000000E+005,  0.48849302024E+006,  0.16500000000E+002,  0.00000000000E+000,  0.10000000000E+001
  0.95161000000E+005,  0.49023674845E+006,  0.16500000000E+002,  0.00000000000E+000,  0.10000000000E+001
  0.95171000000E+005,  0.49234693584E+006,  0.16500000000E+002,  0.00000000000E+000,  0.10000000000E+001
  0.95181000000E+005,  0.49487641886E+006,  0.16500000000E+002,  0.00000000000E+000,  0.10000000000E+001
  0.95191000000E+005,  0.49788290328E+006,  0.16500000000E+002,  0.00000000000E+000,  0.10000000000E+001
  0.95201000000E+005,  0.50142910765E+006,  0.16500000000E+002,  0.00000000000E+000,  0.10000000000E+001
  0.95211000000E+005,  0.50558254741E+006,  0.16500000000E+002,  0.00000000000E+000,  0.10000000000E+001
  0.95221000000E+005,  0.51041556597E+006,  0.16500000000E+002,  0.00000000000E+000,  0.10000000000E+001
  0.95231000000E+005,  0.51600456749E+006,  0.16500000000E+002,  0.00000000000E+000,  0.10000000000E+001
  0.95241000000E+005,  0.52242882619E+006,  0.16500000000E+002,  0.00000000000E+000,  0.10000000000E+001
  0.95251000000E+005,  0.52976964698E+006,  0.16500000000E+002,  0.00000000000E+000,  0.10000000000E+001
  0.95261000000E+005,  0.53810788339E+006,  0.16500000000E+002,  0.00000000000E+000,  0.10000000000E+001
  0.95271000000E+005,  0.54752215564E+006,  0.16500000000E+002,  0.00000000000E+000,  0.10000000000E+001
  0.95281000000E+005,  0.55808575994E+006,  0.16500000000E+002,  0.00000000000E+000,  0.10000000000E+001
  0.95291000000E+005,  0.56986349599E+006,  0.16500000000E+002,  0.00000000000E+000,  0.10000000000E+001
  0.95301000000E+005,  0.58290906636E+006,  0.16500000000E+002,  0.00000000000E+000,  0.10000000000E+001
  0.95311000000E+005,  0.59726132129E+006,  0.16500000000E+002,  0.00000000000E+000,  0.10000000000E+001
  0.95321000000E+005,  0.61294162054E+006,  0.16500000000E+002,  0.00000000000E+000,  0.10000000000E+001
  0.95331000000E+005,  0.62995151955E+006,  0.16500000000E+002,  0.00000000000E+000,  0.10000000000E+001
  0.95341000000E+005,  0.64827121100E+006,  0.16500000000E+002,  0.00000000000E+000,  0.10000000000E+001
  0.95351000000E+005,  0.66785794132E+006,  0.16500000000E+002,  0.00000000000E+000,  0.10000000000E+001
  0.95361000000E+005,  0.68864694384E+006,  0.16500000000E+002,  0.00000000000E+000,  0.10000000000E+001
  0.95371000000E+005,  0.71055175308E+006,  0.16500000000E+002,  0.00000000000E+000,  0.10000000000E+001
  0.95381000000E+005,  0.73346774373E+006,  0.16500000000E+002,  0.00000000000E+000,  0.10000000000E+001
  0.95391000000E+005,  0.75727389786E+006,  0.16500000000E+002,  0.00000000000E+000,  0.10000000000E+001
  0.95401000000E+005,  0.78183639940E+006,  0.16500000000E+002,  0.00000000000E+000,  0.10000000000E+001
  0.95411000000E+005,  0.80701289527E+006,  0.16500000000E+002,  0.00000000000E+000,  0.10000000000E+001
  0.95421000000E+005,  0.83265742701E+006,  0.16500000000E+002,  0.00000000000E+000,  0.10000000000E+001
  0.95431000000E+005,  0.85862329009E+006,  0.16500000000E+002,  0.00000000000E+000,  0.10000000000E+001
  0.95441000000E+005,  0.88476622942E+006,  0.16500000000E+002,  0.00000000000E+000,  0.10000000000E+001
  0.95451000000E+005,  0.91095036397E+006,  0.16500000000E+002,  0.00000000000E+000,  0.10000000000E+001
  0.95461000000E+005,  0.93704821676E+006,  0.16500000000E+002,  0.00000000000E+000,  0.10000000000E+001
  0.95471000000E+005,  0.96294315256E+006,  0.16500000000E+002,  0.00000000000E+000,  0.10000000000E+001
  0.95481000000E+005,  0.98853300205E+006,  0.16500000000E+002,  0.00000000000E+000,  0.10000000000E+001
  0.95491000000E+005,  0.10137269063E+007,  0.16500000000E+002,  0.00000000000E+000,  0.10000000000E+001
  0.95501000000E+005,  0.10384504352E+007,  0.16500000000E+002,  0.00000000000E+000,  0.10000000000E+001
  0.95511000000E+005,  0.10626405366E+007,  0.16500000000E+002,  0.00000000000E+000,  0.10000000000E+001
  0.95521000000E+005,  0.10862477034E+007,  0.16500000000E+002,  0.00000000000E+000,  0.10000000000E+001
  0.95531000000E+005,  0.11092348592E+007,  0.16500000000E+002,  0.00000000000E+000,  0.10000000000E+001
  0.95541000000E+005,  0.11315753341E+007,  0.16500000000E+002,  0.00000000000E+000,  0.10000000000E+001
  0.95551000000E+005,  0.11532524122E+007,  0.16500000000E+002,  0.00000000000E+000,  0.10000000000E+001
  0.95561000000E+005,  0.11742563723E+007,  0.16500000000E+002,  0.00000000000E+000,  0.10000000000E+001
  0.95571000000E+005,  0.11945870442E+007,  0.16500000000E+002,  0.00000000000E+000,  0.10000000000E+001
  0.95581000000E+005,  0.12142490662E+007,  0.16500000000E+002,  0.00000000000E+000,  0.10000000000E+001
