"           TIME(S)","              PRES","              TEMP","             SAT_G","             SAT_L"
  0.94881000000E+005,  0.47882143832E+006,  0.16500000000E+002,  0.00000000000E+000,  0.10000000000E+001
  0.94882100000E+005,  0.50543000184E+006,  0.16500000000E+002,  0.00000000000E+000,  0.10000000000E+001
  0.94883200000E+005,  0.56124861958E+006,  0.16500000000E+002,  0.00000000000E+000,  0.10000000000E+001
  0.94884300000E+005,  0.61889866305E+006,  0.16500000000E+002,  0.00000000000E+000,  0.10000000000E+001
  0.94885400000E+005,  0.67673137760E+006,  0.16500000000E+002,  0.00000000000E+000,  0.10000000000E+001
  0.94886500000E+005,  0.73460783269E+006,  0.16500000000E+002,  0.00000000000E+000,  0.10000000000E+001
  0.94887600000E+005,  0.79250501332E+006,  0.16500000000E+002,  0.00000000000E+000,  0.10000000000E+001
  0.94888700000E+005,  0.85040869445E+006,  0.16500000000E+002,  0.00000000000E+000,  0.10000000000E+001
  0.94889800000E+005,  0.90831695121E+006,  0.16500000000E+002,  0.00000000000E+000,  0.10000000000E+001
  0.94890900000E+005,  0.96622862580E+006,  0.16500000000E+002,  0.00000000000E+000,  0.10000000000E+001
  0.94892000000E+005,  0.10241378694E+007,  0.16500000000E+002,  0.00000000000E+000,  0.10000000000E+001
  0.94893100000E+005,  0.10820456342E+007,  0.16500000000E+002,  0.00000000000E+000,  0.10000000000E+001
  0.94894200000E+005,  0.11399499670E+007,  0.16500000000E+002,  0.00000000000E+000,  0.10000000000E+001
  0.94895300000E+005,  0.11978519395E+007,  0.16500000000E+002,  0.00000000000E+000,  0.10000000000E+001
  0.94896400000E+005,  0.12557540130E+007,  0.16500000000E+002,  0.00000000000E+000,  0.10000000000E+001
  0.94897500000E+005,  0.13136519093E+007,  0.16500000000E+002,  0.00000000000E+000,  0.10000000000E+001
  0.94898600000E+005,  0.13715469486E+007,  0.16500000000E+002,  0.00000000000E+000,  0.10000000000E+001
  0.94899700000E+005,  0.14294390351E+007,  0.16500000000E+002,  0.00000000000E+000,  0.10000000000E+001
  0.94900800000E+005,  0.14873279623E+007,  0.16500000000E+002,  0.00000000000E+000,  0.10000000000E+001
  0.94901900000E+005,  0.15452128957E+007,  0.16500000000E+002,  0.00000000000E+000,  0.10000000000E+001
  0.94903000000E+005,  0.16030971925E+007,  0.16500000000E+002,  0.00000000000E+000,  0.10000000000E+001
  0.94904100000E+005,  0.16609776816E+007,  0.16500000000E+002,  0.00000000000E+000,  0.10000000000E+001
  0.94905200000E+005,  0.17188538102E+007,  0.16500000000E+002,  0.00000000000E+000,  0.10000000000E+001
  0.94906300000E+005,  0.17767273031E+007,  0.16500000000E+002,  0.00000000000E+000,  0.10000000000E+001
  0.94907400000E+005,  0.18345984346E+007,  0.16500000000E+002,  0.00000000000E+000,  0.10000000000E+001
  0.94908500000E+005,  0.18924652521E+007,  0.16500000000E+002,  0.00000000000E+000,  0.10000000000E+001
  0.94909600000E+005,  0.19503289071E+007,  0.16500000000E+002,  0.00000000000E+000,  0.10000000000E+001
  0.94910700000E+005,  0.20081915090E+007,  0.16500000000E+002,  0.00000000000E+000,  0.10000000000E+001
  0.94911800000E+005,  0.20660503453E+007,  0.16500000000E+002,  0.00000000000E+000,  0.10000000000E+001
  0.94912900000E+005,  0.21240263576E+007,  0.16500000000E+002,  0.00000000000E+000,  0.10000000000E+001
  0.94914000000E+005,  0.21821438305E+007,  0.16500000000E+002,  0.00000000000E+000,  0.10000000000E+001
  0.94915100000E+005,  0.22403203494E+007,  0.16500000000E+002,  0.00000000000E+000,  0.10000000000E+001
  0.94916200000E+005,  0.23302531336E+007,  0.16500000000E+002,  0.00000000000E+000,  0.10000000000E+001
  0.94917300000E+005,  0.24121376660E+007,  0.16500000000E+002,  0.00000000000E+000,  0.10000000000E+001
  0.94918400000E+005,  0.24777251225E+007,  0.16500000000E+002,  0.00000000000E+000,  0.10000000000E+001
  0.94919500000E+005,  0.25423293074E+007,  0.16500000000E+002,  0.00000000000E+000,  0.10000000000E+001
  0.94920600000E+005,  0.26066376519E+007,  0.16500000000E+002,  0.00000000000E+000,  0.10000000000E+001
  0.94921700000E+005,  0.26647793831E+007,  0.16500000000E+002,  0.00000000000E+000,  0.10000000000E+001
  0.94922800000E+005,  0.27181080042E+007,  0.16500000000E+002,  0.00000000000E+000,  0.10000000000E+001
  0.94923900000E+005,  0.27834188877E+007,  0.16500000000E+002,  0.00000000000E+000,  0.10000000000E+001
  0.94925000000E+005,  0.28724189502E+007,  0.16500000000E+002,  0.00000000000E+000,  0.10000000000E+001
  0.94926100000E+005,  0.29524724732E+007,  0.16500000000E+002,  0.00000000000E+000,  0.10000000000E+001
  0.94927200000E+005,  0.30492440586E+007,  0.16500000000E+002,  0.00000000000E+000,  0.10000000000E+001
  0.94928300000E+005,  0.31595388216E+007,  0.16500000000E+002,  0.00000000000E+000,  0.10000000000E+001
  0.94929400000E+005,  0.32756161251E+007,  0.16500000000E+002,  0.00000000000E+000,  0.10000000000E+001
  0.94930500000E+005,  0.34212878721E+007,  0.16500000000E+002,  0.00000000000E+000,  0.10000000000E+001
  0.94931600000E+005,  0.36039045641E+007,  0.16500000000E+002,  0.00000000000E+000,  0.10000000000E+001
  0.94932700000E+005,  0.38279246725E+007,  0.16500000000E+002,  0.00000000000E+000,  0.10000000000E+001
  0.94933800000E+005,  0.40805453681E+007,  0.16500000000E+002,  0.00000000000E+000,  0.10000000000E+001
  0.94933800000E+005,  0.40805453681E+007,  0.16500000000E+002,  0.00000000000E+000,  0.10000000000E+001
