"           TIME(S)","              PRES","              TEMP","             SAT_G","             SAT_L"
  0.94881000000E+005,  0.45358954295E+006,  0.16500000000E+002,  0.00000000000E+000,  0.10000000000E+001
  0.94882100000E+005,  0.45357938391E+006,  0.16500000000E+002,  0.00000000000E+000,  0.10000000000E+001
  0.94883200000E+005,  0.45356963406E+006,  0.16500000000E+002,  0.00000000000E+000,  0.10000000000E+001
  0.94884300000E+005,  0.45355059029E+006,  0.16500000000E+002,  0.00000000000E+000,  0.10000000000E+001
  0.94885000000E+005,  0.45352759750E+006,  0.16500000000E+002,  0.00000000000E+000,  0.10000000000E+001
  0.94886100000E+005,  0.45351802705E+006,  0.16500000000E+002,  0.00000000000E+000,  0.10000000000E+001
  0.94887200000E+005,  0.45352028005E+006,  0.16500000000E+002,  0.00000000000E+000,  0.10000000000E+001
  0.94888300000E+005,  0.45353088420E+006,  0.16500000000E+002,  0.00000000000E+000,  0.10000000000E+001
  0.94889400000E+005,  0.45355181418E+006,  0.16500000000E+002,  0.00000000000E+000,  0.10000000000E+001
  0.94890000000E+005,  0.45358182229E+006,  0.16500000000E+002,  0.00000000000E+000,  0.10000000000E+001
  0.94891100000E+005,  0.45362299512E+006,  0.16500000000E+002,  0.00000000000E+000,  0.10000000000E+001
  0.94892200000E+005,  0.45366574442E+006,  0.16500000000E+002,  0.00000000000E+000,  0.10000000000E+001
  0.94893300000E+005,  0.45371331792E+006,  0.16500000000E+002,  0.00000000000E+000,  0.10000000000E+001
  0.94894400000E+005,  0.45376988914E+006,  0.16500000000E+002,  0.00000000000E+000,  0.10000000000E+001
  0.94895000000E+005,  0.45382614562E+006,  0.16500000000E+002,  0.00000000000E+000,  0.10000000000E+001
  0.94896100000E+005,  0.45389199742E+006,  0.16500000000E+002,  0.00000000000E+000,  0.10000000000E+001
  0.94897200000E+005,  0.45395297586E+006,  0.16500000000E+002,  0.00000000000E+000,  0.10000000000E+001
  0.94898300000E+005,  0.45401605010E+006,  0.16500000000E+002,  0.00000000000E+000,  0.10000000000E+001
  0.94899400000E+005,  0.45408820046E+006,  0.16500000000E+002,  0.00000000000E+000,  0.10000000000E+001
  0.94900000000E+005,  0.45415886894E+006,  0.16500000000E+002,  0.00000000000E+000,  0.10000000000E+001
  0.94901100000E+005,  0.45423565669E+006,  0.16500000000E+002,  0.00000000000E+000,  0.10000000000E+001
  0.94902200000E+005,  0.45430678248E+006,  0.16500000000E+002,  0.00000000000E+000,  0.10000000000E+001
  0.94903300000E+005,  0.45438563823E+006,  0.16500000000E+002,  0.00000000000E+000,  0.10000000000E+001
  0.94904400000E+005,  0.45446790890E+006,  0.16500000000E+002,  0.00000000000E+000,  0.10000000000E+001
  0.94905000000E+005,  0.45454912007E+006,  0.16500000000E+002,  0.00000000000E+000,  0.10000000000E+001
  0.94906100000E+005,  0.45463355984E+006,  0.16500000000E+002,  0.00000000000E+000,  0.10000000000E+001
  0.94907200000E+005,  0.45471559195E+006,  0.16500000000E+002,  0.00000000000E+000,  0.10000000000E+001
  0.94908300000E+005,  0.45480444621E+006,  0.16500000000E+002,  0.00000000000E+000,  0.10000000000E+001
  0.94909400000E+005,  0.45488884706E+006,  0.16500000000E+002,  0.00000000000E+000,  0.10000000000E+001
  0.94910500000E+005,  0.45497574406E+006,  0.16500000000E+002,  0.00000000000E+000,  0.10000000000E+001
  0.94911000000E+005,  0.45506770873E+006,  0.16500000000E+002,  0.00000000000E+000,  0.10000000000E+001
  0.94912100000E+005,  0.45515060220E+006,  0.16500000000E+002,  0.00000000000E+000,  0.10000000000E+001
  0.94913200000E+005,  0.45523973812E+006,  0.16500000000E+002,  0.00000000000E+000,  0.10000000000E+001
  0.94914300000E+005,  0.45531827514E+006,  0.16500000000E+002,  0.00000000000E+000,  0.10000000000E+001
  0.94915400000E+005,  0.45540749078E+006,  0.16500000000E+002,  0.00000000000E+000,  0.10000000000E+001
  0.94916500000E+005,  0.45548568116E+006,  0.16500000000E+002,  0.00000000000E+000,  0.10000000000E+001
  0.94917600000E+005,  0.45556477529E+006,  0.16500000000E+002,  0.00000000000E+000,  0.10000000000E+001
  0.94918700000E+005,  0.45564302174E+006,  0.16500000000E+002,  0.00000000000E+000,  0.10000000000E+001
  0.94919800000E+005,  0.45573188293E+006,  0.16500000000E+002,  0.00000000000E+000,  0.10000000000E+001
  0.94920900000E+005,  0.45581095315E+006,  0.16500000000E+002,  0.00000000000E+000,  0.10000000000E+001
  0.94922000000E+005,  0.45588487199E+006,  0.16500000000E+002,  0.00000000000E+000,  0.10000000000E+001
  0.94923100000E+005,  0.45595906233E+006,  0.16500000000E+002,  0.00000000000E+000,  0.10000000000E+001
  0.94924200000E+005,  0.45603231635E+006,  0.16500000000E+002,  0.00000000000E+000,  0.10000000000E+001
  0.94925300000E+005,  0.45610147006E+006,  0.16500000000E+002,  0.00000000000E+000,  0.10000000000E+001
  0.94926400000E+005,  0.45617154046E+006,  0.16500000000E+002,  0.00000000000E+000,  0.10000000000E+001
  0.94927500000E+005,  0.45623895997E+006,  0.16500000000E+002,  0.00000000000E+000,  0.10000000000E+001
  0.94928600000E+005,  0.45630427010E+006,  0.16500000000E+002,  0.00000000000E+000,  0.10000000000E+001
  0.94929700000E+005,  0.45636784973E+006,  0.16500000000E+002,  0.00000000000E+000,  0.10000000000E+001
  0.94930800000E+005,  0.45644284610E+006,  0.16500000000E+002,  0.00000000000E+000,  0.10000000000E+001
  0.94931900000E+005,  0.45651824433E+006,  0.16500000000E+002,  0.00000000000E+000,  0.10000000000E+001
  0.94933000000E+005,  0.45660167240E+006,  0.16500000000E+002,  0.00000000000E+000,  0.10000000000E+001
  0.94934100000E+005,  0.45670152194E+006,  0.16500000000E+002,  0.00000000000E+000,  0.10000000000E+001
  0.94935200000E+005,  0.45681578359E+006,  0.16500000000E+002,  0.00000000000E+000,  0.10000000000E+001
  0.94936300000E+005,  0.45694921331E+006,  0.16500000000E+002,  0.00000000000E+000,  0.10000000000E+001
  0.94937400000E+005,  0.45711170711E+006,  0.16500000000E+002,  0.00000000000E+000,  0.10000000000E+001
  0.94938500000E+005,  0.45729484470E+006,  0.16500000000E+002,  0.00000000000E+000,  0.10000000000E+001
  0.94939600000E+005,  0.45749435343E+006,  0.16500000000E+002,  0.00000000000E+000,  0.10000000000E+001
  0.94940700000E+005,  0.45771621452E+006,  0.16500000000E+002,  0.00000000000E+000,  0.10000000000E+001
  0.94941700000E+005,  0.45795252986E+006,  0.16500000000E+002,  0.00000000000E+000,  0.10000000000E+001
  0.94942900000E+005,  0.45820005958E+006,  0.16500000000E+002,  0.00000000000E+000,  0.10000000000E+001
  0.94944100000E+005,  0.45845623890E+006,  0.16500000000E+002,  0.00000000000E+000,  0.10000000000E+001
  0.94945300000E+005,  0.45873224878E+006,  0.16500000000E+002,  0.00000000000E+000,  0.10000000000E+001
  0.94946500000E+005,  0.45901924121E+006,  0.16500000000E+002,  0.00000000000E+000,  0.10000000000E+001
  0.94947700000E+005,  0.45931598938E+006,  0.16500000000E+002,  0.00000000000E+000,  0.10000000000E+001
  0.94948900000E+005,  0.45961717236E+006,  0.16500000000E+002,  0.00000000000E+000,  0.10000000000E+001
  0.94950100000E+005,  0.45994076855E+006,  0.16500000000E+002,  0.00000000000E+000,  0.10000000000E+001
  0.94951300000E+005,  0.46027094645E+006,  0.16500000000E+002,  0.00000000000E+000,  0.10000000000E+001
  0.94952500000E+005,  0.46062171990E+006,  0.16500000000E+002,  0.00000000000E+000,  0.10000000000E+001
  0.94953700000E+005,  0.46098725955E+006,  0.16500000000E+002,  0.00000000000E+000,  0.10000000000E+001
  0.94954900000E+005,  0.46136267333E+006,  0.16500000000E+002,  0.00000000000E+000,  0.10000000000E+001
  0.94956100000E+005,  0.46174924203E+006,  0.16500000000E+002,  0.00000000000E+000,  0.10000000000E+001
  0.94957300000E+005,  0.46214589773E+006,  0.16500000000E+002,  0.00000000000E+000,  0.10000000000E+001
  0.94958500000E+005,  0.46255424878E+006,  0.16500000000E+002,  0.00000000000E+000,  0.10000000000E+001
  0.94959700000E+005,  0.46296403702E+006,  0.16500000000E+002,  0.00000000000E+000,  0.10000000000E+001
  0.94960900000E+005,  0.46337422158E+006,  0.16500000000E+002,  0.00000000000E+000,  0.10000000000E+001
  0.94962100000E+005,  0.46377712243E+006,  0.16500000000E+002,  0.00000000000E+000,  0.10000000000E+001
  0.94963300000E+005,  0.46417724011E+006,  0.16500000000E+002,  0.00000000000E+000,  0.10000000000E+001
  0.94964500000E+005,  0.46456658973E+006,  0.16500000000E+002,  0.00000000000E+000,  0.10000000000E+001
  0.94965700000E+005,  0.46493423910E+006,  0.16500000000E+002,  0.00000000000E+000,  0.10000000000E+001
  0.94966900000E+005,  0.46528707238E+006,  0.16500000000E+002,  0.00000000000E+000,  0.10000000000E+001
  0.94968100000E+005,  0.46562111841E+006,  0.16500000000E+002,  0.00000000000E+000,  0.10000000000E+001
  0.94969300000E+005,  0.46593995703E+006,  0.16500000000E+002,  0.00000000000E+000,  0.10000000000E+001
  0.94970500000E+005,  0.46624208979E+006,  0.16500000000E+002,  0.00000000000E+000,  0.10000000000E+001
  0.94971700000E+005,  0.46652554335E+006,  0.16500000000E+002,  0.00000000000E+000,  0.10000000000E+001
  0.94972900000E+005,  0.46679255656E+006,  0.16500000000E+002,  0.00000000000E+000,  0.10000000000E+001
  0.94974100000E+005,  0.46703228828E+006,  0.16500000000E+002,  0.00000000000E+000,  0.10000000000E+001
  0.94975300000E+005,  0.46726445466E+006,  0.16500000000E+002,  0.00000000000E+000,  0.10000000000E+001
  0.94976500000E+005,  0.46747288648E+006,  0.16500000000E+002,  0.00000000000E+000,  0.10000000000E+001
  0.94977700000E+005,  0.46766151428E+006,  0.16500000000E+002,  0.00000000000E+000,  0.10000000000E+001
  0.94978900000E+005,  0.46783963270E+006,  0.16500000000E+002,  0.00000000000E+000,  0.10000000000E+001
  0.94980100000E+005,  0.46799381660E+006,  0.16500000000E+002,  0.00000000000E+000,  0.10000000000E+001
  0.94981300000E+005,  0.46813321715E+006,  0.16500000000E+002,  0.00000000000E+000,  0.10000000000E+001
  0.94982500000E+005,  0.46824598670E+006,  0.16500000000E+002,  0.00000000000E+000,  0.10000000000E+001
  0.94983700000E+005,  0.46835340126E+006,  0.16500000000E+002,  0.00000000000E+000,  0.10000000000E+001
  0.94984900000E+005,  0.46843657773E+006,  0.16500000000E+002,  0.00000000000E+000,  0.10000000000E+001
  0.94986100000E+005,  0.46850834153E+006,  0.16500000000E+002,  0.00000000000E+000,  0.10000000000E+001
  0.94987300000E+005,  0.46857003618E+006,  0.16500000000E+002,  0.00000000000E+000,  0.10000000000E+001
  0.94988500000E+005,  0.46861534621E+006,  0.16500000000E+002,  0.00000000000E+000,  0.10000000000E+001
  0.94989700000E+005,  0.46865650487E+006,  0.16500000000E+002,  0.00000000000E+000,  0.10000000000E+001
  0.94990900000E+005,  0.46868431348E+006,  0.16500000000E+002,  0.00000000000E+000,  0.10000000000E+001
  0.94992100000E+005,  0.46869627560E+006,  0.16500000000E+002,  0.00000000000E+000,  0.10000000000E+001
  0.94993300000E+005,  0.46870715235E+006,  0.16500000000E+002,  0.00000000000E+000,  0.10000000000E+001
  0.94994500000E+005,  0.46870248432E+006,  0.16500000000E+002,  0.00000000000E+000,  0.10000000000E+001
  0.94995700000E+005,  0.46869103387E+006,  0.16500000000E+002,  0.00000000000E+000,  0.10000000000E+001
  0.94996900000E+005,  0.46867744434E+006,  0.16500000000E+002,  0.00000000000E+000,  0.10000000000E+001
  0.94998100000E+005,  0.46864412661E+006,  0.16500000000E+002,  0.00000000000E+000,  0.10000000000E+001
  0.94999300000E+005,  0.46862340200E+006,  0.16500000000E+002,  0.00000000000E+000,  0.10000000000E+001
  0.95000500000E+005,  0.46858920560E+006,  0.16500000000E+002,  0.00000000000E+000,  0.10000000000E+001
  0.95001700000E+005,  0.46854662020E+006,  0.16500000000E+002,  0.00000000000E+000,  0.10000000000E+001
  0.95002900000E+005,  0.46850088346E+006,  0.16500000000E+002,  0.00000000000E+000,  0.10000000000E+001
  0.95004100000E+005,  0.46844830950E+006,  0.16500000000E+002,  0.00000000000E+000,  0.10000000000E+001
  0.95005300000E+005,  0.46839113710E+006,  0.16500000000E+002,  0.00000000000E+000,  0.10000000000E+001
  0.95006500000E+005,  0.46832100525E+006,  0.16500000000E+002,  0.00000000000E+000,  0.10000000000E+001
  0.95007700000E+005,  0.46824572687E+006,  0.16500000000E+002,  0.00000000000E+000,  0.10000000000E+001
  0.95008900000E+005,  0.46815940283E+006,  0.16500000000E+002,  0.00000000000E+000,  0.10000000000E+001
  0.95010100000E+005,  0.46806939603E+006,  0.16500000000E+002,  0.00000000000E+000,  0.10000000000E+001
  0.95011300000E+005,  0.46797879081E+006,  0.16500000000E+002,  0.00000000000E+000,  0.10000000000E+001
  0.95012500000E+005,  0.46787933029E+006,  0.16500000000E+002,  0.00000000000E+000,  0.10000000000E+001
  0.95013700000E+005,  0.46777048212E+006,  0.16500000000E+002,  0.00000000000E+000,  0.10000000000E+001
  0.95014900000E+005,  0.46766173632E+006,  0.16500000000E+002,  0.00000000000E+000,  0.10000000000E+001
  0.95016100000E+005,  0.46754855479E+006,  0.16500000000E+002,  0.00000000000E+000,  0.10000000000E+001
  0.95017300000E+005,  0.46742444526E+006,  0.16500000000E+002,  0.00000000000E+000,  0.10000000000E+001
  0.95018500000E+005,  0.46729793361E+006,  0.16500000000E+002,  0.00000000000E+000,  0.10000000000E+001
  0.95019700000E+005,  0.46717010758E+006,  0.16500000000E+002,  0.00000000000E+000,  0.10000000000E+001
  0.95020900000E+005,  0.46703129704E+006,  0.16500000000E+002,  0.00000000000E+000,  0.10000000000E+001
  0.95022100000E+005,  0.46689029378E+006,  0.16500000000E+002,  0.00000000000E+000,  0.10000000000E+001
  0.95023300000E+005,  0.46673693225E+006,  0.16500000000E+002,  0.00000000000E+000,  0.10000000000E+001
  0.95024500000E+005,  0.46658396138E+006,  0.16500000000E+002,  0.00000000000E+000,  0.10000000000E+001
  0.95025700000E+005,  0.46642450078E+006,  0.16500000000E+002,  0.00000000000E+000,  0.10000000000E+001
  0.95026900000E+005,  0.46625500109E+006,  0.16500000000E+002,  0.00000000000E+000,  0.10000000000E+001
  0.95028100000E+005,  0.46608372086E+006,  0.16500000000E+002,  0.00000000000E+000,  0.10000000000E+001
  0.95029300000E+005,  0.46590204118E+006,  0.16500000000E+002,  0.00000000000E+000,  0.10000000000E+001
  0.95030500000E+005,  0.46571544121E+006,  0.16500000000E+002,  0.00000000000E+000,  0.10000000000E+001
  0.95031700000E+005,  0.46552389980E+006,  0.16500000000E+002,  0.00000000000E+000,  0.10000000000E+001
  0.95032900000E+005,  0.46532793824E+006,  0.16500000000E+002,  0.00000000000E+000,  0.10000000000E+001
  0.95034100000E+005,  0.46512222452E+006,  0.16500000000E+002,  0.00000000000E+000,  0.10000000000E+001
  0.95035300000E+005,  0.46491082814E+006,  0.16500000000E+002,  0.00000000000E+000,  0.10000000000E+001
  0.95036500000E+005,  0.46470112986E+006,  0.16500000000E+002,  0.00000000000E+000,  0.10000000000E+001
  0.95037700000E+005,  0.46448073522E+006,  0.16500000000E+002,  0.00000000000E+000,  0.10000000000E+001
  0.95038900000E+005,  0.46426155013E+006,  0.16500000000E+002,  0.00000000000E+000,  0.10000000000E+001
  0.95040100000E+005,  0.46403752487E+006,  0.16500000000E+002,  0.00000000000E+000,  0.10000000000E+001
  0.95041300000E+005,  0.46380497540E+006,  0.16500000000E+002,  0.00000000000E+000,  0.10000000000E+001
  0.95042500000E+005,  0.46357072907E+006,  0.16500000000E+002,  0.00000000000E+000,  0.10000000000E+001
  0.95043700000E+005,  0.46333339392E+006,  0.16500000000E+002,  0.00000000000E+000,  0.10000000000E+001
  0.95044900000E+005,  0.46308843060E+006,  0.16500000000E+002,  0.00000000000E+000,  0.10000000000E+001
  0.95046100000E+005,  0.46284496565E+006,  0.16500000000E+002,  0.00000000000E+000,  0.10000000000E+001
  0.95047300000E+005,  0.46259444018E+006,  0.16500000000E+002,  0.00000000000E+000,  0.10000000000E+001
  0.95048500000E+005,  0.46233812481E+006,  0.16500000000E+002,  0.00000000000E+000,  0.10000000000E+001
  0.95049700000E+005,  0.46207605757E+006,  0.16500000000E+002,  0.00000000000E+000,  0.10000000000E+001
  0.95050900000E+005,  0.46180995263E+006,  0.16500000000E+002,  0.00000000000E+000,  0.10000000000E+001
  0.95052100000E+005,  0.46154388410E+006,  0.16500000000E+002,  0.00000000000E+000,  0.10000000000E+001
  0.95053300000E+005,  0.46127463583E+006,  0.16500000000E+002,  0.00000000000E+000,  0.10000000000E+001
  0.95054500000E+005,  0.46100324555E+006,  0.16500000000E+002,  0.00000000000E+000,  0.10000000000E+001
  0.95055700000E+005,  0.46072902879E+006,  0.16500000000E+002,  0.00000000000E+000,  0.10000000000E+001
  0.95056900000E+005,  0.46044948767E+006,  0.16500000000E+002,  0.00000000000E+000,  0.10000000000E+001
  0.95058100000E+005,  0.46017236683E+006,  0.16500000000E+002,  0.00000000000E+000,  0.10000000000E+001
  0.95059300000E+005,  0.45989509721E+006,  0.16500000000E+002,  0.00000000000E+000,  0.10000000000E+001
  0.95060500000E+005,  0.45961295156E+006,  0.16500000000E+002,  0.00000000000E+000,  0.10000000000E+001
  0.95061700000E+005,  0.45933253957E+006,  0.16500000000E+002,  0.00000000000E+000,  0.10000000000E+001
