"           TIME(S)","              PRES","              TEMP","             SAT_G","             SAT_L"
  0.94881000000E+005,  0.48270279191E+006,  0.16500000000E+002,  0.00000000000E+000,  0.10000000000E+001
  0.94882100000E+005,  0.48270279136E+006,  0.16500000000E+002,  0.00000000000E+000,  0.10000000000E+001
  0.94883200000E+005,  0.48270279086E+006,  0.16500000000E+002,  0.00000000000E+000,  0.10000000000E+001
  0.94884300000E+005,  0.48270279041E+006,  0.16500000000E+002,  0.00000000000E+000,  0.10000000000E+001
  0.94885000000E+005,  0.48270279013E+006,  0.16500000000E+002,  0.00000000000E+000,  0.10000000000E+001
  0.94886100000E+005,  0.48270278973E+006,  0.16500000000E+002,  0.00000000000E+000,  0.10000000000E+001
  0.94887200000E+005,  0.48270278936E+006,  0.16500000000E+002,  0.00000000000E+000,  0.10000000000E+001
  0.94888300000E+005,  0.48270278901E+006,  0.16500000000E+002,  0.00000000000E+000,  0.10000000000E+001
  0.94889400000E+005,  0.48270278869E+006,  0.16500000000E+002,  0.00000000000E+000,  0.10000000000E+001
  0.94890000000E+005,  0.48270278851E+006,  0.16500000000E+002,  0.00000000000E+000,  0.10000000000E+001
  0.94891100000E+005,  0.48270278821E+006,  0.16500000000E+002,  0.00000000000E+000,  0.10000000000E+001
  0.94892200000E+005,  0.48270278792E+006,  0.16500000000E+002,  0.00000000000E+000,  0.10000000000E+001
  0.94893300000E+005,  0.48270278764E+006,  0.16500000000E+002,  0.00000000000E+000,  0.10000000000E+001
  0.94894400000E+005,  0.48270278738E+006,  0.16500000000E+002,  0.00000000000E+000,  0.10000000000E+001
  0.94895000000E+005,  0.48270278724E+006,  0.16500000000E+002,  0.00000000000E+000,  0.10000000000E+001
  0.94896100000E+005,  0.48270278698E+006,  0.16500000000E+002,  0.00000000000E+000,  0.10000000000E+001
  0.94897200000E+005,  0.48270278674E+006,  0.16500000000E+002,  0.00000000000E+000,  0.10000000000E+001
  0.94898300000E+005,  0.48270278650E+006,  0.16500000000E+002,  0.00000000000E+000,  0.10000000000E+001
  0.94899400000E+005,  0.48270278627E+006,  0.16500000000E+002,  0.00000000000E+000,  0.10000000000E+001
  0.94900000000E+005,  0.48270278614E+006,  0.16500000000E+002,  0.00000000000E+000,  0.10000000000E+001
  0.94901100000E+005,  0.48270278592E+006,  0.16500000000E+002,  0.00000000000E+000,  0.10000000000E+001
  0.94902200000E+005,  0.48270278570E+006,  0.16500000000E+002,  0.00000000000E+000,  0.10000000000E+001
  0.94903300000E+005,  0.48270278548E+006,  0.16500000000E+002,  0.00000000000E+000,  0.10000000000E+001
  0.94904400000E+005,  0.48270278527E+006,  0.16500000000E+002,  0.00000000000E+000,  0.10000000000E+001
  0.94905000000E+005,  0.48270278516E+006,  0.16500000000E+002,  0.00000000000E+000,  0.10000000000E+001
  0.94906100000E+005,  0.48270278495E+006,  0.16500000000E+002,  0.00000000000E+000,  0.10000000000E+001
  0.94907200000E+005,  0.48270278475E+006,  0.16500000000E+002,  0.00000000000E+000,  0.10000000000E+001
  0.94908300000E+005,  0.48270278456E+006,  0.16500000000E+002,  0.00000000000E+000,  0.10000000000E+001
  0.94909400000E+005,  0.48270278436E+006,  0.16500000000E+002,  0.00000000000E+000,  0.10000000000E+001
  0.94910500000E+005,  0.48270278417E+006,  0.16500000000E+002,  0.00000000000E+000,  0.10000000000E+001
  0.94911000000E+005,  0.48270278408E+006,  0.16500000000E+002,  0.00000000000E+000,  0.10000000000E+001
  0.94912100000E+005,  0.48270278389E+006,  0.16500000000E+002,  0.00000000000E+000,  0.10000000000E+001
  0.94913200000E+005,  0.48270278371E+006,  0.16500000000E+002,  0.00000000000E+000,  0.10000000000E+001
  0.94914300000E+005,  0.48270278352E+006,  0.16500000000E+002,  0.00000000000E+000,  0.10000000000E+001
  0.94915400000E+005,  0.48270278334E+006,  0.16500000000E+002,  0.00000000000E+000,  0.10000000000E+001
  0.94916500000E+005,  0.48270278316E+006,  0.16500000000E+002,  0.00000000000E+000,  0.10000000000E+001
  0.94917600000E+005,  0.48270278299E+006,  0.16500000000E+002,  0.00000000000E+000,  0.10000000000E+001
  0.94918700000E+005,  0.48270278281E+006,  0.16500000000E+002,  0.00000000000E+000,  0.10000000000E+001
  0.94919800000E+005,  0.48270278264E+006,  0.16500000000E+002,  0.00000000000E+000,  0.10000000000E+001
  0.94920900000E+005,  0.48270278247E+006,  0.16500000000E+002,  0.00000000000E+000,  0.10000000000E+001
  0.94922000000E+005,  0.48270278230E+006,  0.16500000000E+002,  0.00000000000E+000,  0.10000000000E+001
  0.94923100000E+005,  0.48270278213E+006,  0.16500000000E+002,  0.00000000000E+000,  0.10000000000E+001
  0.94924200000E+005,  0.48270278197E+006,  0.16500000000E+002,  0.00000000000E+000,  0.10000000000E+001
  0.94925300000E+005,  0.48270278180E+006,  0.16500000000E+002,  0.00000000000E+000,  0.10000000000E+001
  0.94926400000E+005,  0.48270278164E+006,  0.16500000000E+002,  0.00000000000E+000,  0.10000000000E+001
  0.94927500000E+005,  0.48270278148E+006,  0.16500000000E+002,  0.00000000000E+000,  0.10000000000E+001
  0.94928600000E+005,  0.48270278132E+006,  0.16500000000E+002,  0.00000000000E+000,  0.10000000000E+001
  0.94929700000E+005,  0.48270278116E+006,  0.16500000000E+002,  0.00000000000E+000,  0.10000000000E+001
  0.94930800000E+005,  0.48270278100E+006,  0.16500000000E+002,  0.00000000000E+000,  0.10000000000E+001
  0.94931900000E+005,  0.48270278085E+006,  0.16500000000E+002,  0.00000000000E+000,  0.10000000000E+001
  0.94933000000E+005,  0.48270278069E+006,  0.16500000000E+002,  0.00000000000E+000,  0.10000000000E+001
  0.94934100000E+005,  0.48270278054E+006,  0.16500000000E+002,  0.00000000000E+000,  0.10000000000E+001
  0.94935200000E+005,  0.48270278039E+006,  0.16500000000E+002,  0.00000000000E+000,  0.10000000000E+001
  0.94936300000E+005,  0.48270278024E+006,  0.16500000000E+002,  0.00000000000E+000,  0.10000000000E+001
  0.94937400000E+005,  0.48270278009E+006,  0.16500000000E+002,  0.00000000000E+000,  0.10000000000E+001
  0.94938500000E+005,  0.48270277994E+006,  0.16500000000E+002,  0.00000000000E+000,  0.10000000000E+001
  0.94939600000E+005,  0.48270277979E+006,  0.16500000000E+002,  0.00000000000E+000,  0.10000000000E+001
  0.94940700000E+005,  0.48270277964E+006,  0.16500000000E+002,  0.00000000000E+000,  0.10000000000E+001
  0.94941700000E+005,  0.48270277951E+006,  0.16500000000E+002,  0.00000000000E+000,  0.10000000000E+001
  0.94942900000E+005,  0.48270277935E+006,  0.16500000000E+002,  0.00000000000E+000,  0.10000000000E+001
  0.94944100000E+005,  0.48270277920E+006,  0.16500000000E+002,  0.00000000000E+000,  0.10000000000E+001
  0.94945300000E+005,  0.48270277904E+006,  0.16500000000E+002,  0.00000000000E+000,  0.10000000000E+001
  0.94946500000E+005,  0.48270277889E+006,  0.16500000000E+002,  0.00000000000E+000,  0.10000000000E+001
  0.94947700000E+005,  0.48270277874E+006,  0.16500000000E+002,  0.00000000000E+000,  0.10000000000E+001
  0.94948900000E+005,  0.48270277858E+006,  0.16500000000E+002,  0.00000000000E+000,  0.10000000000E+001
  0.94950100000E+005,  0.48270277843E+006,  0.16500000000E+002,  0.00000000000E+000,  0.10000000000E+001
  0.94951300000E+005,  0.48270277828E+006,  0.16500000000E+002,  0.00000000000E+000,  0.10000000000E+001
  0.94952500000E+005,  0.48270277813E+006,  0.16500000000E+002,  0.00000000000E+000,  0.10000000000E+001
  0.94953700000E+005,  0.48270277798E+006,  0.16500000000E+002,  0.00000000000E+000,  0.10000000000E+001
  0.94954900000E+005,  0.48270277784E+006,  0.16500000000E+002,  0.00000000000E+000,  0.10000000000E+001
  0.94956100000E+005,  0.48270277769E+006,  0.16500000000E+002,  0.00000000000E+000,  0.10000000000E+001
  0.94957300000E+005,  0.48270277754E+006,  0.16500000000E+002,  0.00000000000E+000,  0.10000000000E+001
  0.94958500000E+005,  0.48270277740E+006,  0.16500000000E+002,  0.00000000000E+000,  0.10000000000E+001
  0.94959700000E+005,  0.48270277726E+006,  0.16500000000E+002,  0.00000000000E+000,  0.10000000000E+001
  0.94960900000E+005,  0.48270277711E+006,  0.16500000000E+002,  0.00000000000E+000,  0.10000000000E+001
  0.94962100000E+005,  0.48270277697E+006,  0.16500000000E+002,  0.00000000000E+000,  0.10000000000E+001
  0.94963300000E+005,  0.48270277683E+006,  0.16500000000E+002,  0.00000000000E+000,  0.10000000000E+001
  0.94964500000E+005,  0.48270277669E+006,  0.16500000000E+002,  0.00000000000E+000,  0.10000000000E+001
  0.94965700000E+005,  0.48270277655E+006,  0.16500000000E+002,  0.00000000000E+000,  0.10000000000E+001
  0.94966900000E+005,  0.48270277641E+006,  0.16500000000E+002,  0.00000000000E+000,  0.10000000000E+001
  0.94968100000E+005,  0.48270277627E+006,  0.16500000000E+002,  0.00000000000E+000,  0.10000000000E+001
  0.94969300000E+005,  0.48270277613E+006,  0.16500000000E+002,  0.00000000000E+000,  0.10000000000E+001
  0.94969450000E+005,  0.48270277611E+006,  0.16500000000E+002,  0.00000000000E+000,  0.10000000000E+001
  0.94969543750E+005,  0.48270277610E+006,  0.16500000000E+002,  0.00000000000E+000,  0.10000000000E+001
  0.94970012500E+005,  0.48270277605E+006,  0.16500000000E+002,  0.00000000000E+000,  0.10000000000E+001
  0.94970031250E+005,  0.48270277605E+006,  0.16500000000E+002,  0.00000000000E+000,  0.10000000000E+001
  0.94970042969E+005,  0.48270277605E+006,  0.16500000000E+002,  0.00000000000E+000,  0.10000000000E+001
  0.94970050293E+005,  0.48270277605E+006,  0.16500000000E+002,  0.00000000000E+000,  0.10000000000E+001
  0.94970050865E+005,  0.48270277605E+006,  0.16500000000E+002,  0.00000000000E+000,  0.10000000000E+001
  0.94970051223E+005,  0.48270277605E+006,  0.16500000000E+002,  0.00000000000E+000,  0.10000000000E+001
  0.94970051446E+005,  0.48270277605E+006,  0.16500000000E+002,  0.00000000000E+000,  0.10000000000E+001
  0.94970051586E+005,  0.48270277605E+006,  0.16500000000E+002,  0.00000000000E+000,  0.10000000000E+001
  0.94970052285E+005,  0.48270277605E+006,  0.16500000000E+002,  0.00000000000E+000,  0.10000000000E+001
  0.94970052339E+005,  0.48270277605E+006,  0.16500000000E+002,  0.00000000000E+000,  0.10000000000E+001
  0.94970052373E+005,  0.48270277605E+006,  0.16500000000E+002,  0.00000000000E+000,  0.10000000000E+001
  0.94970052376E+005,  0.48270277605E+006,  0.16500000000E+002,  0.00000000000E+000,  0.10000000000E+001
  0.94970052389E+005,  0.48270277605E+006,  0.16500000000E+002,  0.00000000000E+000,  0.10000000000E+001
  0.94970052397E+005,  0.48270277605E+006,  0.16500000000E+002,  0.00000000000E+000,  0.10000000000E+001
