"           TIME(S)","              PRES","              TEMP","             SAT_G","             SAT_L"
  0.17592105000E+008,  0.21000000000E+007,  0.19000000000E+002,  0.00000000000E+000,  0.10000000000E+001
  0.17592130000E+008,  0.20999998228E+007,  0.19000000000E+002,  0.00000000000E+000,  0.10000000000E+001
  0.17592255000E+008,  0.20998609920E+007,  0.19000000000E+002,  0.00000000000E+000,  0.10000000000E+001
  0.17592405000E+008,  0.20994188610E+007,  0.19000000000E+002,  0.00000000000E+000,  0.10000000000E+001
  0.17592555000E+008,  0.20987675583E+007,  0.19000000000E+002,  0.00000000000E+000,  0.10000000000E+001
  0.17592705000E+008,  0.20980063765E+007,  0.19000000000E+002,  0.00000000000E+000,  0.10000000000E+001
  0.17592855000E+008,  0.20972111444E+007,  0.19000000000E+002,  0.00000000000E+000,  0.10000000000E+001
  0.17593005000E+008,  0.20964254173E+007,  0.19000000000E+002,  0.00000000000E+000,  0.10000000000E+001
  0.17593155000E+008,  0.20956689493E+007,  0.19000000000E+002,  0.00000000000E+000,  0.10000000000E+001
  0.17593305000E+008,  0.20949476770E+007,  0.19000000000E+002,  0.00000000000E+000,  0.10000000000E+001
  0.17593455000E+008,  0.20942607611E+007,  0.19000000000E+002,  0.00000000000E+000,  0.10000000000E+001
  0.17593605000E+008,  0.20936046595E+007,  0.19000000000E+002,  0.00000000000E+000,  0.10000000000E+001
  0.17593755000E+008,  0.20929751966E+007,  0.19000000000E+002,  0.00000000000E+000,  0.10000000000E+001
  0.17593905000E+008,  0.20923684839E+007,  0.19000000000E+002,  0.00000000000E+000,  0.10000000000E+001
  0.17594055000E+008,  0.20917812448E+007,  0.19000000000E+002,  0.00000000000E+000,  0.10000000000E+001
  0.17594205000E+008,  0.20912108585E+007,  0.19000000000E+002,  0.00000000000E+000,  0.10000000000E+001
  0.17594355000E+008,  0.20906552885E+007,  0.19000000000E+002,  0.00000000000E+000,  0.10000000000E+001
  0.17594505000E+008,  0.20901129762E+007,  0.19000000000E+002,  0.00000000000E+000,  0.10000000000E+001
  0.17594655000E+008,  0.20895827355E+007,  0.19000000000E+002,  0.00000000000E+000,  0.10000000000E+001
  0.17594805000E+008,  0.20890636615E+007,  0.19000000000E+002,  0.00000000000E+000,  0.10000000000E+001
  0.17594955000E+008,  0.20885550583E+007,  0.19000000000E+002,  0.00000000000E+000,  0.10000000000E+001
  0.17595105000E+008,  0.20880563832E+007,  0.19000000000E+002,  0.00000000000E+000,  0.10000000000E+001
  0.17595255000E+008,  0.20875667744E+007,  0.19000000000E+002,  0.00000000000E+000,  0.10000000000E+001
  0.17595330000E+008,  0.20873241190E+007,  0.19000000000E+002,  0.00000000000E+000,  0.10000000000E+001
  0.17595480000E+008,  0.20868465251E+007,  0.19000000000E+002,  0.00000000000E+000,  0.10000000000E+001
  0.17595555001E+008,  0.20866094048E+007,  0.19000000000E+002,  0.00000000000E+000,  0.10000000000E+001
  0.17595592501E+008,  0.20864912180E+007,  0.19000000000E+002,  0.00000000000E+000,  0.10000000000E+001
  0.17595742501E+008,  0.20860229184E+007,  0.19000000000E+002,  0.00000000000E+000,  0.10000000000E+001
  0.17595817502E+008,  0.20857896542E+007,  0.19000000000E+002,  0.00000000000E+000,  0.10000000000E+001
  0.17595855002E+008,  0.20856732048E+007,  0.19000000000E+002,  0.00000000000E+000,  0.10000000000E+001
  0.17596005002E+008,  0.20852069667E+007,  0.19000000000E+002,  0.00000000000E+000,  0.10000000000E+001
  0.17596080003E+008,  0.20849732721E+007,  0.19000000000E+002,  0.00000000000E+000,  0.10000000000E+001
  0.17596117503E+008,  0.20848562239E+007,  0.19000000000E+002,  0.00000000000E+000,  0.10000000000E+001
  0.17596136254E+008,  0.20847976424E+007,  0.19000000000E+002,  0.00000000000E+000,  0.10000000000E+001
  0.17596230005E+008,  0.20845028320E+007,  0.19000000000E+002,  0.00000000000E+000,  0.10000000000E+001
  0.17596276882E+008,  0.20843548908E+007,  0.19000000000E+002,  0.00000000000E+000,  0.10000000000E+001
  0.17596426882E+008,  0.20838714115E+007,  0.19000000000E+002,  0.00000000000E+000,  0.10000000000E+001
  0.17596501882E+008,  0.20836259989E+007,  0.19000000000E+002,  0.00000000000E+000,  0.10000000000E+001
  0.17596651882E+008,  0.20831201438E+007,  0.19000000000E+002,  0.00000000000E+000,  0.10000000000E+001
  0.17596801882E+008,  0.20826055331E+007,  0.19000000000E+002,  0.00000000000E+000,  0.10000000000E+001
  0.17596951882E+008,  0.20820886947E+007,  0.19000000000E+002,  0.00000000000E+000,  0.10000000000E+001
  0.17597101882E+008,  0.20815739400E+007,  0.19000000000E+002,  0.00000000000E+000,  0.10000000000E+001
  0.17597251882E+008,  0.20810634648E+007,  0.19000000000E+002,  0.00000000000E+000,  0.10000000000E+001
  0.17597401882E+008,  0.20805581015E+007,  0.19000000000E+002,  0.00000000000E+000,  0.10000000000E+001
  0.17597551882E+008,  0.20800579582E+007,  0.19000000000E+002,  0.00000000000E+000,  0.10000000000E+001
  0.17597701882E+008,  0.20795628151E+007,  0.19000000000E+002,  0.00000000000E+000,  0.10000000000E+001
  0.17597851882E+008,  0.20790723397E+007,  0.19000000000E+002,  0.00000000000E+000,  0.10000000000E+001
  0.17598001882E+008,  0.20785861896E+007,  0.19000000000E+002,  0.00000000000E+000,  0.10000000000E+001
  0.17598151882E+008,  0.20781040572E+007,  0.19000000000E+002,  0.00000000000E+000,  0.10000000000E+001
  0.17598301882E+008,  0.20776256832E+007,  0.19000000000E+002,  0.00000000000E+000,  0.10000000000E+001
  0.17598451882E+008,  0.20771508564E+007,  0.19000000000E+002,  0.00000000000E+000,  0.10000000000E+001
  0.17598601882E+008,  0.20766794087E+007,  0.19000000000E+002,  0.00000000000E+000,  0.10000000000E+001
  0.17598751882E+008,  0.20762112067E+007,  0.19000000000E+002,  0.00000000000E+000,  0.10000000000E+001
  0.17598901882E+008,  0.20757461457E+007,  0.19000000000E+002,  0.00000000000E+000,  0.10000000000E+001
  0.17599051882E+008,  0.20752841423E+007,  0.19000000000E+002,  0.00000000000E+000,  0.10000000000E+001
  0.17599201882E+008,  0.20748251302E+007,  0.19000000000E+002,  0.00000000000E+000,  0.10000000000E+001
  0.17599351882E+008,  0.20743690555E+007,  0.19000000000E+002,  0.00000000000E+000,  0.10000000000E+001
  0.17599501882E+008,  0.20739158740E+007,  0.19000000000E+002,  0.00000000000E+000,  0.10000000000E+001
  0.17599651882E+008,  0.20734655485E+007,  0.19000000000E+002,  0.00000000000E+000,  0.10000000000E+001
  0.17599801882E+008,  0.20730180472E+007,  0.19000000000E+002,  0.00000000000E+000,  0.10000000000E+001
  0.17599951882E+008,  0.20725733420E+007,  0.19000000000E+002,  0.00000000000E+000,  0.10000000000E+001
  0.17600101882E+008,  0.20721314081E+007,  0.19000000000E+002,  0.00000000000E+000,  0.10000000000E+001
  0.17600251882E+008,  0.20716922226E+007,  0.19000000000E+002,  0.00000000000E+000,  0.10000000000E+001
  0.17600401882E+008,  0.20712557644E+007,  0.19000000000E+002,  0.00000000000E+000,  0.10000000000E+001
  0.17600551882E+008,  0.20708220136E+007,  0.19000000000E+002,  0.00000000000E+000,  0.10000000000E+001
  0.17600701882E+008,  0.20703909510E+007,  0.19000000000E+002,  0.00000000000E+000,  0.10000000000E+001
  0.17600851882E+008,  0.20699625585E+007,  0.19000000000E+002,  0.00000000000E+000,  0.10000000000E+001
  0.17601001882E+008,  0.20695368183E+007,  0.19000000000E+002,  0.00000000000E+000,  0.10000000000E+001
  0.17601151882E+008,  0.20691137131E+007,  0.19000000000E+002,  0.00000000000E+000,  0.10000000000E+001
  0.17601301882E+008,  0.20686932259E+007,  0.19000000000E+002,  0.00000000000E+000,  0.10000000000E+001
  0.17601451882E+008,  0.20682753401E+007,  0.19000000000E+002,  0.00000000000E+000,  0.10000000000E+001
  0.17601601882E+008,  0.20678600391E+007,  0.19000000000E+002,  0.00000000000E+000,  0.10000000000E+001
  0.17601751882E+008,  0.20674473067E+007,  0.19000000000E+002,  0.00000000000E+000,  0.10000000000E+001
  0.17601901882E+008,  0.20670371269E+007,  0.19000000000E+002,  0.00000000000E+000,  0.10000000000E+001
  0.17602051882E+008,  0.20666294837E+007,  0.19000000000E+002,  0.00000000000E+000,  0.10000000000E+001
  0.17602201882E+008,  0.20662243613E+007,  0.19000000000E+002,  0.00000000000E+000,  0.10000000000E+001
  0.17602351882E+008,  0.20658217441E+007,  0.19000000000E+002,  0.00000000000E+000,  0.10000000000E+001
  0.17602501882E+008,  0.20654216164E+007,  0.19000000000E+002,  0.00000000000E+000,  0.10000000000E+001
  0.17602651882E+008,  0.20650239628E+007,  0.19000000000E+002,  0.00000000000E+000,  0.10000000000E+001
  0.17602801882E+008,  0.20646287681E+007,  0.19000000000E+002,  0.00000000000E+000,  0.10000000000E+001
  0.17602951882E+008,  0.20642360170E+007,  0.19000000000E+002,  0.00000000000E+000,  0.10000000000E+001
  0.17603101882E+008,  0.20638456944E+007,  0.19000000000E+002,  0.00000000000E+000,  0.10000000000E+001
  0.17603251882E+008,  0.20634577852E+007,  0.19000000000E+002,  0.00000000000E+000,  0.10000000000E+001
  0.17603401882E+008,  0.20630722746E+007,  0.19000000000E+002,  0.00000000000E+000,  0.10000000000E+001
  0.17603551882E+008,  0.20626891477E+007,  0.19000000000E+002,  0.00000000000E+000,  0.10000000000E+001
  0.17603701882E+008,  0.20623083897E+007,  0.19000000000E+002,  0.00000000000E+000,  0.10000000000E+001
  0.17603851882E+008,  0.20619299861E+007,  0.19000000000E+002,  0.00000000000E+000,  0.10000000000E+001
  0.17604001882E+008,  0.20615539222E+007,  0.19000000000E+002,  0.00000000000E+000,  0.10000000000E+001
  0.17604151882E+008,  0.20611801837E+007,  0.19000000000E+002,  0.00000000000E+000,  0.10000000000E+001
  0.17604301882E+008,  0.20608087561E+007,  0.19000000000E+002,  0.00000000000E+000,  0.10000000000E+001
  0.17604451882E+008,  0.20604396252E+007,  0.19000000000E+002,  0.00000000000E+000,  0.10000000000E+001
  0.17604601882E+008,  0.20600727768E+007,  0.19000000000E+002,  0.00000000000E+000,  0.10000000000E+001
  0.17604751882E+008,  0.20597081968E+007,  0.19000000000E+002,  0.00000000000E+000,  0.10000000000E+001
  0.17604901882E+008,  0.20593458712E+007,  0.19000000000E+002,  0.00000000000E+000,  0.10000000000E+001
  0.17605051882E+008,  0.20589857860E+007,  0.19000000000E+002,  0.00000000000E+000,  0.10000000000E+001
  0.17605201882E+008,  0.20586279274E+007,  0.19000000000E+002,  0.00000000000E+000,  0.10000000000E+001
  0.17605351882E+008,  0.20582722817E+007,  0.19000000000E+002,  0.00000000000E+000,  0.10000000000E+001
  0.17605501882E+008,  0.20579188352E+007,  0.19000000000E+002,  0.00000000000E+000,  0.10000000000E+001
  0.17605651882E+008,  0.20575675742E+007,  0.19000000000E+002,  0.00000000000E+000,  0.10000000000E+001
  0.17605801882E+008,  0.20572184854E+007,  0.19000000000E+002,  0.00000000000E+000,  0.10000000000E+001
  0.17605951882E+008,  0.20568715552E+007,  0.19000000000E+002,  0.00000000000E+000,  0.10000000000E+001
  0.17606101882E+008,  0.20565267704E+007,  0.19000000000E+002,  0.00000000000E+000,  0.10000000000E+001
  0.17606251882E+008,  0.20561841177E+007,  0.19000000000E+002,  0.00000000000E+000,  0.10000000000E+001
  0.17606401882E+008,  0.20558435839E+007,  0.19000000000E+002,  0.00000000000E+000,  0.10000000000E+001
  0.17606551882E+008,  0.20555051560E+007,  0.19000000000E+002,  0.00000000000E+000,  0.10000000000E+001
  0.17606701882E+008,  0.20551688208E+007,  0.19000000000E+002,  0.00000000000E+000,  0.10000000000E+001
  0.17606851882E+008,  0.20548345656E+007,  0.19000000000E+002,  0.00000000000E+000,  0.10000000000E+001
  0.17607001882E+008,  0.20545023774E+007,  0.19000000000E+002,  0.00000000000E+000,  0.10000000000E+001
  0.17607151882E+008,  0.20541722435E+007,  0.19000000000E+002,  0.00000000000E+000,  0.10000000000E+001
  0.17607301882E+008,  0.20538441511E+007,  0.19000000000E+002,  0.00000000000E+000,  0.10000000000E+001
  0.17607451882E+008,  0.20535180877E+007,  0.19000000000E+002,  0.00000000000E+000,  0.10000000000E+001
  0.17607601882E+008,  0.20531940408E+007,  0.19000000000E+002,  0.00000000000E+000,  0.10000000000E+001
  0.17607751882E+008,  0.20528719978E+007,  0.19000000000E+002,  0.00000000000E+000,  0.10000000000E+001
  0.17607901882E+008,  0.20525519464E+007,  0.19000000000E+002,  0.00000000000E+000,  0.10000000000E+001
  0.17608051882E+008,  0.20522338743E+007,  0.19000000000E+002,  0.00000000000E+000,  0.10000000000E+001
  0.17608201882E+008,  0.20519177692E+007,  0.19000000000E+002,  0.00000000000E+000,  0.10000000000E+001
  0.17608351882E+008,  0.20516036191E+007,  0.19000000000E+002,  0.00000000000E+000,  0.10000000000E+001
  0.17608501882E+008,  0.20512914117E+007,  0.19000000000E+002,  0.00000000000E+000,  0.10000000000E+001
  0.17608651882E+008,  0.20509811352E+007,  0.19000000000E+002,  0.00000000000E+000,  0.10000000000E+001
  0.17608801882E+008,  0.20506727775E+007,  0.19000000000E+002,  0.00000000000E+000,  0.10000000000E+001
  0.17608951882E+008,  0.20503663269E+007,  0.19000000000E+002,  0.00000000000E+000,  0.10000000000E+001
  0.17609101882E+008,  0.20500617715E+007,  0.19000000000E+002,  0.00000000000E+000,  0.10000000000E+001
  0.17609251882E+008,  0.20497590996E+007,  0.19000000000E+002,  0.00000000000E+000,  0.10000000000E+001
  0.17609401882E+008,  0.20494582996E+007,  0.19000000000E+002,  0.00000000000E+000,  0.10000000000E+001
  0.17609551882E+008,  0.20491593599E+007,  0.19000000000E+002,  0.00000000000E+000,  0.10000000000E+001
  0.17609701882E+008,  0.20488622690E+007,  0.19000000000E+002,  0.00000000000E+000,  0.10000000000E+001
  0.17609851882E+008,  0.20485670156E+007,  0.19000000000E+002,  0.00000000000E+000,  0.10000000000E+001
  0.17610001882E+008,  0.20482735881E+007,  0.19000000000E+002,  0.00000000000E+000,  0.10000000000E+001
  0.17610151882E+008,  0.20479819754E+007,  0.19000000000E+002,  0.00000000000E+000,  0.10000000000E+001
  0.17610301882E+008,  0.20476921662E+007,  0.19000000000E+002,  0.00000000000E+000,  0.10000000000E+001
  0.17610451882E+008,  0.20474041495E+007,  0.19000000000E+002,  0.00000000000E+000,  0.10000000000E+001
  0.17610601882E+008,  0.20471179140E+007,  0.19000000000E+002,  0.00000000000E+000,  0.10000000000E+001
  0.17610751882E+008,  0.20468334488E+007,  0.19000000000E+002,  0.00000000000E+000,  0.10000000000E+001
  0.17610901882E+008,  0.20465507429E+007,  0.19000000000E+002,  0.00000000000E+000,  0.10000000000E+001
  0.17611051882E+008,  0.20462697856E+007,  0.19000000000E+002,  0.00000000000E+000,  0.10000000000E+001
  0.17611201882E+008,  0.20459905658E+007,  0.19000000000E+002,  0.00000000000E+000,  0.10000000000E+001
  0.17611351882E+008,  0.20457130731E+007,  0.19000000000E+002,  0.00000000000E+000,  0.10000000000E+001
  0.17611501882E+008,  0.20454372965E+007,  0.19000000000E+002,  0.00000000000E+000,  0.10000000000E+001
  0.17611651882E+008,  0.20451632256E+007,  0.19000000000E+002,  0.00000000000E+000,  0.10000000000E+001
  0.17611801882E+008,  0.20448908498E+007,  0.19000000000E+002,  0.00000000000E+000,  0.10000000000E+001
  0.17611951882E+008,  0.20446201586E+007,  0.19000000000E+002,  0.00000000000E+000,  0.10000000000E+001
  0.17612101882E+008,  0.20443511417E+007,  0.19000000000E+002,  0.00000000000E+000,  0.10000000000E+001
  0.17612251882E+008,  0.20440837885E+007,  0.19000000000E+002,  0.00000000000E+000,  0.10000000000E+001
  0.17612401882E+008,  0.20438180890E+007,  0.19000000000E+002,  0.00000000000E+000,  0.10000000000E+001
  0.17612551882E+008,  0.20435540327E+007,  0.19000000000E+002,  0.00000000000E+000,  0.10000000000E+001
  0.17612701882E+008,  0.20432916097E+007,  0.19000000000E+002,  0.00000000000E+000,  0.10000000000E+001
  0.17612851882E+008,  0.20430308098E+007,  0.19000000000E+002,  0.00000000000E+000,  0.10000000000E+001
  0.17613001882E+008,  0.20427716228E+007,  0.19000000000E+002,  0.00000000000E+000,  0.10000000000E+001
  0.17613151882E+008,  0.20425140390E+007,  0.19000000000E+002,  0.00000000000E+000,  0.10000000000E+001
  0.17613301882E+008,  0.20422580484E+007,  0.19000000000E+002,  0.00000000000E+000,  0.10000000000E+001
  0.17613451882E+008,  0.20420036410E+007,  0.19000000000E+002,  0.00000000000E+000,  0.10000000000E+001
  0.17613601882E+008,  0.20417508072E+007,  0.19000000000E+002,  0.00000000000E+000,  0.10000000000E+001
  0.17613751882E+008,  0.20414995372E+007,  0.19000000000E+002,  0.00000000000E+000,  0.10000000000E+001
  0.17613901882E+008,  0.20412498213E+007,  0.19000000000E+002,  0.00000000000E+000,  0.10000000000E+001
  0.17614051882E+008,  0.20410016499E+007,  0.19000000000E+002,  0.00000000000E+000,  0.10000000000E+001
  0.17614201882E+008,  0.20407550135E+007,  0.19000000000E+002,  0.00000000000E+000,  0.10000000000E+001
  0.17614351882E+008,  0.20405099026E+007,  0.19000000000E+002,  0.00000000000E+000,  0.10000000000E+001
  0.17614501882E+008,  0.20402663077E+007,  0.19000000000E+002,  0.00000000000E+000,  0.10000000000E+001
  0.17614651882E+008,  0.20400242195E+007,  0.19000000000E+002,  0.00000000000E+000,  0.10000000000E+001
  0.17614801882E+008,  0.20397836287E+007,  0.19000000000E+002,  0.00000000000E+000,  0.10000000000E+001
  0.17614951882E+008,  0.20395445260E+007,  0.19000000000E+002,  0.00000000000E+000,  0.10000000000E+001
  0.17615101882E+008,  0.20393069021E+007,  0.19000000000E+002,  0.00000000000E+000,  0.10000000000E+001
  0.17615251882E+008,  0.20390707480E+007,  0.19000000000E+002,  0.00000000000E+000,  0.10000000000E+001
  0.17615401882E+008,  0.20388360546E+007,  0.19000000000E+002,  0.00000000000E+000,  0.10000000000E+001
  0.17615551882E+008,  0.20386028128E+007,  0.19000000000E+002,  0.00000000000E+000,  0.10000000000E+001
  0.17615701882E+008,  0.20383710136E+007,  0.19000000000E+002,  0.00000000000E+000,  0.10000000000E+001
  0.17615851882E+008,  0.20381406482E+007,  0.19000000000E+002,  0.00000000000E+000,  0.10000000000E+001
  0.17616001882E+008,  0.20379117077E+007,  0.19000000000E+002,  0.00000000000E+000,  0.10000000000E+001
  0.17616151882E+008,  0.20376841832E+007,  0.19000000000E+002,  0.00000000000E+000,  0.10000000000E+001
  0.17616301882E+008,  0.20374580660E+007,  0.19000000000E+002,  0.00000000000E+000,  0.10000000000E+001
  0.17616451882E+008,  0.20372333475E+007,  0.19000000000E+002,  0.00000000000E+000,  0.10000000000E+001
  0.17616601882E+008,  0.20370100188E+007,  0.19000000000E+002,  0.00000000000E+000,  0.10000000000E+001
  0.17616751882E+008,  0.20367880716E+007,  0.19000000000E+002,  0.00000000000E+000,  0.10000000000E+001
  0.17616901882E+008,  0.20365674971E+007,  0.19000000000E+002,  0.00000000000E+000,  0.10000000000E+001
  0.17617051882E+008,  0.20363482870E+007,  0.19000000000E+002,  0.00000000000E+000,  0.10000000000E+001
  0.17617201882E+008,  0.20361304327E+007,  0.19000000000E+002,  0.00000000000E+000,  0.10000000000E+001
  0.17617351882E+008,  0.20359139260E+007,  0.19000000000E+002,  0.00000000000E+000,  0.10000000000E+001
  0.17617501882E+008,  0.20356987584E+007,  0.19000000000E+002,  0.00000000000E+000,  0.10000000000E+001
  0.17617651882E+008,  0.20354849217E+007,  0.19000000000E+002,  0.00000000000E+000,  0.10000000000E+001
  0.17617801882E+008,  0.20352724077E+007,  0.19000000000E+002,  0.00000000000E+000,  0.10000000000E+001
  0.17617951882E+008,  0.20350612081E+007,  0.19000000000E+002,  0.00000000000E+000,  0.10000000000E+001
  0.17618101882E+008,  0.20348513149E+007,  0.19000000000E+002,  0.00000000000E+000,  0.10000000000E+001
  0.17618251882E+008,  0.20346427200E+007,  0.19000000000E+002,  0.00000000000E+000,  0.10000000000E+001
  0.17618401882E+008,  0.20344354153E+007,  0.19000000000E+002,  0.00000000000E+000,  0.10000000000E+001
  0.17618551882E+008,  0.20342293928E+007,  0.19000000000E+002,  0.00000000000E+000,  0.10000000000E+001
  0.17618701882E+008,  0.20340246447E+007,  0.19000000000E+002,  0.00000000000E+000,  0.10000000000E+001
  0.17618851882E+008,  0.20338211631E+007,  0.19000000000E+002,  0.00000000000E+000,  0.10000000000E+001
  0.17619001882E+008,  0.20336189401E+007,  0.19000000000E+002,  0.00000000000E+000,  0.10000000000E+001
  0.17619151882E+008,  0.20334179679E+007,  0.19000000000E+002,  0.00000000000E+000,  0.10000000000E+001
