"           TIME(S)","              PRES","              TEMP","             SAT_G","             SAT_L"
  0.50000000000E+000,  0.20000000000E+007,  0.19000000000E+002,  0.00000000000E+000,  0.10000000000E+001
  0.25000000000E+001,  0.20000000159E+007,  0.19000000000E+002,  0.00000000000E+000,  0.10000000000E+001
  0.45000000000E+001,  0.20000000907E+007,  0.19000000000E+002,  0.00000000000E+000,  0.10000000000E+001
  0.65000000000E+001,  0.20000002898E+007,  0.19000000000E+002,  0.00000000000E+000,  0.10000000000E+001
  0.85000000000E+001,  0.20000006837E+007,  0.19000000000E+002,  0.00000000000E+000,  0.10000000000E+001
  0.10500000000E+002,  0.20000013316E+007,  0.19000000000E+002,  0.00000000000E+000,  0.10000000000E+001
  0.12500000000E+002,  0.20000022703E+007,  0.19000000000E+002,  0.00000000000E+000,  0.10000000000E+001
  0.14500000000E+002,  0.20000035124E+007,  0.19000000000E+002,  0.00000000000E+000,  0.10000000000E+001
  0.16500000000E+002,  0.20000050490E+007,  0.19000000000E+002,  0.00000000000E+000,  0.10000000000E+001
  0.18500000000E+002,  0.20000068556E+007,  0.19000000000E+002,  0.00000000000E+000,  0.10000000000E+001
  0.20500000000E+002,  0.20000088985E+007,  0.19000000000E+002,  0.00000000000E+000,  0.10000000000E+001
  0.22500000000E+002,  0.20000111399E+007,  0.19000000000E+002,  0.00000000000E+000,  0.10000000000E+001
  0.24500000000E+002,  0.20000135416E+007,  0.19000000000E+002,  0.00000000000E+000,  0.10000000000E+001
  0.26500000000E+002,  0.20000160675E+007,  0.19000000000E+002,  0.00000000000E+000,  0.10000000000E+001
  0.28500000000E+002,  0.20000186854E+007,  0.19000000000E+002,  0.00000000000E+000,  0.10000000000E+001
  0.30500000000E+002,  0.20000213670E+007,  0.19000000000E+002,  0.00000000000E+000,  0.10000000000E+001
  0.32500000000E+002,  0.20000240884E+007,  0.19000000000E+002,  0.00000000000E+000,  0.10000000000E+001
  0.34500000000E+002,  0.20000268296E+007,  0.19000000000E+002,  0.00000000000E+000,  0.10000000000E+001
  0.36500000000E+002,  0.20000295745E+007,  0.19000000000E+002,  0.00000000000E+000,  0.10000000000E+001
  0.38500000000E+002,  0.20000323099E+007,  0.19000000000E+002,  0.00000000000E+000,  0.10000000000E+001
  0.40500000000E+002,  0.20000350257E+007,  0.19000000000E+002,  0.00000000000E+000,  0.10000000000E+001
  0.42500000000E+002,  0.20000377137E+007,  0.19000000000E+002,  0.00000000000E+000,  0.10000000000E+001
  0.44500000000E+002,  0.20000403679E+007,  0.19000000000E+002,  0.00000000000E+000,  0.10000000000E+001
  0.46500000000E+002,  0.20000429838E+007,  0.19000000000E+002,  0.00000000000E+000,  0.10000000000E+001
  0.48500000000E+002,  0.20000455582E+007,  0.19000000000E+002,  0.00000000000E+000,  0.10000000000E+001
  0.50500000000E+002,  0.20000480889E+007,  0.19000000000E+002,  0.00000000000E+000,  0.10000000000E+001
  0.52500000000E+002,  0.20000505745E+007,  0.19000000000E+002,  0.00000000000E+000,  0.10000000000E+001
  0.54500000000E+002,  0.20000530144E+007,  0.19000000000E+002,  0.00000000000E+000,  0.10000000000E+001
  0.56500000000E+002,  0.20000554086E+007,  0.19000000000E+002,  0.00000000000E+000,  0.10000000000E+001
  0.58500000000E+002,  0.20000577572E+007,  0.19000000000E+002,  0.00000000000E+000,  0.10000000000E+001
  0.60500000000E+002,  0.20000600610E+007,  0.19000000000E+002,  0.00000000000E+000,  0.10000000000E+001
  0.62500000000E+002,  0.20000623207E+007,  0.19000000000E+002,  0.00000000000E+000,  0.10000000000E+001
  0.64500000000E+002,  0.20000645376E+007,  0.19000000000E+002,  0.00000000000E+000,  0.10000000000E+001
  0.66500000000E+002,  0.20000667126E+007,  0.19000000000E+002,  0.00000000000E+000,  0.10000000000E+001
  0.68500000000E+002,  0.20000688473E+007,  0.19000000000E+002,  0.00000000000E+000,  0.10000000000E+001
  0.70500000000E+002,  0.20000709429E+007,  0.19000000000E+002,  0.00000000000E+000,  0.10000000000E+001
  0.72500000000E+002,  0.20000730009E+007,  0.19000000000E+002,  0.00000000000E+000,  0.10000000000E+001
  0.74500000000E+002,  0.20000750228E+007,  0.19000000000E+002,  0.00000000000E+000,  0.10000000000E+001
  0.76500000000E+002,  0.20000770098E+007,  0.19000000000E+002,  0.00000000000E+000,  0.10000000000E+001
  0.78500000000E+002,  0.20000789636E+007,  0.19000000000E+002,  0.00000000000E+000,  0.10000000000E+001
  0.80500000000E+002,  0.20000808854E+007,  0.19000000000E+002,  0.00000000000E+000,  0.10000000000E+001
  0.82500000000E+002,  0.20000827767E+007,  0.19000000000E+002,  0.00000000000E+000,  0.10000000000E+001
  0.84500000000E+002,  0.20000846389E+007,  0.19000000000E+002,  0.00000000000E+000,  0.10000000000E+001
  0.86500000000E+002,  0.20000864732E+007,  0.19000000000E+002,  0.00000000000E+000,  0.10000000000E+001
  0.88500000000E+002,  0.20000882809E+007,  0.19000000000E+002,  0.00000000000E+000,  0.10000000000E+001
  0.90500000000E+002,  0.20000900632E+007,  0.19000000000E+002,  0.00000000000E+000,  0.10000000000E+001
  0.92500000000E+002,  0.20000918214E+007,  0.19000000000E+002,  0.00000000000E+000,  0.10000000000E+001
  0.94500000000E+002,  0.20000935564E+007,  0.19000000000E+002,  0.00000000000E+000,  0.10000000000E+001
  0.96500000000E+002,  0.20000952695E+007,  0.19000000000E+002,  0.00000000000E+000,  0.10000000000E+001
  0.98500000000E+002,  0.20000969616E+007,  0.19000000000E+002,  0.00000000000E+000,  0.10000000000E+001
  0.10050000000E+003,  0.20000986338E+007,  0.19000000000E+002,  0.00000000000E+000,  0.10000000000E+001
  0.10250000000E+003,  0.20001002870E+007,  0.19000000000E+002,  0.00000000000E+000,  0.10000000000E+001
  0.10450000000E+003,  0.20001019220E+007,  0.19000000000E+002,  0.00000000000E+000,  0.10000000000E+001
  0.10650000000E+003,  0.20001035398E+007,  0.19000000000E+002,  0.00000000000E+000,  0.10000000000E+001
  0.10850000000E+003,  0.20001051411E+007,  0.19000000000E+002,  0.00000000000E+000,  0.10000000000E+001
  0.11050000000E+003,  0.20001067268E+007,  0.19000000000E+002,  0.00000000000E+000,  0.10000000000E+001
  0.11250000000E+003,  0.20001082975E+007,  0.19000000000E+002,  0.00000000000E+000,  0.10000000000E+001
  0.11450000000E+003,  0.20001098539E+007,  0.19000000000E+002,  0.00000000000E+000,  0.10000000000E+001
  0.11650000000E+003,  0.20001113968E+007,  0.19000000000E+002,  0.00000000000E+000,  0.10000000000E+001
  0.11850000000E+003,  0.20001129267E+007,  0.19000000000E+002,  0.00000000000E+000,  0.10000000000E+001
  0.12050000000E+003,  0.20001144442E+007,  0.19000000000E+002,  0.00000000000E+000,  0.10000000000E+001
  0.12250000000E+003,  0.20001159499E+007,  0.19000000000E+002,  0.00000000000E+000,  0.10000000000E+001
  0.12450000000E+003,  0.20001174443E+007,  0.19000000000E+002,  0.00000000000E+000,  0.10000000000E+001
  0.12650000000E+003,  0.20001189279E+007,  0.19000000000E+002,  0.00000000000E+000,  0.10000000000E+001
  0.12850000000E+003,  0.20001204012E+007,  0.19000000000E+002,  0.00000000000E+000,  0.10000000000E+001
  0.13050000000E+003,  0.20001218646E+007,  0.19000000000E+002,  0.00000000000E+000,  0.10000000000E+001
  0.13250000000E+003,  0.20001233186E+007,  0.19000000000E+002,  0.00000000000E+000,  0.10000000000E+001
  0.13450000000E+003,  0.20001247636E+007,  0.19000000000E+002,  0.00000000000E+000,  0.10000000000E+001
  0.13650000000E+003,  0.20001261998E+007,  0.19000000000E+002,  0.00000000000E+000,  0.10000000000E+001
  0.13850000000E+003,  0.20001276278E+007,  0.19000000000E+002,  0.00000000000E+000,  0.10000000000E+001
  0.14050000000E+003,  0.20001290478E+007,  0.19000000000E+002,  0.00000000000E+000,  0.10000000000E+001
  0.14250000000E+003,  0.20001304601E+007,  0.19000000000E+002,  0.00000000000E+000,  0.10000000000E+001
  0.14450000000E+003,  0.20001318651E+007,  0.19000000000E+002,  0.00000000000E+000,  0.10000000000E+001
  0.14650000000E+003,  0.20001332631E+007,  0.19000000000E+002,  0.00000000000E+000,  0.10000000000E+001
  0.14850000000E+003,  0.20001346542E+007,  0.19000000000E+002,  0.00000000000E+000,  0.10000000000E+001
  0.15050000000E+003,  0.20001360388E+007,  0.19000000000E+002,  0.00000000000E+000,  0.10000000000E+001
  0.15250000000E+003,  0.20001374170E+007,  0.19000000000E+002,  0.00000000000E+000,  0.10000000000E+001
  0.15450000000E+003,  0.20001387892E+007,  0.19000000000E+002,  0.00000000000E+000,  0.10000000000E+001
  0.15650000000E+003,  0.20001401555E+007,  0.19000000000E+002,  0.00000000000E+000,  0.10000000000E+001
  0.15850000000E+003,  0.20001415162E+007,  0.19000000000E+002,  0.00000000000E+000,  0.10000000000E+001
  0.16050000000E+003,  0.20001428714E+007,  0.19000000000E+002,  0.00000000000E+000,  0.10000000000E+001
  0.16250000000E+003,  0.20001442212E+007,  0.19000000000E+002,  0.00000000000E+000,  0.10000000000E+001
  0.16450000000E+003,  0.20001455660E+007,  0.19000000000E+002,  0.00000000000E+000,  0.10000000000E+001
  0.16650000000E+003,  0.20001469058E+007,  0.19000000000E+002,  0.00000000000E+000,  0.10000000000E+001
  0.16850000000E+003,  0.20001482408E+007,  0.19000000000E+002,  0.00000000000E+000,  0.10000000000E+001
  0.17050000000E+003,  0.20001495711E+007,  0.19000000000E+002,  0.00000000000E+000,  0.10000000000E+001
  0.17250000000E+003,  0.20001508969E+007,  0.19000000000E+002,  0.00000000000E+000,  0.10000000000E+001
  0.17450000000E+003,  0.20001522183E+007,  0.19000000000E+002,  0.00000000000E+000,  0.10000000000E+001
  0.17650000000E+003,  0.20001535354E+007,  0.19000000000E+002,  0.00000000000E+000,  0.10000000000E+001
  0.17850000000E+003,  0.20001548483E+007,  0.19000000000E+002,  0.00000000000E+000,  0.10000000000E+001
  0.18050000000E+003,  0.20001561572E+007,  0.19000000000E+002,  0.00000000000E+000,  0.10000000000E+001
  0.18250000000E+003,  0.20001574621E+007,  0.19000000000E+002,  0.00000000000E+000,  0.10000000000E+001
  0.18450000000E+003,  0.20001587632E+007,  0.19000000000E+002,  0.00000000000E+000,  0.10000000000E+001
  0.18650000000E+003,  0.20001600606E+007,  0.19000000000E+002,  0.00000000000E+000,  0.10000000000E+001
  0.18850000000E+003,  0.20001613542E+007,  0.19000000000E+002,  0.00000000000E+000,  0.10000000000E+001
  0.19050000000E+003,  0.20001626443E+007,  0.19000000000E+002,  0.00000000000E+000,  0.10000000000E+001
  0.19250000000E+003,  0.20001639309E+007,  0.19000000000E+002,  0.00000000000E+000,  0.10000000000E+001
  0.19450000000E+003,  0.20001652141E+007,  0.19000000000E+002,  0.00000000000E+000,  0.10000000000E+001
  0.19650000000E+003,  0.20001664938E+007,  0.19000000000E+002,  0.00000000000E+000,  0.10000000000E+001
  0.19850000000E+003,  0.20001677704E+007,  0.19000000000E+002,  0.00000000000E+000,  0.10000000000E+001
  0.20050000000E+003,  0.20001690436E+007,  0.19000000000E+002,  0.00000000000E+000,  0.10000000000E+001
  0.20250000000E+003,  0.20001703138E+007,  0.19000000000E+002,  0.00000000000E+000,  0.10000000000E+001
  0.20450000000E+003,  0.20001715808E+007,  0.19000000000E+002,  0.00000000000E+000,  0.10000000000E+001
  0.20650000000E+003,  0.20001728447E+007,  0.19000000000E+002,  0.00000000000E+000,  0.10000000000E+001
  0.20850000000E+003,  0.20001741057E+007,  0.19000000000E+002,  0.00000000000E+000,  0.10000000000E+001
  0.21050000000E+003,  0.20001753638E+007,  0.19000000000E+002,  0.00000000000E+000,  0.10000000000E+001
  0.21250000000E+003,  0.20001766189E+007,  0.19000000000E+002,  0.00000000000E+000,  0.10000000000E+001
  0.21450000000E+003,  0.20001778712E+007,  0.19000000000E+002,  0.00000000000E+000,  0.10000000000E+001
  0.21650000000E+003,  0.20001791207E+007,  0.19000000000E+002,  0.00000000000E+000,  0.10000000000E+001
  0.21850000000E+003,  0.20001803674E+007,  0.19000000000E+002,  0.00000000000E+000,  0.10000000000E+001
  0.22050000000E+003,  0.20001816114E+007,  0.19000000000E+002,  0.00000000000E+000,  0.10000000000E+001
  0.22250000000E+003,  0.20001828528E+007,  0.19000000000E+002,  0.00000000000E+000,  0.10000000000E+001
  0.22450000000E+003,  0.20001840914E+007,  0.19000000000E+002,  0.00000000000E+000,  0.10000000000E+001
  0.22650000000E+003,  0.20001853275E+007,  0.19000000000E+002,  0.00000000000E+000,  0.10000000000E+001
  0.22850000000E+003,  0.20001865610E+007,  0.19000000000E+002,  0.00000000000E+000,  0.10000000000E+001
  0.23050000000E+003,  0.20001877919E+007,  0.19000000000E+002,  0.00000000000E+000,  0.10000000000E+001
  0.23250000000E+003,  0.20001890203E+007,  0.19000000000E+002,  0.00000000000E+000,  0.10000000000E+001
  0.23450000000E+003,  0.20001902461E+007,  0.19000000000E+002,  0.00000000000E+000,  0.10000000000E+001
  0.23650000000E+003,  0.20001914693E+007,  0.19000000000E+002,  0.00000000000E+000,  0.10000000000E+001
  0.23850000000E+003,  0.20001926897E+007,  0.19000000000E+002,  0.00000000000E+000,  0.10000000000E+001
  0.24050000000E+003,  0.20001939070E+007,  0.19000000000E+002,  0.00000000000E+000,  0.10000000000E+001
  0.24250000000E+003,  0.20001951209E+007,  0.19000000000E+002,  0.00000000000E+000,  0.10000000000E+001
  0.24450000000E+003,  0.20001963312E+007,  0.19000000000E+002,  0.00000000000E+000,  0.10000000000E+001
  0.24650000000E+003,  0.20001975374E+007,  0.19000000000E+002,  0.00000000000E+000,  0.10000000000E+001
  0.24850000000E+003,  0.20001987394E+007,  0.19000000000E+002,  0.00000000000E+000,  0.10000000000E+001
  0.25050000000E+003,  0.20001999369E+007,  0.19000000000E+002,  0.00000000000E+000,  0.10000000000E+001
  0.25250000000E+003,  0.20002011297E+007,  0.19000000000E+002,  0.00000000000E+000,  0.10000000000E+001
  0.25450000000E+003,  0.20002023179E+007,  0.19000000000E+002,  0.00000000000E+000,  0.10000000000E+001
  0.25650000000E+003,  0.20002035014E+007,  0.19000000000E+002,  0.00000000000E+000,  0.10000000000E+001
  0.25850000000E+003,  0.20002046802E+007,  0.19000000000E+002,  0.00000000000E+000,  0.10000000000E+001
  0.26050000000E+003,  0.20002058545E+007,  0.19000000000E+002,  0.00000000000E+000,  0.10000000000E+001
  0.26250000000E+003,  0.20002070244E+007,  0.19000000000E+002,  0.00000000000E+000,  0.10000000000E+001
  0.26450000000E+003,  0.20002081901E+007,  0.19000000000E+002,  0.00000000000E+000,  0.10000000000E+001
  0.26650000000E+003,  0.20002093518E+007,  0.19000000000E+002,  0.00000000000E+000,  0.10000000000E+001
  0.26850000000E+003,  0.20002105096E+007,  0.19000000000E+002,  0.00000000000E+000,  0.10000000000E+001
  0.27050000000E+003,  0.20002116638E+007,  0.19000000000E+002,  0.00000000000E+000,  0.10000000000E+001
  0.27250000000E+003,  0.20002128144E+007,  0.19000000000E+002,  0.00000000000E+000,  0.10000000000E+001
  0.27450000000E+003,  0.20002139618E+007,  0.19000000000E+002,  0.00000000000E+000,  0.10000000000E+001
  0.27650000000E+003,  0.20002151060E+007,  0.19000000000E+002,  0.00000000000E+000,  0.10000000000E+001
  0.27850000000E+003,  0.20002162472E+007,  0.19000000000E+002,  0.00000000000E+000,  0.10000000000E+001
  0.28050000000E+003,  0.20002173856E+007,  0.19000000000E+002,  0.00000000000E+000,  0.10000000000E+001
  0.28250000000E+003,  0.20002185212E+007,  0.19000000000E+002,  0.00000000000E+000,  0.10000000000E+001
  0.28450000000E+003,  0.20002196541E+007,  0.19000000000E+002,  0.00000000000E+000,  0.10000000000E+001
  0.28650000000E+003,  0.20002207843E+007,  0.19000000000E+002,  0.00000000000E+000,  0.10000000000E+001
  0.28850000000E+003,  0.20002219116E+007,  0.19000000000E+002,  0.00000000000E+000,  0.10000000000E+001
  0.29050000000E+003,  0.20002230358E+007,  0.19000000000E+002,  0.00000000000E+000,  0.10000000000E+001
  0.29250000000E+003,  0.20002241568E+007,  0.19000000000E+002,  0.00000000000E+000,  0.10000000000E+001
  0.29450000000E+003,  0.20002252744E+007,  0.19000000000E+002,  0.00000000000E+000,  0.10000000000E+001
  0.29650000000E+003,  0.20002263885E+007,  0.19000000000E+002,  0.00000000000E+000,  0.10000000000E+001
  0.29850000000E+003,  0.20002274987E+007,  0.19000000000E+002,  0.00000000000E+000,  0.10000000000E+001
  0.30050000000E+003,  0.20002286049E+007,  0.19000000000E+002,  0.00000000000E+000,  0.10000000000E+001
  0.30250000000E+003,  0.20002297072E+007,  0.19000000000E+002,  0.00000000000E+000,  0.10000000000E+001
  0.30450000000E+003,  0.20002308051E+007,  0.19000000000E+002,  0.00000000000E+000,  0.10000000000E+001
  0.30650000000E+003,  0.20002318987E+007,  0.19000000000E+002,  0.00000000000E+000,  0.10000000000E+001
  0.30850000000E+003,  0.20002329876E+007,  0.19000000000E+002,  0.00000000000E+000,  0.10000000000E+001
  0.31050000000E+003,  0.20002340716E+007,  0.19000000000E+002,  0.00000000000E+000,  0.10000000000E+001
  0.31250000000E+003,  0.20002351505E+007,  0.19000000000E+002,  0.00000000000E+000,  0.10000000000E+001
  0.31450000000E+003,  0.20002362239E+007,  0.19000000000E+002,  0.00000000000E+000,  0.10000000000E+001
  0.31650000000E+003,  0.20002372912E+007,  0.19000000000E+002,  0.00000000000E+000,  0.10000000000E+001
  0.31850000000E+003,  0.20002383519E+007,  0.19000000000E+002,  0.00000000000E+000,  0.10000000000E+001
  0.32050000000E+003,  0.20002394053E+007,  0.19000000000E+002,  0.00000000000E+000,  0.10000000000E+001
  0.32250000000E+003,  0.20002404507E+007,  0.19000000000E+002,  0.00000000000E+000,  0.10000000000E+001
  0.32450000000E+003,  0.20002414876E+007,  0.19000000000E+002,  0.00000000000E+000,  0.10000000000E+001
  0.32650000000E+003,  0.20002425157E+007,  0.19000000000E+002,  0.00000000000E+000,  0.10000000000E+001
  0.32850000000E+003,  0.20002435348E+007,  0.19000000000E+002,  0.00000000000E+000,  0.10000000000E+001
  0.33050000000E+003,  0.20002445448E+007,  0.19000000000E+002,  0.00000000000E+000,  0.10000000000E+001
  0.33250000000E+003,  0.20002455458E+007,  0.19000000000E+002,  0.00000000000E+000,  0.10000000000E+001
  0.33450000000E+003,  0.20002465382E+007,  0.19000000000E+002,  0.00000000000E+000,  0.10000000000E+001
  0.33650000000E+003,  0.20002475221E+007,  0.19000000000E+002,  0.00000000000E+000,  0.10000000000E+001
  0.33850000000E+003,  0.20002484980E+007,  0.19000000000E+002,  0.00000000000E+000,  0.10000000000E+001
  0.34050000000E+003,  0.20002494664E+007,  0.19000000000E+002,  0.00000000000E+000,  0.10000000000E+001
  0.34250000000E+003,  0.20002504276E+007,  0.19000000000E+002,  0.00000000000E+000,  0.10000000000E+001
  0.34450000000E+003,  0.20002513821E+007,  0.19000000000E+002,  0.00000000000E+000,  0.10000000000E+001
  0.34650000000E+003,  0.20002523304E+007,  0.19000000000E+002,  0.00000000000E+000,  0.10000000000E+001
  0.34850000000E+003,  0.20002532730E+007,  0.19000000000E+002,  0.00000000000E+000,  0.10000000000E+001
  0.35050000000E+003,  0.20002542102E+007,  0.19000000000E+002,  0.00000000000E+000,  0.10000000000E+001
  0.35250000000E+003,  0.20002551425E+007,  0.19000000000E+002,  0.00000000000E+000,  0.10000000000E+001
  0.35450000000E+003,  0.20002560703E+007,  0.19000000000E+002,  0.00000000000E+000,  0.10000000000E+001
  0.35650000000E+003,  0.20002569938E+007,  0.19000000000E+002,  0.00000000000E+000,  0.10000000000E+001
  0.35850000000E+003,  0.20002579135E+007,  0.19000000000E+002,  0.00000000000E+000,  0.10000000000E+001
  0.36050000000E+003,  0.20002588298E+007,  0.19000000000E+002,  0.00000000000E+000,  0.10000000000E+001
  0.36250000000E+003,  0.20002597427E+007,  0.19000000000E+002,  0.00000000000E+000,  0.10000000000E+001
  0.36450000000E+003,  0.20002606527E+007,  0.19000000000E+002,  0.00000000000E+000,  0.10000000000E+001
  0.36650000000E+003,  0.20002615600E+007,  0.19000000000E+002,  0.00000000000E+000,  0.10000000000E+001
  0.36850000000E+003,  0.20002624648E+007,  0.19000000000E+002,  0.00000000000E+000,  0.10000000000E+001
  0.37050000000E+003,  0.20002633672E+007,  0.19000000000E+002,  0.00000000000E+000,  0.10000000000E+001
  0.37250000000E+003,  0.20002642676E+007,  0.19000000000E+002,  0.00000000000E+000,  0.10000000000E+001
  0.37450000000E+003,  0.20002651661E+007,  0.19000000000E+002,  0.00000000000E+000,  0.10000000000E+001
  0.37650000000E+003,  0.20002660627E+007,  0.19000000000E+002,  0.00000000000E+000,  0.10000000000E+001
