"           TIME(S)","              PRES","              TEMP","             SAT_G","             SAT_L"
  0.17593600000E+008,  0.20802312057E+007,  0.19000000000E+002,  0.00000000000E+000,  0.10000000000E+001
  0.17601100000E+008,  0.20579662659E+007,  0.19000000000E+002,  0.00000000000E+000,  0.10000000000E+001
  0.17616100000E+008,  0.20365058994E+007,  0.19000000000E+002,  0.00000000000E+000,  0.10000000000E+001
  0.17631100000E+008,  0.20232185003E+007,  0.19000000000E+002,  0.00000000000E+000,  0.10000000000E+001
  0.17646100000E+008,  0.20148791361E+007,  0.19000000000E+002,  0.00000000000E+000,  0.10000000000E+001
  0.17661100000E+008,  0.20096523871E+007,  0.19000000000E+002,  0.00000000000E+000,  0.10000000000E+001
  0.17676100000E+008,  0.20063808287E+007,  0.19000000000E+002,  0.00000000000E+000,  0.10000000000E+001
  0.17691100000E+008,  0.20043346143E+007,  0.19000000000E+002,  0.00000000000E+000,  0.10000000000E+001
  0.17706100000E+008,  0.20030553372E+007,  0.19000000000E+002,  0.00000000000E+000,  0.10000000000E+001
  0.17721100000E+008,  0.20022557384E+007,  0.19000000000E+002,  0.00000000000E+000,  0.10000000000E+001
  0.17736100000E+008,  0.20017560300E+007,  0.19000000000E+002,  0.00000000000E+000,  0.10000000000E+001
  0.17751100000E+008,  0.20014437652E+007,  0.19000000000E+002,  0.00000000000E+000,  0.10000000000E+001
  0.17766100000E+008,  0.20012486434E+007,  0.19000000000E+002,  0.00000000000E+000,  0.10000000000E+001
  0.17781100000E+008,  0.20011267236E+007,  0.19000000000E+002,  0.00000000000E+000,  0.10000000000E+001
  0.17796100000E+008,  0.20010505449E+007,  0.19000000000E+002,  0.00000000000E+000,  0.10000000000E+001
  0.17811100000E+008,  0.20010029475E+007,  0.19000000000E+002,  0.00000000000E+000,  0.10000000000E+001
  0.17826100000E+008,  0.20009732077E+007,  0.19000000000E+002,  0.00000000000E+000,  0.10000000000E+001
  0.17841100000E+008,  0.20009546260E+007,  0.19000000000E+002,  0.00000000000E+000,  0.10000000000E+001
  0.17856100000E+008,  0.20009430159E+007,  0.19000000000E+002,  0.00000000000E+000,  0.10000000000E+001
  0.17871100000E+008,  0.20009695381E+007,  0.19000000000E+002,  0.00000000000E+000,  0.10000000000E+001
  0.17886100000E+008,  0.20009919756E+007,  0.19000000000E+002,  0.00000000000E+000,  0.10000000000E+001
  0.17901100000E+008,  0.20010061513E+007,  0.19000000000E+002,  0.00000000000E+000,  0.10000000000E+001
  0.17916100000E+008,  0.20010280164E+007,  0.19000000000E+002,  0.00000000000E+000,  0.10000000000E+001
  0.17931100000E+008,  0.20010616669E+007,  0.19000000000E+002,  0.00000000000E+000,  0.10000000000E+001
  0.17946100000E+008,  0.20010835888E+007,  0.19000000000E+002,  0.00000000000E+000,  0.10000000000E+001
  0.17961100000E+008,  0.20010959252E+007,  0.19000000000E+002,  0.00000000000E+000,  0.10000000000E+001
  0.17976100000E+008,  0.20011017328E+007,  0.19000000000E+002,  0.00000000000E+000,  0.10000000000E+001
  0.17991100000E+008,  0.20011038601E+007,  0.19000000000E+002,  0.00000000000E+000,  0.10000000000E+001
  0.18006100000E+008,  0.20011038686E+007,  0.19000000000E+002,  0.00000000000E+000,  0.10000000000E+001
  0.18021100000E+008,  0.20011029501E+007,  0.19000000000E+002,  0.00000000000E+000,  0.10000000000E+001
  0.18036100000E+008,  0.20011018131E+007,  0.19000000000E+002,  0.00000000000E+000,  0.10000000000E+001
  0.18051100000E+008,  0.20011000428E+007,  0.19000000000E+002,  0.00000000000E+000,  0.10000000000E+001
  0.18066100000E+008,  0.20010978682E+007,  0.19000000000E+002,  0.00000000000E+000,  0.10000000000E+001
  0.18081100000E+008,  0.20011248627E+007,  0.19000000000E+002,  0.00000000000E+000,  0.10000000000E+001
  0.18096100000E+008,  0.20011496659E+007,  0.19000000000E+002,  0.00000000000E+000,  0.10000000000E+001
  0.18111100000E+008,  0.20011638727E+007,  0.19000000000E+002,  0.00000000000E+000,  0.10000000000E+001
  0.18126100000E+008,  0.20011835276E+007,  0.19000000000E+002,  0.00000000000E+000,  0.10000000000E+001
  0.18141100000E+008,  0.20012269619E+007,  0.19000000000E+002,  0.00000000000E+000,  0.10000000000E+001
  0.18156100000E+008,  0.20012536859E+007,  0.19000000000E+002,  0.00000000000E+000,  0.10000000000E+001
  0.18171100000E+008,  0.20012665931E+007,  0.19000000000E+002,  0.00000000000E+000,  0.10000000000E+001
  0.18186100000E+008,  0.20012721335E+007,  0.19000000000E+002,  0.00000000000E+000,  0.10000000000E+001
  0.18201100000E+008,  0.20012725733E+007,  0.19000000000E+002,  0.00000000000E+000,  0.10000000000E+001
  0.18216100000E+008,  0.20012695852E+007,  0.19000000000E+002,  0.00000000000E+000,  0.10000000000E+001
  0.18231100000E+008,  0.20012651009E+007,  0.19000000000E+002,  0.00000000000E+000,  0.10000000000E+001
  0.18246100000E+008,  0.20012610538E+007,  0.19000000000E+002,  0.00000000000E+000,  0.10000000000E+001
  0.18261100000E+008,  0.20013046521E+007,  0.19000000000E+002,  0.00000000000E+000,  0.10000000000E+001
  0.18276100000E+008,  0.20015455603E+007,  0.19000000000E+002,  0.00000000000E+000,  0.10000000000E+001
  0.18291100000E+008,  0.20017493824E+007,  0.19000000000E+002,  0.00000000000E+000,  0.10000000000E+001
  0.18306100000E+008,  0.20019027423E+007,  0.19000000000E+002,  0.00000000000E+000,  0.10000000000E+001
  0.18321100000E+008,  0.20020179451E+007,  0.19000000000E+002,  0.00000000000E+000,  0.10000000000E+001
  0.18336100000E+008,  0.20021091587E+007,  0.19000000000E+002,  0.00000000000E+000,  0.10000000000E+001
  0.18351100000E+008,  0.20021897221E+007,  0.19000000000E+002,  0.00000000000E+000,  0.10000000000E+001
  0.18366100000E+008,  0.20022590903E+007,  0.19000000000E+002,  0.00000000000E+000,  0.10000000000E+001
  0.18381100000E+008,  0.20023205853E+007,  0.19000000000E+002,  0.00000000000E+000,  0.10000000000E+001
  0.18396100000E+008,  0.20023853857E+007,  0.19000000000E+002,  0.00000000000E+000,  0.10000000000E+001
  0.18411100000E+008,  0.20024507090E+007,  0.19000000000E+002,  0.00000000000E+000,  0.10000000000E+001
  0.18426100000E+008,  0.20025111032E+007,  0.19000000000E+002,  0.00000000000E+000,  0.10000000000E+001
  0.18441100000E+008,  0.20025684114E+007,  0.19000000000E+002,  0.00000000000E+000,  0.10000000000E+001
  0.18456100000E+008,  0.20026323226E+007,  0.19000000000E+002,  0.00000000000E+000,  0.10000000000E+001
  0.18471100000E+008,  0.20026927305E+007,  0.19000000000E+002,  0.00000000000E+000,  0.10000000000E+001
  0.18486100000E+008,  0.20027495106E+007,  0.19000000000E+002,  0.00000000000E+000,  0.10000000000E+001
  0.18501100000E+008,  0.20028101338E+007,  0.19000000000E+002,  0.00000000000E+000,  0.10000000000E+001
  0.18516100000E+008,  0.20028732101E+007,  0.19000000000E+002,  0.00000000000E+000,  0.10000000000E+001
  0.18531100000E+008,  0.20029328256E+007,  0.19000000000E+002,  0.00000000000E+000,  0.10000000000E+001
  0.18546100000E+008,  0.20029897004E+007,  0.19000000000E+002,  0.00000000000E+000,  0.10000000000E+001
  0.18561100000E+008,  0.20030594294E+007,  0.19000000000E+002,  0.00000000000E+000,  0.10000000000E+001
  0.18576100000E+008,  0.20031253866E+007,  0.19000000000E+002,  0.00000000000E+000,  0.10000000000E+001
  0.18591100000E+008,  0.20031866548E+007,  0.19000000000E+002,  0.00000000000E+000,  0.10000000000E+001
  0.18606100000E+008,  0.20032483577E+007,  0.19000000000E+002,  0.00000000000E+000,  0.10000000000E+001
  0.18621100000E+008,  0.20033111135E+007,  0.19000000000E+002,  0.00000000000E+000,  0.10000000000E+001
  0.18636100000E+008,  0.20033708358E+007,  0.19000000000E+002,  0.00000000000E+000,  0.10000000000E+001
  0.18651100000E+008,  0.20034278515E+007,  0.19000000000E+002,  0.00000000000E+000,  0.10000000000E+001
  0.18666100000E+008,  0.20035069256E+007,  0.19000000000E+002,  0.00000000000E+000,  0.10000000000E+001
  0.18681100000E+008,  0.20035822890E+007,  0.19000000000E+002,  0.00000000000E+000,  0.10000000000E+001
  0.18696100000E+008,  0.20036508829E+007,  0.19000000000E+002,  0.00000000000E+000,  0.10000000000E+001
  0.18698900000E+008,  0.20036642835E+007,  0.19000000000E+002,  0.00000000000E+000,  0.10000000000E+001
  0.18713900000E+008,  0.20037351694E+007,  0.19000000000E+002,  0.00000000000E+000,  0.10000000000E+001
  0.18728900000E+008,  0.20038059840E+007,  0.19000000000E+002,  0.00000000000E+000,  0.10000000000E+001
  0.18743900000E+008,  0.20038748995E+007,  0.19000000000E+002,  0.00000000000E+000,  0.10000000000E+001
  0.18758900000E+008,  0.20039439895E+007,  0.19000000000E+002,  0.00000000000E+000,  0.10000000000E+001
  0.18773900000E+008,  0.20040229012E+007,  0.19000000000E+002,  0.00000000000E+000,  0.10000000000E+001
  0.18788900000E+008,  0.20040966077E+007,  0.19000000000E+002,  0.00000000000E+000,  0.10000000000E+001
  0.18803900000E+008,  0.20041645164E+007,  0.19000000000E+002,  0.00000000000E+000,  0.10000000000E+001
  0.18818900000E+008,  0.20042386414E+007,  0.19000000000E+002,  0.00000000000E+000,  0.10000000000E+001
  0.18833900000E+008,  0.20043169338E+007,  0.19000000000E+002,  0.00000000000E+000,  0.10000000000E+001
  0.18848900000E+008,  0.20043897545E+007,  0.19000000000E+002,  0.00000000000E+000,  0.10000000000E+001
  0.18863900000E+008,  0.20044579273E+007,  0.19000000000E+002,  0.00000000000E+000,  0.10000000000E+001
  0.18878900000E+008,  0.20045458132E+007,  0.19000000000E+002,  0.00000000000E+000,  0.10000000000E+001
  0.18893900000E+008,  0.20046282557E+007,  0.19000000000E+002,  0.00000000000E+000,  0.10000000000E+001
  0.18908900000E+008,  0.20047030979E+007,  0.19000000000E+002,  0.00000000000E+000,  0.10000000000E+001
  0.18923900000E+008,  0.20047848996E+007,  0.19000000000E+002,  0.00000000000E+000,  0.10000000000E+001
  0.18938900000E+008,  0.20048745473E+007,  0.19000000000E+002,  0.00000000000E+000,  0.10000000000E+001
  0.18953900000E+008,  0.20049570478E+007,  0.19000000000E+002,  0.00000000000E+000,  0.10000000000E+001
  0.18968900000E+008,  0.20050321734E+007,  0.19000000000E+002,  0.00000000000E+000,  0.10000000000E+001
  0.18983900000E+008,  0.20051327004E+007,  0.19000000000E+002,  0.00000000000E+000,  0.10000000000E+001
  0.18998900000E+008,  0.20052276790E+007,  0.19000000000E+002,  0.00000000000E+000,  0.10000000000E+001
  0.19013900000E+008,  0.20053125844E+007,  0.19000000000E+002,  0.00000000000E+000,  0.10000000000E+001
  0.19028900000E+008,  0.20053980010E+007,  0.19000000000E+002,  0.00000000000E+000,  0.10000000000E+001
  0.19043900000E+008,  0.20054881898E+007,  0.19000000000E+002,  0.00000000000E+000,  0.10000000000E+001
  0.19058900000E+008,  0.20055715630E+007,  0.19000000000E+002,  0.00000000000E+000,  0.10000000000E+001
  0.19073900000E+008,  0.20056481132E+007,  0.19000000000E+002,  0.00000000000E+000,  0.10000000000E+001
  0.19088900000E+008,  0.20057518866E+007,  0.19000000000E+002,  0.00000000000E+000,  0.10000000000E+001
  0.19103900000E+008,  0.20058528450E+007,  0.19000000000E+002,  0.00000000000E+000,  0.10000000000E+001
  0.19118900000E+008,  0.20059433186E+007,  0.19000000000E+002,  0.00000000000E+000,  0.10000000000E+001
  0.19133900000E+008,  0.20060350003E+007,  0.19000000000E+002,  0.00000000000E+000,  0.10000000000E+001
  0.19148900000E+008,  0.20061369535E+007,  0.19000000000E+002,  0.00000000000E+000,  0.10000000000E+001
  0.19163900000E+008,  0.20062307831E+007,  0.19000000000E+002,  0.00000000000E+000,  0.10000000000E+001
  0.19178900000E+008,  0.20063155940E+007,  0.19000000000E+002,  0.00000000000E+000,  0.10000000000E+001
  0.19193900000E+008,  0.20064268065E+007,  0.19000000000E+002,  0.00000000000E+000,  0.10000000000E+001
  0.19208900000E+008,  0.20065373256E+007,  0.19000000000E+002,  0.00000000000E+000,  0.10000000000E+001
  0.19223900000E+008,  0.20066361192E+007,  0.19000000000E+002,  0.00000000000E+000,  0.10000000000E+001
  0.19238900000E+008,  0.20067321030E+007,  0.19000000000E+002,  0.00000000000E+000,  0.10000000000E+001
  0.19253900000E+008,  0.20068372087E+007,  0.19000000000E+002,  0.00000000000E+000,  0.10000000000E+001
  0.19268900000E+008,  0.20069340849E+007,  0.19000000000E+002,  0.00000000000E+000,  0.10000000000E+001
  0.19283900000E+008,  0.20070218265E+007,  0.19000000000E+002,  0.00000000000E+000,  0.10000000000E+001
  0.19298900000E+008,  0.20071411944E+007,  0.19000000000E+002,  0.00000000000E+000,  0.10000000000E+001
  0.19313900000E+008,  0.20072644113E+007,  0.19000000000E+002,  0.00000000000E+000,  0.10000000000E+001
  0.19328900000E+008,  0.20073742810E+007,  0.19000000000E+002,  0.00000000000E+000,  0.10000000000E+001
  0.19343900000E+008,  0.20074824963E+007,  0.19000000000E+002,  0.00000000000E+000,  0.10000000000E+001
  0.19358900000E+008,  0.20076158740E+007,  0.19000000000E+002,  0.00000000000E+000,  0.10000000000E+001
  0.19373900000E+008,  0.20077379263E+007,  0.19000000000E+002,  0.00000000000E+000,  0.10000000000E+001
  0.19388900000E+008,  0.20078449355E+007,  0.19000000000E+002,  0.00000000000E+000,  0.10000000000E+001
  0.19403900000E+008,  0.20067117547E+007,  0.19000000000E+002,  0.00000000000E+000,  0.10000000000E+001
  0.19418900000E+008,  0.20051358146E+007,  0.19000000000E+002,  0.00000000000E+000,  0.10000000000E+001
  0.19433900000E+008,  0.20038844059E+007,  0.19000000000E+002,  0.00000000000E+000,  0.10000000000E+001
  0.19448900000E+008,  0.20029935803E+007,  0.19000000000E+002,  0.00000000000E+000,  0.10000000000E+001
  0.19463900000E+008,  0.20023363073E+007,  0.19000000000E+002,  0.00000000000E+000,  0.10000000000E+001
  0.19478900000E+008,  0.20018794193E+007,  0.19000000000E+002,  0.00000000000E+000,  0.10000000000E+001
  0.19493900000E+008,  0.20015686693E+007,  0.19000000000E+002,  0.00000000000E+000,  0.10000000000E+001
  0.19508900000E+008,  0.20013918567E+007,  0.19000000000E+002,  0.00000000000E+000,  0.10000000000E+001
  0.19523900000E+008,  0.20012991549E+007,  0.19000000000E+002,  0.00000000000E+000,  0.10000000000E+001
  0.19538900000E+008,  0.20012429647E+007,  0.19000000000E+002,  0.00000000000E+000,  0.10000000000E+001
  0.19553900000E+008,  0.20012005193E+007,  0.19000000000E+002,  0.00000000000E+000,  0.10000000000E+001
  0.19568900000E+008,  0.20011251116E+007,  0.19000000000E+002,  0.00000000000E+000,  0.10000000000E+001
  0.19583900000E+008,  0.20010624235E+007,  0.19000000000E+002,  0.00000000000E+000,  0.10000000000E+001
  0.19598900000E+008,  0.20010177819E+007,  0.19000000000E+002,  0.00000000000E+000,  0.10000000000E+001
  0.19613900000E+008,  0.20009946884E+007,  0.19000000000E+002,  0.00000000000E+000,  0.10000000000E+001
  0.19628900000E+008,  0.20009863309E+007,  0.19000000000E+002,  0.00000000000E+000,  0.10000000000E+001
  0.19643900000E+008,  0.20009824359E+007,  0.19000000000E+002,  0.00000000000E+000,  0.10000000000E+001
  0.19658900000E+008,  0.20009835841E+007,  0.19000000000E+002,  0.00000000000E+000,  0.10000000000E+001
  0.19673900000E+008,  0.20010461652E+007,  0.19000000000E+002,  0.00000000000E+000,  0.10000000000E+001
  0.19688900000E+008,  0.20011040693E+007,  0.19000000000E+002,  0.00000000000E+000,  0.10000000000E+001
  0.19703900000E+008,  0.20011462928E+007,  0.19000000000E+002,  0.00000000000E+000,  0.10000000000E+001
  0.19718900000E+008,  0.20011352441E+007,  0.19000000000E+002,  0.00000000000E+000,  0.10000000000E+001
  0.19733900000E+008,  0.20010806291E+007,  0.19000000000E+002,  0.00000000000E+000,  0.10000000000E+001
  0.19748900000E+008,  0.20010323283E+007,  0.19000000000E+002,  0.00000000000E+000,  0.10000000000E+001
  0.19763900000E+008,  0.20009974770E+007,  0.19000000000E+002,  0.00000000000E+000,  0.10000000000E+001
  0.19778900000E+008,  0.20009798973E+007,  0.19000000000E+002,  0.00000000000E+000,  0.10000000000E+001
  0.19793900000E+008,  0.20009696668E+007,  0.19000000000E+002,  0.00000000000E+000,  0.10000000000E+001
  0.19805800000E+008,  0.20009640681E+007,  0.19000000000E+002,  0.00000000000E+000,  0.10000000000E+001
  0.19820800000E+008,  0.20009577967E+007,  0.19000000000E+002,  0.00000000000E+000,  0.10000000000E+001
  0.19835800000E+008,  0.20009483266E+007,  0.19000000000E+002,  0.00000000000E+000,  0.10000000000E+001
  0.19850800000E+008,  0.20009406259E+007,  0.19000000000E+002,  0.00000000000E+000,  0.10000000000E+001
  0.19865800000E+008,  0.20009351696E+007,  0.19000000000E+002,  0.00000000000E+000,  0.10000000000E+001
  0.19880800000E+008,  0.20009731893E+007,  0.19000000000E+002,  0.00000000000E+000,  0.10000000000E+001
  0.19895800000E+008,  0.20010257022E+007,  0.19000000000E+002,  0.00000000000E+000,  0.10000000000E+001
  0.19910800000E+008,  0.20010674050E+007,  0.19000000000E+002,  0.00000000000E+000,  0.10000000000E+001
  0.19925800000E+008,  0.20010979894E+007,  0.19000000000E+002,  0.00000000000E+000,  0.10000000000E+001
  0.19940800000E+008,  0.20011244339E+007,  0.19000000000E+002,  0.00000000000E+000,  0.10000000000E+001
  0.19955800000E+008,  0.20011437445E+007,  0.19000000000E+002,  0.00000000000E+000,  0.10000000000E+001
  0.19970800000E+008,  0.20011570861E+007,  0.19000000000E+002,  0.00000000000E+000,  0.10000000000E+001
  0.19985800000E+008,  0.20011240020E+007,  0.19000000000E+002,  0.00000000000E+000,  0.10000000000E+001
  0.20000800000E+008,  0.20010685797E+007,  0.19000000000E+002,  0.00000000000E+000,  0.10000000000E+001
  0.20015800000E+008,  0.20010233324E+007,  0.19000000000E+002,  0.00000000000E+000,  0.10000000000E+001
  0.20030800000E+008,  0.20009912570E+007,  0.19000000000E+002,  0.00000000000E+000,  0.10000000000E+001
  0.20045800000E+008,  0.20009693290E+007,  0.19000000000E+002,  0.00000000000E+000,  0.10000000000E+001
  0.20060800000E+008,  0.20009544840E+007,  0.19000000000E+002,  0.00000000000E+000,  0.10000000000E+001
  0.20075800000E+008,  0.20009444607E+007,  0.19000000000E+002,  0.00000000000E+000,  0.10000000000E+001
  0.20090800000E+008,  0.20009683526E+007,  0.19000000000E+002,  0.00000000000E+000,  0.10000000000E+001
  0.20105800000E+008,  0.20010133048E+007,  0.19000000000E+002,  0.00000000000E+000,  0.10000000000E+001
  0.20120800000E+008,  0.20010505717E+007,  0.19000000000E+002,  0.00000000000E+000,  0.10000000000E+001
  0.20135800000E+008,  0.20010739992E+007,  0.19000000000E+002,  0.00000000000E+000,  0.10000000000E+001
  0.20150800000E+008,  0.20010406902E+007,  0.19000000000E+002,  0.00000000000E+000,  0.10000000000E+001
  0.20165800000E+008,  0.20010057121E+007,  0.19000000000E+002,  0.00000000000E+000,  0.10000000000E+001
  0.20180800000E+008,  0.20009796015E+007,  0.19000000000E+002,  0.00000000000E+000,  0.10000000000E+001
  0.20195800000E+008,  0.20009615120E+007,  0.19000000000E+002,  0.00000000000E+000,  0.10000000000E+001
  0.20210800000E+008,  0.20009492211E+007,  0.19000000000E+002,  0.00000000000E+000,  0.10000000000E+001
  0.20225800000E+008,  0.20009409136E+007,  0.19000000000E+002,  0.00000000000E+000,  0.10000000000E+001
  0.20240800000E+008,  0.20009353066E+007,  0.19000000000E+002,  0.00000000000E+000,  0.10000000000E+001
  0.20255800000E+008,  0.20009315237E+007,  0.19000000000E+002,  0.00000000000E+000,  0.10000000000E+001
  0.20270800000E+008,  0.20009289717E+007,  0.19000000000E+002,  0.00000000000E+000,  0.10000000000E+001
  0.20285800000E+008,  0.20009272502E+007,  0.19000000000E+002,  0.00000000000E+000,  0.10000000000E+001
  0.20300800000E+008,  0.20009472235E+007,  0.19000000000E+002,  0.00000000000E+000,  0.10000000000E+001
  0.20315800000E+008,  0.20009902491E+007,  0.19000000000E+002,  0.00000000000E+000,  0.10000000000E+001
  0.20330800000E+008,  0.20010265331E+007,  0.19000000000E+002,  0.00000000000E+000,  0.10000000000E+001
  0.20345800000E+008,  0.20010524676E+007,  0.19000000000E+002,  0.00000000000E+000,  0.10000000000E+001
  0.20360800000E+008,  0.20010279569E+007,  0.19000000000E+002,  0.00000000000E+000,  0.10000000000E+001
  0.20375800000E+008,  0.20009976569E+007,  0.19000000000E+002,  0.00000000000E+000,  0.10000000000E+001
  0.20390800000E+008,  0.20009742812E+007,  0.19000000000E+002,  0.00000000000E+000,  0.10000000000E+001
