"           TIME(S)","              PRES","              TEMP","             SAT_G","             SAT_L"
  0.18228740000E+008,  0.20000518533E+007,  0.19000000000E+002,  0.00000000000E+000,  0.10000000000E+001
  0.18228890000E+008,  0.20003382511E+007,  0.19000000000E+002,  0.00000000000E+000,  0.10000000000E+001
  0.18229040000E+008,  0.20006205074E+007,  0.19000000000E+002,  0.00000000000E+000,  0.10000000000E+001
  0.18229190000E+008,  0.20008875056E+007,  0.19000000000E+002,  0.00000000000E+000,  0.10000000000E+001
  0.18229340000E+008,  0.20011431036E+007,  0.19000000000E+002,  0.00000000000E+000,  0.10000000000E+001
  0.18229415000E+008,  0.20013109534E+007,  0.19000000000E+002,  0.00000000000E+000,  0.10000000000E+001
  0.18229452501E+008,  0.20014018040E+007,  0.19000000000E+002,  0.00000000000E+000,  0.10000000000E+001
  0.18229471251E+008,  0.20014512054E+007,  0.19000000000E+002,  0.00000000000E+000,  0.10000000000E+001
  0.18229480626E+008,  0.20014767700E+007,  0.19000000000E+002,  0.00000000000E+000,  0.10000000000E+001
  0.18229485314E+008,  0.20014897406E+007,  0.19000000000E+002,  0.00000000000E+000,  0.10000000000E+001
  0.18229487658E+008,  0.20014962679E+007,  0.19000000000E+002,  0.00000000000E+000,  0.10000000000E+001
  0.18229488829E+008,  0.20014995413E+007,  0.19000000000E+002,  0.00000000000E+000,  0.10000000000E+001
  0.18229494689E+008,  0.20015159161E+007,  0.19000000000E+002,  0.00000000000E+000,  0.10000000000E+001
  0.18229523987E+008,  0.20015853979E+007,  0.19000000000E+002,  0.00000000000E+000,  0.10000000000E+001
  0.18229670477E+008,  0.20017990885E+007,  0.19000000000E+002,  0.00000000000E+000,  0.10000000000E+001
  0.18229743722E+008,  0.20021020574E+007,  0.19000000000E+002,  0.00000000000E+000,  0.10000000000E+001
  0.18229893722E+008,  0.20029718660E+007,  0.19000000000E+002,  0.00000000000E+000,  0.10000000000E+001
  0.18230043722E+008,  0.20039253480E+007,  0.19000000000E+002,  0.00000000000E+000,  0.10000000000E+001
  0.18230193722E+008,  0.20049345613E+007,  0.19000000000E+002,  0.00000000000E+000,  0.10000000000E+001
  0.18230343722E+008,  0.20059889574E+007,  0.19000000000E+002,  0.00000000000E+000,  0.10000000000E+001
  0.18230493722E+008,  0.20070801092E+007,  0.19000000000E+002,  0.00000000000E+000,  0.10000000000E+001
  0.18230643722E+008,  0.20082007121E+007,  0.19000000000E+002,  0.00000000000E+000,  0.10000000000E+001
  0.18230793722E+008,  0.20093446193E+007,  0.19000000000E+002,  0.00000000000E+000,  0.10000000000E+001
  0.18230943722E+008,  0.20105067820E+007,  0.19000000000E+002,  0.00000000000E+000,  0.10000000000E+001
  0.18231093722E+008,  0.20116831101E+007,  0.19000000000E+002,  0.00000000000E+000,  0.10000000000E+001
  0.18231243722E+008,  0.20128703153E+007,  0.19000000000E+002,  0.00000000000E+000,  0.10000000000E+001
  0.18231393722E+008,  0.20140657642E+007,  0.19000000000E+002,  0.00000000000E+000,  0.10000000000E+001
  0.18231543722E+008,  0.20152673523E+007,  0.19000000000E+002,  0.00000000000E+000,  0.10000000000E+001
  0.18231693722E+008,  0.20164733993E+007,  0.19000000000E+002,  0.00000000000E+000,  0.10000000000E+001
  0.18231843722E+008,  0.20176825645E+007,  0.19000000000E+002,  0.00000000000E+000,  0.10000000000E+001
  0.18231993722E+008,  0.20188937783E+007,  0.19000000000E+002,  0.00000000000E+000,  0.10000000000E+001
  0.18232143722E+008,  0.20201061874E+007,  0.19000000000E+002,  0.00000000000E+000,  0.10000000000E+001
  0.18232293722E+008,  0.20213191110E+007,  0.19000000000E+002,  0.00000000000E+000,  0.10000000000E+001
  0.18232443722E+008,  0.20225320056E+007,  0.19000000000E+002,  0.00000000000E+000,  0.10000000000E+001
  0.18232593722E+008,  0.20237444376E+007,  0.19000000000E+002,  0.00000000000E+000,  0.10000000000E+001
  0.18232743722E+008,  0.20249560603E+007,  0.19000000000E+002,  0.00000000000E+000,  0.10000000000E+001
  0.18232893722E+008,  0.20261665968E+007,  0.19000000000E+002,  0.00000000000E+000,  0.10000000000E+001
  0.18233043722E+008,  0.20273758254E+007,  0.19000000000E+002,  0.00000000000E+000,  0.10000000000E+001
  0.18233193722E+008,  0.20285835684E+007,  0.19000000000E+002,  0.00000000000E+000,  0.10000000000E+001
  0.18233343722E+008,  0.20297896836E+007,  0.19000000000E+002,  0.00000000000E+000,  0.10000000000E+001
  0.18233493722E+008,  0.20309940565E+007,  0.19000000000E+002,  0.00000000000E+000,  0.10000000000E+001
  0.18233643722E+008,  0.20321965949E+007,  0.19000000000E+002,  0.00000000000E+000,  0.10000000000E+001
  0.18233793722E+008,  0.20333972246E+007,  0.19000000000E+002,  0.00000000000E+000,  0.10000000000E+001
  0.18233943722E+008,  0.20345958853E+007,  0.19000000000E+002,  0.00000000000E+000,  0.10000000000E+001
  0.18234093722E+008,  0.20357925282E+007,  0.19000000000E+002,  0.00000000000E+000,  0.10000000000E+001
  0.18234243722E+008,  0.20369871134E+007,  0.19000000000E+002,  0.00000000000E+000,  0.10000000000E+001
  0.18234393722E+008,  0.20381796084E+007,  0.19000000000E+002,  0.00000000000E+000,  0.10000000000E+001
  0.18234543722E+008,  0.20393699863E+007,  0.19000000000E+002,  0.00000000000E+000,  0.10000000000E+001
  0.18234693722E+008,  0.20405582248E+007,  0.19000000000E+002,  0.00000000000E+000,  0.10000000000E+001
  0.18234843722E+008,  0.20417443053E+007,  0.19000000000E+002,  0.00000000000E+000,  0.10000000000E+001
  0.18234993722E+008,  0.20429282124E+007,  0.19000000000E+002,  0.00000000000E+000,  0.10000000000E+001
  0.18235143722E+008,  0.20441099328E+007,  0.19000000000E+002,  0.00000000000E+000,  0.10000000000E+001
  0.18235293722E+008,  0.20452894553E+007,  0.19000000000E+002,  0.00000000000E+000,  0.10000000000E+001
  0.18235443722E+008,  0.20464667701E+007,  0.19000000000E+002,  0.00000000000E+000,  0.10000000000E+001
  0.18235593722E+008,  0.20476418687E+007,  0.19000000000E+002,  0.00000000000E+000,  0.10000000000E+001
  0.18235743722E+008,  0.20488147438E+007,  0.19000000000E+002,  0.00000000000E+000,  0.10000000000E+001
  0.18235893722E+008,  0.20499853888E+007,  0.19000000000E+002,  0.00000000000E+000,  0.10000000000E+001
  0.18236043722E+008,  0.20511537977E+007,  0.19000000000E+002,  0.00000000000E+000,  0.10000000000E+001
  0.18236193722E+008,  0.20523199652E+007,  0.19000000000E+002,  0.00000000000E+000,  0.10000000000E+001
  0.18236343722E+008,  0.20534838863E+007,  0.19000000000E+002,  0.00000000000E+000,  0.10000000000E+001
  0.18236493722E+008,  0.20546455567E+007,  0.19000000000E+002,  0.00000000000E+000,  0.10000000000E+001
  0.18236643722E+008,  0.20558049721E+007,  0.19000000000E+002,  0.00000000000E+000,  0.10000000000E+001
  0.18236793722E+008,  0.20569621287E+007,  0.19000000000E+002,  0.00000000000E+000,  0.10000000000E+001
  0.18236943722E+008,  0.20581170229E+007,  0.19000000000E+002,  0.00000000000E+000,  0.10000000000E+001
  0.18237093722E+008,  0.20592696511E+007,  0.19000000000E+002,  0.00000000000E+000,  0.10000000000E+001
  0.18237243722E+008,  0.20604200102E+007,  0.19000000000E+002,  0.00000000000E+000,  0.10000000000E+001
  0.18237393722E+008,  0.20615680969E+007,  0.19000000000E+002,  0.00000000000E+000,  0.10000000000E+001
  0.18237543722E+008,  0.20627139085E+007,  0.19000000000E+002,  0.00000000000E+000,  0.10000000000E+001
  0.18237693722E+008,  0.20638574421E+007,  0.19000000000E+002,  0.00000000000E+000,  0.10000000000E+001
  0.18237843722E+008,  0.20649986949E+007,  0.19000000000E+002,  0.00000000000E+000,  0.10000000000E+001
  0.18237993722E+008,  0.20661376643E+007,  0.19000000000E+002,  0.00000000000E+000,  0.10000000000E+001
  0.18238143722E+008,  0.20672743479E+007,  0.19000000000E+002,  0.00000000000E+000,  0.10000000000E+001
  0.18238293722E+008,  0.20684087432E+007,  0.19000000000E+002,  0.00000000000E+000,  0.10000000000E+001
  0.18238443722E+008,  0.20695408479E+007,  0.19000000000E+002,  0.00000000000E+000,  0.10000000000E+001
  0.18238593722E+008,  0.20706706598E+007,  0.19000000000E+002,  0.00000000000E+000,  0.10000000000E+001
  0.18238743722E+008,  0.20717981767E+007,  0.19000000000E+002,  0.00000000000E+000,  0.10000000000E+001
  0.18238893722E+008,  0.20729233965E+007,  0.19000000000E+002,  0.00000000000E+000,  0.10000000000E+001
  0.18239043722E+008,  0.20740463172E+007,  0.19000000000E+002,  0.00000000000E+000,  0.10000000000E+001
  0.18239193722E+008,  0.20751669368E+007,  0.19000000000E+002,  0.00000000000E+000,  0.10000000000E+001
  0.18239343722E+008,  0.20762852535E+007,  0.19000000000E+002,  0.00000000000E+000,  0.10000000000E+001
  0.18239493722E+008,  0.20774012654E+007,  0.19000000000E+002,  0.00000000000E+000,  0.10000000000E+001
  0.18239643722E+008,  0.20785149709E+007,  0.19000000000E+002,  0.00000000000E+000,  0.10000000000E+001
  0.18239793722E+008,  0.20796263681E+007,  0.19000000000E+002,  0.00000000000E+000,  0.10000000000E+001
  0.18239943722E+008,  0.20807354555E+007,  0.19000000000E+002,  0.00000000000E+000,  0.10000000000E+001
  0.18240093722E+008,  0.20818422316E+007,  0.19000000000E+002,  0.00000000000E+000,  0.10000000000E+001
  0.18240243722E+008,  0.20829466947E+007,  0.19000000000E+002,  0.00000000000E+000,  0.10000000000E+001
  0.18240393722E+008,  0.20840488435E+007,  0.19000000000E+002,  0.00000000000E+000,  0.10000000000E+001
  0.18240543722E+008,  0.20851486766E+007,  0.19000000000E+002,  0.00000000000E+000,  0.10000000000E+001
  0.18240693722E+008,  0.20862461925E+007,  0.19000000000E+002,  0.00000000000E+000,  0.10000000000E+001
  0.18240843722E+008,  0.20873413902E+007,  0.19000000000E+002,  0.00000000000E+000,  0.10000000000E+001
  0.18240993722E+008,  0.20884342682E+007,  0.19000000000E+002,  0.00000000000E+000,  0.10000000000E+001
  0.18241143722E+008,  0.20895248255E+007,  0.19000000000E+002,  0.00000000000E+000,  0.10000000000E+001
  0.18241293722E+008,  0.20906130610E+007,  0.19000000000E+002,  0.00000000000E+000,  0.10000000000E+001
  0.18241443722E+008,  0.20916989735E+007,  0.19000000000E+002,  0.00000000000E+000,  0.10000000000E+001
  0.18241593722E+008,  0.20927825620E+007,  0.19000000000E+002,  0.00000000000E+000,  0.10000000000E+001
  0.18241743722E+008,  0.20938638257E+007,  0.19000000000E+002,  0.00000000000E+000,  0.10000000000E+001
  0.18241893722E+008,  0.20949427635E+007,  0.19000000000E+002,  0.00000000000E+000,  0.10000000000E+001
  0.18242043722E+008,  0.20960193747E+007,  0.19000000000E+002,  0.00000000000E+000,  0.10000000000E+001
  0.18242193722E+008,  0.20970936584E+007,  0.19000000000E+002,  0.00000000000E+000,  0.10000000000E+001
  0.18242343722E+008,  0.20981656138E+007,  0.19000000000E+002,  0.00000000000E+000,  0.10000000000E+001
  0.18242493722E+008,  0.20992352403E+007,  0.19000000000E+002,  0.00000000000E+000,  0.10000000000E+001
  0.18242643722E+008,  0.21003025371E+007,  0.19000000000E+002,  0.00000000000E+000,  0.10000000000E+001
  0.18242793722E+008,  0.21013675038E+007,  0.19000000000E+002,  0.00000000000E+000,  0.10000000000E+001
  0.18242943722E+008,  0.21024301396E+007,  0.19000000000E+002,  0.00000000000E+000,  0.10000000000E+001
  0.18243093722E+008,  0.21034904442E+007,  0.19000000000E+002,  0.00000000000E+000,  0.10000000000E+001
  0.18243243722E+008,  0.21045484170E+007,  0.19000000000E+002,  0.00000000000E+000,  0.10000000000E+001
  0.18243393722E+008,  0.21056040576E+007,  0.19000000000E+002,  0.00000000000E+000,  0.10000000000E+001
  0.18243543722E+008,  0.21066573656E+007,  0.19000000000E+002,  0.00000000000E+000,  0.10000000000E+001
  0.18243693722E+008,  0.21077083407E+007,  0.19000000000E+002,  0.00000000000E+000,  0.10000000000E+001
  0.18243843722E+008,  0.21087569827E+007,  0.19000000000E+002,  0.00000000000E+000,  0.10000000000E+001
  0.18243993722E+008,  0.21098032912E+007,  0.19000000000E+002,  0.00000000000E+000,  0.10000000000E+001
  0.18244143722E+008,  0.21108472661E+007,  0.19000000000E+002,  0.00000000000E+000,  0.10000000000E+001
  0.18244293722E+008,  0.21118889073E+007,  0.19000000000E+002,  0.00000000000E+000,  0.10000000000E+001
  0.18244443722E+008,  0.21129282146E+007,  0.19000000000E+002,  0.00000000000E+000,  0.10000000000E+001
  0.18244593722E+008,  0.21139651880E+007,  0.19000000000E+002,  0.00000000000E+000,  0.10000000000E+001
  0.18244743722E+008,  0.21149998275E+007,  0.19000000000E+002,  0.00000000000E+000,  0.10000000000E+001
  0.18244893722E+008,  0.21160321331E+007,  0.19000000000E+002,  0.00000000000E+000,  0.10000000000E+001
  0.18245043722E+008,  0.21170621049E+007,  0.19000000000E+002,  0.00000000000E+000,  0.10000000000E+001
  0.18245193722E+008,  0.21180897429E+007,  0.19000000000E+002,  0.00000000000E+000,  0.10000000000E+001
  0.18245343722E+008,  0.21191150474E+007,  0.19000000000E+002,  0.00000000000E+000,  0.10000000000E+001
  0.18245493722E+008,  0.21201380186E+007,  0.19000000000E+002,  0.00000000000E+000,  0.10000000000E+001
  0.18245643722E+008,  0.21211586567E+007,  0.19000000000E+002,  0.00000000000E+000,  0.10000000000E+001
  0.18245793722E+008,  0.21221769620E+007,  0.19000000000E+002,  0.00000000000E+000,  0.10000000000E+001
  0.18245943722E+008,  0.21231929348E+007,  0.19000000000E+002,  0.00000000000E+000,  0.10000000000E+001
  0.18246093722E+008,  0.21242065754E+007,  0.19000000000E+002,  0.00000000000E+000,  0.10000000000E+001
  0.18246243722E+008,  0.21252178844E+007,  0.19000000000E+002,  0.00000000000E+000,  0.10000000000E+001
  0.18246393722E+008,  0.21262268621E+007,  0.19000000000E+002,  0.00000000000E+000,  0.10000000000E+001
  0.18246543722E+008,  0.21272335091E+007,  0.19000000000E+002,  0.00000000000E+000,  0.10000000000E+001
  0.18246693722E+008,  0.21282378258E+007,  0.19000000000E+002,  0.00000000000E+000,  0.10000000000E+001
  0.18246843722E+008,  0.21292398129E+007,  0.19000000000E+002,  0.00000000000E+000,  0.10000000000E+001
  0.18246993722E+008,  0.21302394709E+007,  0.19000000000E+002,  0.00000000000E+000,  0.10000000000E+001
  0.18247143722E+008,  0.21312368005E+007,  0.19000000000E+002,  0.00000000000E+000,  0.10000000000E+001
  0.18247293722E+008,  0.21322318024E+007,  0.19000000000E+002,  0.00000000000E+000,  0.10000000000E+001
  0.18247443722E+008,  0.21332244774E+007,  0.19000000000E+002,  0.00000000000E+000,  0.10000000000E+001
  0.18247593722E+008,  0.21342148261E+007,  0.19000000000E+002,  0.00000000000E+000,  0.10000000000E+001
  0.18247743722E+008,  0.21352028495E+007,  0.19000000000E+002,  0.00000000000E+000,  0.10000000000E+001
  0.18247893722E+008,  0.21361885482E+007,  0.19000000000E+002,  0.00000000000E+000,  0.10000000000E+001
  0.18248043722E+008,  0.21371719233E+007,  0.19000000000E+002,  0.00000000000E+000,  0.10000000000E+001
  0.18248193722E+008,  0.21381529757E+007,  0.19000000000E+002,  0.00000000000E+000,  0.10000000000E+001
  0.18248343722E+008,  0.21391317062E+007,  0.19000000000E+002,  0.00000000000E+000,  0.10000000000E+001
  0.18248493722E+008,  0.21401081160E+007,  0.19000000000E+002,  0.00000000000E+000,  0.10000000000E+001
  0.18248643722E+008,  0.21410822059E+007,  0.19000000000E+002,  0.00000000000E+000,  0.10000000000E+001
  0.18248793722E+008,  0.21420539772E+007,  0.19000000000E+002,  0.00000000000E+000,  0.10000000000E+001
  0.18248943722E+008,  0.21430234308E+007,  0.19000000000E+002,  0.00000000000E+000,  0.10000000000E+001
  0.18249093722E+008,  0.21439905680E+007,  0.19000000000E+002,  0.00000000000E+000,  0.10000000000E+001
  0.18249243722E+008,  0.21449553899E+007,  0.19000000000E+002,  0.00000000000E+000,  0.10000000000E+001
  0.18249393722E+008,  0.21459178977E+007,  0.19000000000E+002,  0.00000000000E+000,  0.10000000000E+001
  0.18249543722E+008,  0.21468780927E+007,  0.19000000000E+002,  0.00000000000E+000,  0.10000000000E+001
  0.18249693722E+008,  0.21478359761E+007,  0.19000000000E+002,  0.00000000000E+000,  0.10000000000E+001
  0.18249843722E+008,  0.21487915493E+007,  0.19000000000E+002,  0.00000000000E+000,  0.10000000000E+001
  0.18249993722E+008,  0.21497448136E+007,  0.19000000000E+002,  0.00000000000E+000,  0.10000000000E+001
  0.18250143722E+008,  0.21506957704E+007,  0.19000000000E+002,  0.00000000000E+000,  0.10000000000E+001
  0.18250293722E+008,  0.21516444212E+007,  0.19000000000E+002,  0.00000000000E+000,  0.10000000000E+001
  0.18250443722E+008,  0.21525907673E+007,  0.19000000000E+002,  0.00000000000E+000,  0.10000000000E+001
  0.18250593722E+008,  0.21535348102E+007,  0.19000000000E+002,  0.00000000000E+000,  0.10000000000E+001
  0.18250743722E+008,  0.21544765516E+007,  0.19000000000E+002,  0.00000000000E+000,  0.10000000000E+001
  0.18250893722E+008,  0.21554159928E+007,  0.19000000000E+002,  0.00000000000E+000,  0.10000000000E+001
  0.18251043722E+008,  0.21563531356E+007,  0.19000000000E+002,  0.00000000000E+000,  0.10000000000E+001
  0.18251193722E+008,  0.21572879815E+007,  0.19000000000E+002,  0.00000000000E+000,  0.10000000000E+001
  0.18251343722E+008,  0.21582205322E+007,  0.19000000000E+002,  0.00000000000E+000,  0.10000000000E+001
  0.18251493722E+008,  0.21591507893E+007,  0.19000000000E+002,  0.00000000000E+000,  0.10000000000E+001
  0.18251643722E+008,  0.21600787546E+007,  0.19000000000E+002,  0.00000000000E+000,  0.10000000000E+001
  0.18251793722E+008,  0.21610044299E+007,  0.19000000000E+002,  0.00000000000E+000,  0.10000000000E+001
  0.18251943722E+008,  0.21619278168E+007,  0.19000000000E+002,  0.00000000000E+000,  0.10000000000E+001
  0.18252093722E+008,  0.21628489172E+007,  0.19000000000E+002,  0.00000000000E+000,  0.10000000000E+001
  0.18252243722E+008,  0.21637677330E+007,  0.19000000000E+002,  0.00000000000E+000,  0.10000000000E+001
  0.18252393722E+008,  0.21646842660E+007,  0.19000000000E+002,  0.00000000000E+000,  0.10000000000E+001
  0.18252543722E+008,  0.21655985181E+007,  0.19000000000E+002,  0.00000000000E+000,  0.10000000000E+001
  0.18252693722E+008,  0.21665104913E+007,  0.19000000000E+002,  0.00000000000E+000,  0.10000000000E+001
  0.18252843722E+008,  0.21674201874E+007,  0.19000000000E+002,  0.00000000000E+000,  0.10000000000E+001
  0.18252993722E+008,  0.21683276086E+007,  0.19000000000E+002,  0.00000000000E+000,  0.10000000000E+001
  0.18253143722E+008,  0.21692327567E+007,  0.19000000000E+002,  0.00000000000E+000,  0.10000000000E+001
  0.18253293722E+008,  0.21701356339E+007,  0.19000000000E+002,  0.00000000000E+000,  0.10000000000E+001
  0.18253443722E+008,  0.21710362422E+007,  0.19000000000E+002,  0.00000000000E+000,  0.10000000000E+001
  0.18253593722E+008,  0.21719345838E+007,  0.19000000000E+002,  0.00000000000E+000,  0.10000000000E+001
  0.18253743722E+008,  0.21728306607E+007,  0.19000000000E+002,  0.00000000000E+000,  0.10000000000E+001
  0.18253893722E+008,  0.21737244752E+007,  0.19000000000E+002,  0.00000000000E+000,  0.10000000000E+001
  0.18254043722E+008,  0.21746160294E+007,  0.19000000000E+002,  0.00000000000E+000,  0.10000000000E+001
  0.18254193722E+008,  0.21755053255E+007,  0.19000000000E+002,  0.00000000000E+000,  0.10000000000E+001
  0.18254343722E+008,  0.21763923658E+007,  0.19000000000E+002,  0.00000000000E+000,  0.10000000000E+001
  0.18254493722E+008,  0.21772771526E+007,  0.19000000000E+002,  0.00000000000E+000,  0.10000000000E+001
  0.18254643722E+008,  0.21781596881E+007,  0.19000000000E+002,  0.00000000000E+000,  0.10000000000E+001
  0.18254793722E+008,  0.21790399747E+007,  0.19000000000E+002,  0.00000000000E+000,  0.10000000000E+001
  0.18254943722E+008,  0.21799180147E+007,  0.19000000000E+002,  0.00000000000E+000,  0.10000000000E+001
  0.18255093722E+008,  0.21807938106E+007,  0.19000000000E+002,  0.00000000000E+000,  0.10000000000E+001
  0.18255243722E+008,  0.21816673646E+007,  0.19000000000E+002,  0.00000000000E+000,  0.10000000000E+001
  0.18255393722E+008,  0.21825386793E+007,  0.19000000000E+002,  0.00000000000E+000,  0.10000000000E+001
  0.18255543722E+008,  0.21834077571E+007,  0.19000000000E+002,  0.00000000000E+000,  0.10000000000E+001
  0.18255693722E+008,  0.21842746005E+007,  0.19000000000E+002,  0.00000000000E+000,  0.10000000000E+001
