"           TIME(S)","              PRES","              TEMP","             SAT_G","             SAT_L"
  0.17962950000E+008,  0.21000003252E+007,  0.19000000000E+002,  0.00000000000E+000,  0.10000000000E+001
  0.17963100000E+008,  0.20999778888E+007,  0.19000000000E+002,  0.00000000000E+000,  0.10000000000E+001
  0.17963250000E+008,  0.20999017834E+007,  0.19000000000E+002,  0.00000000000E+000,  0.10000000000E+001
  0.17963400000E+008,  0.20997586707E+007,  0.19000000000E+002,  0.00000000000E+000,  0.10000000000E+001
  0.17963550000E+008,  0.20995523088E+007,  0.19000000000E+002,  0.00000000000E+000,  0.10000000000E+001
  0.17963700000E+008,  0.20992952458E+007,  0.19000000000E+002,  0.00000000000E+000,  0.10000000000E+001
  0.17963850000E+008,  0.20990014594E+007,  0.19000000000E+002,  0.00000000000E+000,  0.10000000000E+001
  0.17964000000E+008,  0.20986827991E+007,  0.19000000000E+002,  0.00000000000E+000,  0.10000000000E+001
  0.17964150000E+008,  0.20983479981E+007,  0.19000000000E+002,  0.00000000000E+000,  0.10000000000E+001
  0.17964225000E+008,  0.20981774063E+007,  0.19000000000E+002,  0.00000000000E+000,  0.10000000000E+001
  0.17964375000E+008,  0.20978280305E+007,  0.19000000000E+002,  0.00000000000E+000,  0.10000000000E+001
  0.17964525000E+008,  0.20974736853E+007,  0.19000000000E+002,  0.00000000000E+000,  0.10000000000E+001
  0.17964675000E+008,  0.20971165474E+007,  0.19000000000E+002,  0.00000000000E+000,  0.10000000000E+001
  0.17964825000E+008,  0.20967580480E+007,  0.19000000000E+002,  0.00000000000E+000,  0.10000000000E+001
  0.17964975000E+008,  0.20963991524E+007,  0.19000000000E+002,  0.00000000000E+000,  0.10000000000E+001
  0.17965125000E+008,  0.20960405614E+007,  0.19000000000E+002,  0.00000000000E+000,  0.10000000000E+001
  0.17965275000E+008,  0.20956828336E+007,  0.19000000000E+002,  0.00000000000E+000,  0.10000000000E+001
  0.17965425000E+008,  0.20953264514E+007,  0.19000000000E+002,  0.00000000000E+000,  0.10000000000E+001
  0.17965575000E+008,  0.20949718518E+007,  0.19000000000E+002,  0.00000000000E+000,  0.10000000000E+001
  0.17965725000E+008,  0.20946194221E+007,  0.19000000000E+002,  0.00000000000E+000,  0.10000000000E+001
  0.17965800001E+008,  0.20944437615E+007,  0.19000000000E+002,  0.00000000000E+000,  0.10000000000E+001
  0.17965837501E+008,  0.20943560639E+007,  0.19000000000E+002,  0.00000000000E+000,  0.10000000000E+001
  0.17965987501E+008,  0.20940065723E+007,  0.19000000000E+002,  0.00000000000E+000,  0.10000000000E+001
  0.17966062502E+008,  0.20938319597E+007,  0.19000000000E+002,  0.00000000000E+000,  0.10000000000E+001
  0.17966100002E+008,  0.20937446481E+007,  0.19000000000E+002,  0.00000000000E+000,  0.10000000000E+001
  0.17966118753E+008,  0.20937009847E+007,  0.19000000000E+002,  0.00000000000E+000,  0.10000000000E+001
  0.17966212504E+008,  0.20934816239E+007,  0.19000000000E+002,  0.00000000000E+000,  0.10000000000E+001
  0.17966259380E+008,  0.20933715643E+007,  0.19000000000E+002,  0.00000000000E+000,  0.10000000000E+001
  0.17966409380E+008,  0.20930151194E+007,  0.19000000000E+002,  0.00000000000E+000,  0.10000000000E+001
  0.17966559380E+008,  0.20926558560E+007,  0.19000000000E+002,  0.00000000000E+000,  0.10000000000E+001
  0.17966634381E+008,  0.20924756200E+007,  0.19000000000E+002,  0.00000000000E+000,  0.10000000000E+001
  0.17966671881E+008,  0.20923853429E+007,  0.19000000000E+002,  0.00000000000E+000,  0.10000000000E+001
  0.17966690632E+008,  0.20923401608E+007,  0.19000000000E+002,  0.00000000000E+000,  0.10000000000E+001
  0.17966700007E+008,  0.20923175581E+007,  0.19000000000E+002,  0.00000000000E+000,  0.10000000000E+001
  0.17966704695E+008,  0.20923062537E+007,  0.19000000000E+002,  0.00000000000E+000,  0.10000000000E+001
  0.17966728133E+008,  0.20922496382E+007,  0.19000000000E+002,  0.00000000000E+000,  0.10000000000E+001
  0.17966845324E+008,  0.20919623510E+007,  0.19000000000E+002,  0.00000000000E+000,  0.10000000000E+001
  0.17966903920E+008,  0.20918174262E+007,  0.19000000000E+002,  0.00000000000E+000,  0.10000000000E+001
  0.17967053920E+008,  0.20914353651E+007,  0.19000000000E+002,  0.00000000000E+000,  0.10000000000E+001
  0.17967128920E+008,  0.20912408526E+007,  0.19000000000E+002,  0.00000000000E+000,  0.10000000000E+001
  0.17967278920E+008,  0.20908356372E+007,  0.19000000000E+002,  0.00000000000E+000,  0.10000000000E+001
  0.17967353921E+008,  0.20906286970E+007,  0.19000000000E+002,  0.00000000000E+000,  0.10000000000E+001
  0.17967503921E+008,  0.20901989001E+007,  0.19000000000E+002,  0.00000000000E+000,  0.10000000000E+001
  0.17967653921E+008,  0.20897553849E+007,  0.19000000000E+002,  0.00000000000E+000,  0.10000000000E+001
  0.17967803921E+008,  0.20893004222E+007,  0.19000000000E+002,  0.00000000000E+000,  0.10000000000E+001
  0.17967953921E+008,  0.20888361726E+007,  0.19000000000E+002,  0.00000000000E+000,  0.10000000000E+001
  0.17968103921E+008,  0.20883645971E+007,  0.19000000000E+002,  0.00000000000E+000,  0.10000000000E+001
  0.17968253921E+008,  0.20878874197E+007,  0.19000000000E+002,  0.00000000000E+000,  0.10000000000E+001
  0.17968403921E+008,  0.20874061250E+007,  0.19000000000E+002,  0.00000000000E+000,  0.10000000000E+001
  0.17968553921E+008,  0.20869219739E+007,  0.19000000000E+002,  0.00000000000E+000,  0.10000000000E+001
  0.17968703921E+008,  0.20864360267E+007,  0.19000000000E+002,  0.00000000000E+000,  0.10000000000E+001
  0.17968853921E+008,  0.20859491676E+007,  0.19000000000E+002,  0.00000000000E+000,  0.10000000000E+001
  0.17969003921E+008,  0.20854621291E+007,  0.19000000000E+002,  0.00000000000E+000,  0.10000000000E+001
  0.17969153921E+008,  0.20849755142E+007,  0.19000000000E+002,  0.00000000000E+000,  0.10000000000E+001
  0.17969303921E+008,  0.20844898160E+007,  0.19000000000E+002,  0.00000000000E+000,  0.10000000000E+001
  0.17969453921E+008,  0.20840054357E+007,  0.19000000000E+002,  0.00000000000E+000,  0.10000000000E+001
  0.17969603921E+008,  0.20835226971E+007,  0.19000000000E+002,  0.00000000000E+000,  0.10000000000E+001
  0.17969753921E+008,  0.20830418599E+007,  0.19000000000E+002,  0.00000000000E+000,  0.10000000000E+001
  0.17969903921E+008,  0.20825631305E+007,  0.19000000000E+002,  0.00000000000E+000,  0.10000000000E+001
  0.17970053921E+008,  0.20820866713E+007,  0.19000000000E+002,  0.00000000000E+000,  0.10000000000E+001
  0.17970203921E+008,  0.20816126087E+007,  0.19000000000E+002,  0.00000000000E+000,  0.10000000000E+001
  0.17970353921E+008,  0.20811410391E+007,  0.19000000000E+002,  0.00000000000E+000,  0.10000000000E+001
  0.17970503921E+008,  0.20806720353E+007,  0.19000000000E+002,  0.00000000000E+000,  0.10000000000E+001
  0.17970653921E+008,  0.20802056501E+007,  0.19000000000E+002,  0.00000000000E+000,  0.10000000000E+001
  0.17970803921E+008,  0.20797419206E+007,  0.19000000000E+002,  0.00000000000E+000,  0.10000000000E+001
  0.17970953921E+008,  0.20792808712E+007,  0.19000000000E+002,  0.00000000000E+000,  0.10000000000E+001
  0.17971103921E+008,  0.20788225161E+007,  0.19000000000E+002,  0.00000000000E+000,  0.10000000000E+001
  0.17971253921E+008,  0.20783668613E+007,  0.19000000000E+002,  0.00000000000E+000,  0.10000000000E+001
  0.17971403921E+008,  0.20779139067E+007,  0.19000000000E+002,  0.00000000000E+000,  0.10000000000E+001
  0.17971553921E+008,  0.20774636470E+007,  0.19000000000E+002,  0.00000000000E+000,  0.10000000000E+001
  0.17971703921E+008,  0.20770160730E+007,  0.19000000000E+002,  0.00000000000E+000,  0.10000000000E+001
  0.17971853921E+008,  0.20765711728E+007,  0.19000000000E+002,  0.00000000000E+000,  0.10000000000E+001
  0.17972003921E+008,  0.20761289321E+007,  0.19000000000E+002,  0.00000000000E+000,  0.10000000000E+001
  0.17972153921E+008,  0.20756893349E+007,  0.19000000000E+002,  0.00000000000E+000,  0.10000000000E+001
  0.17972303921E+008,  0.20752523641E+007,  0.19000000000E+002,  0.00000000000E+000,  0.10000000000E+001
  0.17972453921E+008,  0.20748180019E+007,  0.19000000000E+002,  0.00000000000E+000,  0.10000000000E+001
  0.17972603921E+008,  0.20743862297E+007,  0.19000000000E+002,  0.00000000000E+000,  0.10000000000E+001
  0.17972753921E+008,  0.20739570287E+007,  0.19000000000E+002,  0.00000000000E+000,  0.10000000000E+001
  0.17972903921E+008,  0.20735303802E+007,  0.19000000000E+002,  0.00000000000E+000,  0.10000000000E+001
  0.17973053921E+008,  0.20731062651E+007,  0.19000000000E+002,  0.00000000000E+000,  0.10000000000E+001
  0.17973203921E+008,  0.20726846646E+007,  0.19000000000E+002,  0.00000000000E+000,  0.10000000000E+001
  0.17973353921E+008,  0.20722655602E+007,  0.19000000000E+002,  0.00000000000E+000,  0.10000000000E+001
  0.17973503921E+008,  0.20718489333E+007,  0.19000000000E+002,  0.00000000000E+000,  0.10000000000E+001
  0.17973653921E+008,  0.20714347659E+007,  0.19000000000E+002,  0.00000000000E+000,  0.10000000000E+001
  0.17973803921E+008,  0.20710230400E+007,  0.19000000000E+002,  0.00000000000E+000,  0.10000000000E+001
  0.17973953921E+008,  0.20706137380E+007,  0.19000000000E+002,  0.00000000000E+000,  0.10000000000E+001
  0.17974103921E+008,  0.20702068428E+007,  0.19000000000E+002,  0.00000000000E+000,  0.10000000000E+001
  0.17974253921E+008,  0.20698023373E+007,  0.19000000000E+002,  0.00000000000E+000,  0.10000000000E+001
  0.17974403921E+008,  0.20694002050E+007,  0.19000000000E+002,  0.00000000000E+000,  0.10000000000E+001
  0.17974553921E+008,  0.20690004293E+007,  0.19000000000E+002,  0.00000000000E+000,  0.10000000000E+001
  0.17974703921E+008,  0.20686029944E+007,  0.19000000000E+002,  0.00000000000E+000,  0.10000000000E+001
  0.17974853921E+008,  0.20682078845E+007,  0.19000000000E+002,  0.00000000000E+000,  0.10000000000E+001
  0.17975003921E+008,  0.20678150840E+007,  0.19000000000E+002,  0.00000000000E+000,  0.10000000000E+001
  0.17975153921E+008,  0.20674245777E+007,  0.19000000000E+002,  0.00000000000E+000,  0.10000000000E+001
  0.17975303921E+008,  0.20670363508E+007,  0.19000000000E+002,  0.00000000000E+000,  0.10000000000E+001
  0.17975453921E+008,  0.20666503884E+007,  0.19000000000E+002,  0.00000000000E+000,  0.10000000000E+001
  0.17975603921E+008,  0.20662666761E+007,  0.19000000000E+002,  0.00000000000E+000,  0.10000000000E+001
  0.17975753921E+008,  0.20658851997E+007,  0.19000000000E+002,  0.00000000000E+000,  0.10000000000E+001
  0.17975903921E+008,  0.20655059451E+007,  0.19000000000E+002,  0.00000000000E+000,  0.10000000000E+001
  0.17976053921E+008,  0.20651288984E+007,  0.19000000000E+002,  0.00000000000E+000,  0.10000000000E+001
  0.17976203921E+008,  0.20647540461E+007,  0.19000000000E+002,  0.00000000000E+000,  0.10000000000E+001
  0.17976353921E+008,  0.20643813746E+007,  0.19000000000E+002,  0.00000000000E+000,  0.10000000000E+001
  0.17976503921E+008,  0.20640108706E+007,  0.19000000000E+002,  0.00000000000E+000,  0.10000000000E+001
  0.17976653921E+008,  0.20636425211E+007,  0.19000000000E+002,  0.00000000000E+000,  0.10000000000E+001
  0.17976803921E+008,  0.20632763131E+007,  0.19000000000E+002,  0.00000000000E+000,  0.10000000000E+001
  0.17976953921E+008,  0.20629122338E+007,  0.19000000000E+002,  0.00000000000E+000,  0.10000000000E+001
  0.17977103921E+008,  0.20625502704E+007,  0.19000000000E+002,  0.00000000000E+000,  0.10000000000E+001
  0.17977253921E+008,  0.20621904105E+007,  0.19000000000E+002,  0.00000000000E+000,  0.10000000000E+001
  0.17977403921E+008,  0.20618326417E+007,  0.19000000000E+002,  0.00000000000E+000,  0.10000000000E+001
  0.17977553921E+008,  0.20614769518E+007,  0.19000000000E+002,  0.00000000000E+000,  0.10000000000E+001
  0.17977703921E+008,  0.20611233285E+007,  0.19000000000E+002,  0.00000000000E+000,  0.10000000000E+001
  0.17977853921E+008,  0.20607717598E+007,  0.19000000000E+002,  0.00000000000E+000,  0.10000000000E+001
  0.17978003921E+008,  0.20604222338E+007,  0.19000000000E+002,  0.00000000000E+000,  0.10000000000E+001
  0.17978153921E+008,  0.20600747387E+007,  0.19000000000E+002,  0.00000000000E+000,  0.10000000000E+001
  0.17978303921E+008,  0.20597292628E+007,  0.19000000000E+002,  0.00000000000E+000,  0.10000000000E+001
  0.17978453921E+008,  0.20593857945E+007,  0.19000000000E+002,  0.00000000000E+000,  0.10000000000E+001
  0.17978603921E+008,  0.20590443223E+007,  0.19000000000E+002,  0.00000000000E+000,  0.10000000000E+001
  0.17978753921E+008,  0.20587048346E+007,  0.19000000000E+002,  0.00000000000E+000,  0.10000000000E+001
  0.17978903921E+008,  0.20583673203E+007,  0.19000000000E+002,  0.00000000000E+000,  0.10000000000E+001
  0.17979053921E+008,  0.20580317680E+007,  0.19000000000E+002,  0.00000000000E+000,  0.10000000000E+001
  0.17979203921E+008,  0.20576981666E+007,  0.19000000000E+002,  0.00000000000E+000,  0.10000000000E+001
  0.17979353921E+008,  0.20573665049E+007,  0.19000000000E+002,  0.00000000000E+000,  0.10000000000E+001
  0.17979503921E+008,  0.20570367721E+007,  0.19000000000E+002,  0.00000000000E+000,  0.10000000000E+001
  0.17979653921E+008,  0.20567089571E+007,  0.19000000000E+002,  0.00000000000E+000,  0.10000000000E+001
  0.17979803921E+008,  0.20563830490E+007,  0.19000000000E+002,  0.00000000000E+000,  0.10000000000E+001
  0.17979953921E+008,  0.20560590372E+007,  0.19000000000E+002,  0.00000000000E+000,  0.10000000000E+001
  0.17980103921E+008,  0.20557369108E+007,  0.19000000000E+002,  0.00000000000E+000,  0.10000000000E+001
  0.17980253921E+008,  0.20554166593E+007,  0.19000000000E+002,  0.00000000000E+000,  0.10000000000E+001
  0.17980403921E+008,  0.20550982720E+007,  0.19000000000E+002,  0.00000000000E+000,  0.10000000000E+001
  0.17980553921E+008,  0.20547817384E+007,  0.19000000000E+002,  0.00000000000E+000,  0.10000000000E+001
  0.17980703921E+008,  0.20544670481E+007,  0.19000000000E+002,  0.00000000000E+000,  0.10000000000E+001
  0.17980853921E+008,  0.20541541906E+007,  0.19000000000E+002,  0.00000000000E+000,  0.10000000000E+001
  0.17981003921E+008,  0.20538431557E+007,  0.19000000000E+002,  0.00000000000E+000,  0.10000000000E+001
  0.17981153921E+008,  0.20535339331E+007,  0.19000000000E+002,  0.00000000000E+000,  0.10000000000E+001
  0.17981303921E+008,  0.20532265126E+007,  0.19000000000E+002,  0.00000000000E+000,  0.10000000000E+001
  0.17981453921E+008,  0.20529208839E+007,  0.19000000000E+002,  0.00000000000E+000,  0.10000000000E+001
  0.17981603921E+008,  0.20526170371E+007,  0.19000000000E+002,  0.00000000000E+000,  0.10000000000E+001
  0.17981753921E+008,  0.20523149621E+007,  0.19000000000E+002,  0.00000000000E+000,  0.10000000000E+001
  0.17981903921E+008,  0.20520146489E+007,  0.19000000000E+002,  0.00000000000E+000,  0.10000000000E+001
  0.17982053921E+008,  0.20517160876E+007,  0.19000000000E+002,  0.00000000000E+000,  0.10000000000E+001
  0.17982203921E+008,  0.20514192682E+007,  0.19000000000E+002,  0.00000000000E+000,  0.10000000000E+001
  0.17982353921E+008,  0.20511241811E+007,  0.19000000000E+002,  0.00000000000E+000,  0.10000000000E+001
  0.17982503921E+008,  0.20508308164E+007,  0.19000000000E+002,  0.00000000000E+000,  0.10000000000E+001
  0.17982653921E+008,  0.20505391644E+007,  0.19000000000E+002,  0.00000000000E+000,  0.10000000000E+001
  0.17982803921E+008,  0.20502492154E+007,  0.19000000000E+002,  0.00000000000E+000,  0.10000000000E+001
  0.17982953921E+008,  0.20499609599E+007,  0.19000000000E+002,  0.00000000000E+000,  0.10000000000E+001
  0.17983103921E+008,  0.20496743883E+007,  0.19000000000E+002,  0.00000000000E+000,  0.10000000000E+001
  0.17983253921E+008,  0.20493894911E+007,  0.19000000000E+002,  0.00000000000E+000,  0.10000000000E+001
  0.17983403921E+008,  0.20491062587E+007,  0.19000000000E+002,  0.00000000000E+000,  0.10000000000E+001
  0.17983553921E+008,  0.20488246819E+007,  0.19000000000E+002,  0.00000000000E+000,  0.10000000000E+001
  0.17983703921E+008,  0.20485447513E+007,  0.19000000000E+002,  0.00000000000E+000,  0.10000000000E+001
  0.17983853921E+008,  0.20482664575E+007,  0.19000000000E+002,  0.00000000000E+000,  0.10000000000E+001
  0.17984003921E+008,  0.20479897914E+007,  0.19000000000E+002,  0.00000000000E+000,  0.10000000000E+001
  0.17984153921E+008,  0.20477147436E+007,  0.19000000000E+002,  0.00000000000E+000,  0.10000000000E+001
  0.17984303921E+008,  0.20474413050E+007,  0.19000000000E+002,  0.00000000000E+000,  0.10000000000E+001
  0.17984453921E+008,  0.20471694665E+007,  0.19000000000E+002,  0.00000000000E+000,  0.10000000000E+001
  0.17984603921E+008,  0.20468992191E+007,  0.19000000000E+002,  0.00000000000E+000,  0.10000000000E+001
  0.17984753921E+008,  0.20466305537E+007,  0.19000000000E+002,  0.00000000000E+000,  0.10000000000E+001
  0.17984903921E+008,  0.20463634614E+007,  0.19000000000E+002,  0.00000000000E+000,  0.10000000000E+001
  0.17985053921E+008,  0.20460979332E+007,  0.19000000000E+002,  0.00000000000E+000,  0.10000000000E+001
  0.17985203921E+008,  0.20458339602E+007,  0.19000000000E+002,  0.00000000000E+000,  0.10000000000E+001
  0.17985353921E+008,  0.20455715337E+007,  0.19000000000E+002,  0.00000000000E+000,  0.10000000000E+001
  0.17985503921E+008,  0.20453106448E+007,  0.19000000000E+002,  0.00000000000E+000,  0.10000000000E+001
  0.17985653921E+008,  0.20450512847E+007,  0.19000000000E+002,  0.00000000000E+000,  0.10000000000E+001
  0.17985803921E+008,  0.20447934449E+007,  0.19000000000E+002,  0.00000000000E+000,  0.10000000000E+001
  0.17985953921E+008,  0.20445371166E+007,  0.19000000000E+002,  0.00000000000E+000,  0.10000000000E+001
  0.17986103921E+008,  0.20442822912E+007,  0.19000000000E+002,  0.00000000000E+000,  0.10000000000E+001
  0.17986253921E+008,  0.20440289602E+007,  0.19000000000E+002,  0.00000000000E+000,  0.10000000000E+001
  0.17986403921E+008,  0.20437771151E+007,  0.19000000000E+002,  0.00000000000E+000,  0.10000000000E+001
  0.17986553921E+008,  0.20435267474E+007,  0.19000000000E+002,  0.00000000000E+000,  0.10000000000E+001
  0.17986703921E+008,  0.20432778486E+007,  0.19000000000E+002,  0.00000000000E+000,  0.10000000000E+001
  0.17986853921E+008,  0.20430304104E+007,  0.19000000000E+002,  0.00000000000E+000,  0.10000000000E+001
  0.17987003921E+008,  0.20427844245E+007,  0.19000000000E+002,  0.00000000000E+000,  0.10000000000E+001
  0.17987153921E+008,  0.20425398825E+007,  0.19000000000E+002,  0.00000000000E+000,  0.10000000000E+001
  0.17987303921E+008,  0.20422967762E+007,  0.19000000000E+002,  0.00000000000E+000,  0.10000000000E+001
  0.17987453921E+008,  0.20420550974E+007,  0.19000000000E+002,  0.00000000000E+000,  0.10000000000E+001
  0.17987603921E+008,  0.20418148380E+007,  0.19000000000E+002,  0.00000000000E+000,  0.10000000000E+001
  0.17987753921E+008,  0.20415759897E+007,  0.19000000000E+002,  0.00000000000E+000,  0.10000000000E+001
  0.17987903921E+008,  0.20413385446E+007,  0.19000000000E+002,  0.00000000000E+000,  0.10000000000E+001
  0.17988053921E+008,  0.20411024946E+007,  0.19000000000E+002,  0.00000000000E+000,  0.10000000000E+001
  0.17988203921E+008,  0.20408678317E+007,  0.19000000000E+002,  0.00000000000E+000,  0.10000000000E+001
  0.17988353921E+008,  0.20406345479E+007,  0.19000000000E+002,  0.00000000000E+000,  0.10000000000E+001
  0.17988503921E+008,  0.20404026354E+007,  0.19000000000E+002,  0.00000000000E+000,  0.10000000000E+001
  0.17988653921E+008,  0.20401720863E+007,  0.19000000000E+002,  0.00000000000E+000,  0.10000000000E+001
  0.17988803921E+008,  0.20399428927E+007,  0.19000000000E+002,  0.00000000000E+000,  0.10000000000E+001
  0.17988953921E+008,  0.20397150469E+007,  0.19000000000E+002,  0.00000000000E+000,  0.10000000000E+001
  0.17989103921E+008,  0.20394885412E+007,  0.19000000000E+002,  0.00000000000E+000,  0.10000000000E+001
  0.17989253921E+008,  0.20392633678E+007,  0.19000000000E+002,  0.00000000000E+000,  0.10000000000E+001
  0.17989403921E+008,  0.20390395190E+007,  0.19000000000E+002,  0.00000000000E+000,  0.10000000000E+001
