"           TIME(S)","              PRES","              TEMP","             SAT_G","             SAT_L"
  0.17962950000E+008,  0.20999254739E+007,  0.19000000000E+002,  0.00000000000E+000,  0.10000000000E+001
  0.17963100000E+008,  0.20985626416E+007,  0.19000000000E+002,  0.00000000000E+000,  0.10000000000E+001
  0.17963250000E+008,  0.20966599477E+007,  0.19000000000E+002,  0.00000000000E+000,  0.10000000000E+001
  0.17963400000E+008,  0.20947241378E+007,  0.19000000000E+002,  0.00000000000E+000,  0.10000000000E+001
  0.17963550000E+008,  0.20929736190E+007,  0.19000000000E+002,  0.00000000000E+000,  0.10000000000E+001
  0.17963700000E+008,  0.20914542039E+007,  0.19000000000E+002,  0.00000000000E+000,  0.10000000000E+001
  0.17963850000E+008,  0.20901433262E+007,  0.19000000000E+002,  0.00000000000E+000,  0.10000000000E+001
  0.17964000000E+008,  0.20890012354E+007,  0.19000000000E+002,  0.00000000000E+000,  0.10000000000E+001
  0.17964150000E+008,  0.20879901894E+007,  0.19000000000E+002,  0.00000000000E+000,  0.10000000000E+001
  0.17964225000E+008,  0.20875131165E+007,  0.19000000000E+002,  0.00000000000E+000,  0.10000000000E+001
  0.17964375000E+008,  0.20866462387E+007,  0.19000000000E+002,  0.00000000000E+000,  0.10000000000E+001
  0.17964525000E+008,  0.20858469379E+007,  0.19000000000E+002,  0.00000000000E+000,  0.10000000000E+001
  0.17964675000E+008,  0.20851008504E+007,  0.19000000000E+002,  0.00000000000E+000,  0.10000000000E+001
  0.17964825000E+008,  0.20843975405E+007,  0.19000000000E+002,  0.00000000000E+000,  0.10000000000E+001
  0.17964975000E+008,  0.20837294032E+007,  0.19000000000E+002,  0.00000000000E+000,  0.10000000000E+001
  0.17965125000E+008,  0.20830908494E+007,  0.19000000000E+002,  0.00000000000E+000,  0.10000000000E+001
  0.17965275000E+008,  0.20824777203E+007,  0.19000000000E+002,  0.00000000000E+000,  0.10000000000E+001
  0.17965425000E+008,  0.20818868729E+007,  0.19000000000E+002,  0.00000000000E+000,  0.10000000000E+001
  0.17965575000E+008,  0.20813158895E+007,  0.19000000000E+002,  0.00000000000E+000,  0.10000000000E+001
  0.17965725000E+008,  0.20807628735E+007,  0.19000000000E+002,  0.00000000000E+000,  0.10000000000E+001
  0.17965800001E+008,  0.20804906459E+007,  0.19000000000E+002,  0.00000000000E+000,  0.10000000000E+001
  0.17965837501E+008,  0.20803555770E+007,  0.19000000000E+002,  0.00000000000E+000,  0.10000000000E+001
  0.17965987501E+008,  0.20798307017E+007,  0.19000000000E+002,  0.00000000000E+000,  0.10000000000E+001
  0.17966062502E+008,  0.20795719555E+007,  0.19000000000E+002,  0.00000000000E+000,  0.10000000000E+001
  0.17966100002E+008,  0.20794434860E+007,  0.19000000000E+002,  0.00000000000E+000,  0.10000000000E+001
  0.17966118753E+008,  0.20793794746E+007,  0.19000000000E+002,  0.00000000000E+000,  0.10000000000E+001
  0.17966212504E+008,  0.20790647312E+007,  0.19000000000E+002,  0.00000000000E+000,  0.10000000000E+001
  0.17966259380E+008,  0.20789086523E+007,  0.19000000000E+002,  0.00000000000E+000,  0.10000000000E+001
  0.17966409380E+008,  0.20784213676E+007,  0.19000000000E+002,  0.00000000000E+000,  0.10000000000E+001
  0.17966559380E+008,  0.20779452692E+007,  0.19000000000E+002,  0.00000000000E+000,  0.10000000000E+001
  0.17966634381E+008,  0.20777099028E+007,  0.19000000000E+002,  0.00000000000E+000,  0.10000000000E+001
  0.17966671881E+008,  0.20775928763E+007,  0.19000000000E+002,  0.00000000000E+000,  0.10000000000E+001
  0.17966690632E+008,  0.20775345254E+007,  0.19000000000E+002,  0.00000000000E+000,  0.10000000000E+001
  0.17966700007E+008,  0.20775053902E+007,  0.19000000000E+002,  0.00000000000E+000,  0.10000000000E+001
  0.17966704695E+008,  0.20774908325E+007,  0.19000000000E+002,  0.00000000000E+000,  0.10000000000E+001
  0.17966728133E+008,  0.20774182937E+007,  0.19000000000E+002,  0.00000000000E+000,  0.10000000000E+001
  0.17966845324E+008,  0.20770614274E+007,  0.19000000000E+002,  0.00000000000E+000,  0.10000000000E+001
  0.17966903920E+008,  0.20768843988E+007,  0.19000000000E+002,  0.00000000000E+000,  0.10000000000E+001
  0.17967053920E+008,  0.20764395340E+007,  0.19000000000E+002,  0.00000000000E+000,  0.10000000000E+001
  0.17967128920E+008,  0.20762190631E+007,  0.19000000000E+002,  0.00000000000E+000,  0.10000000000E+001
  0.17967278920E+008,  0.20757850300E+007,  0.19000000000E+002,  0.00000000000E+000,  0.10000000000E+001
  0.17967353921E+008,  0.20755696204E+007,  0.19000000000E+002,  0.00000000000E+000,  0.10000000000E+001
  0.17967503921E+008,  0.20751443589E+007,  0.19000000000E+002,  0.00000000000E+000,  0.10000000000E+001
  0.17967653921E+008,  0.20747238965E+007,  0.19000000000E+002,  0.00000000000E+000,  0.10000000000E+001
  0.17967803921E+008,  0.20743076112E+007,  0.19000000000E+002,  0.00000000000E+000,  0.10000000000E+001
  0.17967953921E+008,  0.20738950040E+007,  0.19000000000E+002,  0.00000000000E+000,  0.10000000000E+001
  0.17968103921E+008,  0.20734856790E+007,  0.19000000000E+002,  0.00000000000E+000,  0.10000000000E+001
  0.17968253921E+008,  0.20730793232E+007,  0.19000000000E+002,  0.00000000000E+000,  0.10000000000E+001
  0.17968403921E+008,  0.20726756880E+007,  0.19000000000E+002,  0.00000000000E+000,  0.10000000000E+001
  0.17968553921E+008,  0.20722745751E+007,  0.19000000000E+002,  0.00000000000E+000,  0.10000000000E+001
  0.17968703921E+008,  0.20718758246E+007,  0.19000000000E+002,  0.00000000000E+000,  0.10000000000E+001
  0.17968853921E+008,  0.20714793070E+007,  0.19000000000E+002,  0.00000000000E+000,  0.10000000000E+001
  0.17969003921E+008,  0.20710849161E+007,  0.19000000000E+002,  0.00000000000E+000,  0.10000000000E+001
  0.17969153921E+008,  0.20706925646E+007,  0.19000000000E+002,  0.00000000000E+000,  0.10000000000E+001
  0.17969303921E+008,  0.20703021806E+007,  0.19000000000E+002,  0.00000000000E+000,  0.10000000000E+001
  0.17969453921E+008,  0.20699137045E+007,  0.19000000000E+002,  0.00000000000E+000,  0.10000000000E+001
  0.17969603921E+008,  0.20695270870E+007,  0.19000000000E+002,  0.00000000000E+000,  0.10000000000E+001
  0.17969753921E+008,  0.20691422877E+007,  0.19000000000E+002,  0.00000000000E+000,  0.10000000000E+001
  0.17969903921E+008,  0.20687592734E+007,  0.19000000000E+002,  0.00000000000E+000,  0.10000000000E+001
  0.17970053921E+008,  0.20683780174E+007,  0.19000000000E+002,  0.00000000000E+000,  0.10000000000E+001
  0.17970203921E+008,  0.20679984981E+007,  0.19000000000E+002,  0.00000000000E+000,  0.10000000000E+001
  0.17970353921E+008,  0.20676206987E+007,  0.19000000000E+002,  0.00000000000E+000,  0.10000000000E+001
  0.17970503921E+008,  0.20672446061E+007,  0.19000000000E+002,  0.00000000000E+000,  0.10000000000E+001
  0.17970653921E+008,  0.20668702107E+007,  0.19000000000E+002,  0.00000000000E+000,  0.10000000000E+001
  0.17970803921E+008,  0.20664975057E+007,  0.19000000000E+002,  0.00000000000E+000,  0.10000000000E+001
  0.17970953921E+008,  0.20661264865E+007,  0.19000000000E+002,  0.00000000000E+000,  0.10000000000E+001
  0.17971103921E+008,  0.20657571507E+007,  0.19000000000E+002,  0.00000000000E+000,  0.10000000000E+001
  0.17971253921E+008,  0.20653894974E+007,  0.19000000000E+002,  0.00000000000E+000,  0.10000000000E+001
  0.17971403921E+008,  0.20650235270E+007,  0.19000000000E+002,  0.00000000000E+000,  0.10000000000E+001
  0.17971553921E+008,  0.20646592410E+007,  0.19000000000E+002,  0.00000000000E+000,  0.10000000000E+001
  0.17971703921E+008,  0.20642966416E+007,  0.19000000000E+002,  0.00000000000E+000,  0.10000000000E+001
  0.17971853921E+008,  0.20639357317E+007,  0.19000000000E+002,  0.00000000000E+000,  0.10000000000E+001
  0.17972003921E+008,  0.20635765147E+007,  0.19000000000E+002,  0.00000000000E+000,  0.10000000000E+001
  0.17972153921E+008,  0.20632189940E+007,  0.19000000000E+002,  0.00000000000E+000,  0.10000000000E+001
  0.17972303921E+008,  0.20628631734E+007,  0.19000000000E+002,  0.00000000000E+000,  0.10000000000E+001
  0.17972453921E+008,  0.20625090567E+007,  0.19000000000E+002,  0.00000000000E+000,  0.10000000000E+001
  0.17972603921E+008,  0.20621566474E+007,  0.19000000000E+002,  0.00000000000E+000,  0.10000000000E+001
  0.17972753921E+008,  0.20618059490E+007,  0.19000000000E+002,  0.00000000000E+000,  0.10000000000E+001
  0.17972903921E+008,  0.20614569650E+007,  0.19000000000E+002,  0.00000000000E+000,  0.10000000000E+001
  0.17973053921E+008,  0.20611096982E+007,  0.19000000000E+002,  0.00000000000E+000,  0.10000000000E+001
  0.17973203921E+008,  0.20607641514E+007,  0.19000000000E+002,  0.00000000000E+000,  0.10000000000E+001
  0.17973353921E+008,  0.20604203271E+007,  0.19000000000E+002,  0.00000000000E+000,  0.10000000000E+001
  0.17973503921E+008,  0.20600782271E+007,  0.19000000000E+002,  0.00000000000E+000,  0.10000000000E+001
  0.17973653921E+008,  0.20597378532E+007,  0.19000000000E+002,  0.00000000000E+000,  0.10000000000E+001
  0.17973803921E+008,  0.20593992066E+007,  0.19000000000E+002,  0.00000000000E+000,  0.10000000000E+001
  0.17973953921E+008,  0.20590622880E+007,  0.19000000000E+002,  0.00000000000E+000,  0.10000000000E+001
  0.17974103921E+008,  0.20587270981E+007,  0.19000000000E+002,  0.00000000000E+000,  0.10000000000E+001
  0.17974253921E+008,  0.20583936367E+007,  0.19000000000E+002,  0.00000000000E+000,  0.10000000000E+001
  0.17974403921E+008,  0.20580619036E+007,  0.19000000000E+002,  0.00000000000E+000,  0.10000000000E+001
  0.17974553921E+008,  0.20577318980E+007,  0.19000000000E+002,  0.00000000000E+000,  0.10000000000E+001
  0.17974703921E+008,  0.20574036188E+007,  0.19000000000E+002,  0.00000000000E+000,  0.10000000000E+001
  0.17974853921E+008,  0.20570770645E+007,  0.19000000000E+002,  0.00000000000E+000,  0.10000000000E+001
  0.17975003921E+008,  0.20567522333E+007,  0.19000000000E+002,  0.00000000000E+000,  0.10000000000E+001
  0.17975153921E+008,  0.20564291228E+007,  0.19000000000E+002,  0.00000000000E+000,  0.10000000000E+001
  0.17975303921E+008,  0.20561077308E+007,  0.19000000000E+002,  0.00000000000E+000,  0.10000000000E+001
  0.17975453921E+008,  0.20557880542E+007,  0.19000000000E+002,  0.00000000000E+000,  0.10000000000E+001
  0.17975603921E+008,  0.20554700900E+007,  0.19000000000E+002,  0.00000000000E+000,  0.10000000000E+001
  0.17975753921E+008,  0.20551538347E+007,  0.19000000000E+002,  0.00000000000E+000,  0.10000000000E+001
  0.17975903921E+008,  0.20548392846E+007,  0.19000000000E+002,  0.00000000000E+000,  0.10000000000E+001
  0.17976053921E+008,  0.20545264358E+007,  0.19000000000E+002,  0.00000000000E+000,  0.10000000000E+001
  0.17976203921E+008,  0.20542152841E+007,  0.19000000000E+002,  0.00000000000E+000,  0.10000000000E+001
  0.17976353921E+008,  0.20539058249E+007,  0.19000000000E+002,  0.00000000000E+000,  0.10000000000E+001
  0.17976503921E+008,  0.20535980536E+007,  0.19000000000E+002,  0.00000000000E+000,  0.10000000000E+001
  0.17976653921E+008,  0.20532919655E+007,  0.19000000000E+002,  0.00000000000E+000,  0.10000000000E+001
  0.17976803921E+008,  0.20529875552E+007,  0.19000000000E+002,  0.00000000000E+000,  0.10000000000E+001
  0.17976953921E+008,  0.20526848177E+007,  0.19000000000E+002,  0.00000000000E+000,  0.10000000000E+001
  0.17977103921E+008,  0.20523837475E+007,  0.19000000000E+002,  0.00000000000E+000,  0.10000000000E+001
  0.17977253921E+008,  0.20520843390E+007,  0.19000000000E+002,  0.00000000000E+000,  0.10000000000E+001
  0.17977403921E+008,  0.20517865865E+007,  0.19000000000E+002,  0.00000000000E+000,  0.10000000000E+001
  0.17977553921E+008,  0.20514904840E+007,  0.19000000000E+002,  0.00000000000E+000,  0.10000000000E+001
  0.17977703921E+008,  0.20511960255E+007,  0.19000000000E+002,  0.00000000000E+000,  0.10000000000E+001
  0.17977853921E+008,  0.20509032050E+007,  0.19000000000E+002,  0.00000000000E+000,  0.10000000000E+001
  0.17978003921E+008,  0.20506120161E+007,  0.19000000000E+002,  0.00000000000E+000,  0.10000000000E+001
  0.17978153921E+008,  0.20503224525E+007,  0.19000000000E+002,  0.00000000000E+000,  0.10000000000E+001
  0.17978303921E+008,  0.20500345078E+007,  0.19000000000E+002,  0.00000000000E+000,  0.10000000000E+001
  0.17978453921E+008,  0.20497481753E+007,  0.19000000000E+002,  0.00000000000E+000,  0.10000000000E+001
  0.17978603921E+008,  0.20494634484E+007,  0.19000000000E+002,  0.00000000000E+000,  0.10000000000E+001
  0.17978753921E+008,  0.20491803205E+007,  0.19000000000E+002,  0.00000000000E+000,  0.10000000000E+001
  0.17978903921E+008,  0.20488987846E+007,  0.19000000000E+002,  0.00000000000E+000,  0.10000000000E+001
  0.17979053921E+008,  0.20486188341E+007,  0.19000000000E+002,  0.00000000000E+000,  0.10000000000E+001
  0.17979203921E+008,  0.20483404619E+007,  0.19000000000E+002,  0.00000000000E+000,  0.10000000000E+001
  0.17979353921E+008,  0.20480636612E+007,  0.19000000000E+002,  0.00000000000E+000,  0.10000000000E+001
  0.17979503921E+008,  0.20477884248E+007,  0.19000000000E+002,  0.00000000000E+000,  0.10000000000E+001
  0.17979653921E+008,  0.20475147457E+007,  0.19000000000E+002,  0.00000000000E+000,  0.10000000000E+001
  0.17979803921E+008,  0.20472426168E+007,  0.19000000000E+002,  0.00000000000E+000,  0.10000000000E+001
  0.17979953921E+008,  0.20469720310E+007,  0.19000000000E+002,  0.00000000000E+000,  0.10000000000E+001
  0.17980103921E+008,  0.20467029811E+007,  0.19000000000E+002,  0.00000000000E+000,  0.10000000000E+001
  0.17980253921E+008,  0.20464354598E+007,  0.19000000000E+002,  0.00000000000E+000,  0.10000000000E+001
  0.17980403921E+008,  0.20461694601E+007,  0.19000000000E+002,  0.00000000000E+000,  0.10000000000E+001
  0.17980553921E+008,  0.20459049745E+007,  0.19000000000E+002,  0.00000000000E+000,  0.10000000000E+001
  0.17980703921E+008,  0.20456419959E+007,  0.19000000000E+002,  0.00000000000E+000,  0.10000000000E+001
  0.17980853921E+008,  0.20453805169E+007,  0.19000000000E+002,  0.00000000000E+000,  0.10000000000E+001
  0.17981003921E+008,  0.20451205303E+007,  0.19000000000E+002,  0.00000000000E+000,  0.10000000000E+001
  0.17981153921E+008,  0.20448620287E+007,  0.19000000000E+002,  0.00000000000E+000,  0.10000000000E+001
  0.17981303921E+008,  0.20446050049E+007,  0.19000000000E+002,  0.00000000000E+000,  0.10000000000E+001
  0.17981453921E+008,  0.20443494515E+007,  0.19000000000E+002,  0.00000000000E+000,  0.10000000000E+001
  0.17981603921E+008,  0.20440953611E+007,  0.19000000000E+002,  0.00000000000E+000,  0.10000000000E+001
  0.17981753921E+008,  0.20438427265E+007,  0.19000000000E+002,  0.00000000000E+000,  0.10000000000E+001
  0.17981903921E+008,  0.20435915403E+007,  0.19000000000E+002,  0.00000000000E+000,  0.10000000000E+001
  0.17982053921E+008,  0.20433417952E+007,  0.19000000000E+002,  0.00000000000E+000,  0.10000000000E+001
  0.17982203921E+008,  0.20430934838E+007,  0.19000000000E+002,  0.00000000000E+000,  0.10000000000E+001
  0.17982353921E+008,  0.20428465989E+007,  0.19000000000E+002,  0.00000000000E+000,  0.10000000000E+001
  0.17982503921E+008,  0.20426011332E+007,  0.19000000000E+002,  0.00000000000E+000,  0.10000000000E+001
  0.17982653921E+008,  0.20423570792E+007,  0.19000000000E+002,  0.00000000000E+000,  0.10000000000E+001
  0.17982803921E+008,  0.20421144299E+007,  0.19000000000E+002,  0.00000000000E+000,  0.10000000000E+001
  0.17982953921E+008,  0.20418731777E+007,  0.19000000000E+002,  0.00000000000E+000,  0.10000000000E+001
  0.17983103921E+008,  0.20416333156E+007,  0.19000000000E+002,  0.00000000000E+000,  0.10000000000E+001
  0.17983253921E+008,  0.20413948361E+007,  0.19000000000E+002,  0.00000000000E+000,  0.10000000000E+001
  0.17983403921E+008,  0.20411577322E+007,  0.19000000000E+002,  0.00000000000E+000,  0.10000000000E+001
  0.17983553921E+008,  0.20409219965E+007,  0.19000000000E+002,  0.00000000000E+000,  0.10000000000E+001
  0.17983703921E+008,  0.20406876219E+007,  0.19000000000E+002,  0.00000000000E+000,  0.10000000000E+001
  0.17983853921E+008,  0.20404546012E+007,  0.19000000000E+002,  0.00000000000E+000,  0.10000000000E+001
  0.17984003921E+008,  0.20402229271E+007,  0.19000000000E+002,  0.00000000000E+000,  0.10000000000E+001
  0.17984153921E+008,  0.20399925925E+007,  0.19000000000E+002,  0.00000000000E+000,  0.10000000000E+001
  0.17984303921E+008,  0.20397635904E+007,  0.19000000000E+002,  0.00000000000E+000,  0.10000000000E+001
  0.17984453921E+008,  0.20395359135E+007,  0.19000000000E+002,  0.00000000000E+000,  0.10000000000E+001
  0.17984603921E+008,  0.20393095547E+007,  0.19000000000E+002,  0.00000000000E+000,  0.10000000000E+001
  0.17984753921E+008,  0.20390845071E+007,  0.19000000000E+002,  0.00000000000E+000,  0.10000000000E+001
  0.17984903921E+008,  0.20388607636E+007,  0.19000000000E+002,  0.00000000000E+000,  0.10000000000E+001
  0.17985053921E+008,  0.20386383171E+007,  0.19000000000E+002,  0.00000000000E+000,  0.10000000000E+001
  0.17985203921E+008,  0.20384171606E+007,  0.19000000000E+002,  0.00000000000E+000,  0.10000000000E+001
  0.17985353921E+008,  0.20381972871E+007,  0.19000000000E+002,  0.00000000000E+000,  0.10000000000E+001
  0.17985503921E+008,  0.20379786897E+007,  0.19000000000E+002,  0.00000000000E+000,  0.10000000000E+001
  0.17985653921E+008,  0.20377613615E+007,  0.19000000000E+002,  0.00000000000E+000,  0.10000000000E+001
  0.17985803921E+008,  0.20375452955E+007,  0.19000000000E+002,  0.00000000000E+000,  0.10000000000E+001
  0.17985953921E+008,  0.20373304849E+007,  0.19000000000E+002,  0.00000000000E+000,  0.10000000000E+001
  0.17986103921E+008,  0.20371169227E+007,  0.19000000000E+002,  0.00000000000E+000,  0.10000000000E+001
  0.17986253921E+008,  0.20369046023E+007,  0.19000000000E+002,  0.00000000000E+000,  0.10000000000E+001
  0.17986403921E+008,  0.20366935167E+007,  0.19000000000E+002,  0.00000000000E+000,  0.10000000000E+001
  0.17986553921E+008,  0.20364836592E+007,  0.19000000000E+002,  0.00000000000E+000,  0.10000000000E+001
  0.17986703921E+008,  0.20362750230E+007,  0.19000000000E+002,  0.00000000000E+000,  0.10000000000E+001
  0.17986853921E+008,  0.20360676015E+007,  0.19000000000E+002,  0.00000000000E+000,  0.10000000000E+001
  0.17987003921E+008,  0.20358613879E+007,  0.19000000000E+002,  0.00000000000E+000,  0.10000000000E+001
  0.17987153921E+008,  0.20356563755E+007,  0.19000000000E+002,  0.00000000000E+000,  0.10000000000E+001
  0.17987303921E+008,  0.20354525578E+007,  0.19000000000E+002,  0.00000000000E+000,  0.10000000000E+001
  0.17987453921E+008,  0.20352499280E+007,  0.19000000000E+002,  0.00000000000E+000,  0.10000000000E+001
  0.17987603921E+008,  0.20350484797E+007,  0.19000000000E+002,  0.00000000000E+000,  0.10000000000E+001
  0.17987753921E+008,  0.20348482062E+007,  0.19000000000E+002,  0.00000000000E+000,  0.10000000000E+001
  0.17987903921E+008,  0.20346491010E+007,  0.19000000000E+002,  0.00000000000E+000,  0.10000000000E+001
  0.17988053921E+008,  0.20344511577E+007,  0.19000000000E+002,  0.00000000000E+000,  0.10000000000E+001
  0.17988203921E+008,  0.20342543698E+007,  0.19000000000E+002,  0.00000000000E+000,  0.10000000000E+001
  0.17988353921E+008,  0.20340587307E+007,  0.19000000000E+002,  0.00000000000E+000,  0.10000000000E+001
  0.17988503921E+008,  0.20338642342E+007,  0.19000000000E+002,  0.00000000000E+000,  0.10000000000E+001
  0.17988653921E+008,  0.20336708738E+007,  0.19000000000E+002,  0.00000000000E+000,  0.10000000000E+001
  0.17988803921E+008,  0.20334786432E+007,  0.19000000000E+002,  0.00000000000E+000,  0.10000000000E+001
  0.17988953921E+008,  0.20332875360E+007,  0.19000000000E+002,  0.00000000000E+000,  0.10000000000E+001
  0.17989103921E+008,  0.20330975459E+007,  0.19000000000E+002,  0.00000000000E+000,  0.10000000000E+001
  0.17989253921E+008,  0.20329086668E+007,  0.19000000000E+002,  0.00000000000E+000,  0.10000000000E+001
  0.17989403921E+008,  0.20327208922E+007,  0.19000000000E+002,  0.00000000000E+000,  0.10000000000E+001
