"           TIME(S)","              PRES","              TEMP","             SAT_G","             SAT_L"
  0.17592105000E+008,  0.21000000023E+007,  0.19000000000E+002,  0.10000000000E+001,  0.00000000000E+000
  0.17592130000E+008,  0.21000000138E+007,  0.19000000000E+002,  0.10000000000E+001,  0.00000000000E+000
  0.17592255000E+008,  0.21000000784E+007,  0.19000000000E+002,  0.10000000000E+001,  0.00000000000E+000
  0.17592405000E+008,  0.21000001636E+007,  0.19000000000E+002,  0.10000000000E+001,  0.00000000000E+000
  0.17592555000E+008,  0.21000001921E+007,  0.19000000000E+002,  0.10000000000E+001,  0.00000000000E+000
  0.17592705000E+008,  0.21000000883E+007,  0.19000000000E+002,  0.10000000000E+001,  0.00000000000E+000
  0.17592855000E+008,  0.20999997511E+007,  0.19000000000E+002,  0.10000000000E+001,  0.00000000000E+000
  0.17593005000E+008,  0.20999990654E+007,  0.19000000000E+002,  0.10000000000E+001,  0.00000000000E+000
  0.17593155000E+008,  0.20999978746E+007,  0.19000000000E+002,  0.10000000000E+001,  0.00000000000E+000
  0.17593305000E+008,  0.20999960077E+007,  0.19000000000E+002,  0.10000000000E+001,  0.00000000000E+000
  0.17593455000E+008,  0.20999933037E+007,  0.19000000000E+002,  0.10000000000E+001,  0.00000000000E+000
  0.17593605000E+008,  0.20999896191E+007,  0.19000000000E+002,  0.10000000000E+001,  0.00000000000E+000
  0.17593755000E+008,  0.20999848267E+007,  0.19000000000E+002,  0.10000000000E+001,  0.00000000000E+000
  0.17593905000E+008,  0.20999788148E+007,  0.19000000000E+002,  0.10000000000E+001,  0.00000000000E+000
  0.17594055000E+008,  0.20999714866E+007,  0.19000000000E+002,  0.10000000000E+001,  0.00000000000E+000
  0.17594205000E+008,  0.20999627588E+007,  0.19000000000E+002,  0.10000000000E+001,  0.00000000000E+000
  0.17594355000E+008,  0.20999525610E+007,  0.19000000000E+002,  0.10000000000E+001,  0.00000000000E+000
  0.17594505000E+008,  0.20999408351E+007,  0.19000000000E+002,  0.10000000000E+001,  0.00000000000E+000
  0.17594655000E+008,  0.20999275342E+007,  0.19000000000E+002,  0.10000000000E+001,  0.00000000000E+000
  0.17594805000E+008,  0.20999126218E+007,  0.19000000000E+002,  0.10000000000E+001,  0.00000000000E+000
  0.17594955000E+008,  0.20998960704E+007,  0.19000000000E+002,  0.10000000000E+001,  0.00000000000E+000
  0.17595105000E+008,  0.20998778612E+007,  0.19000000000E+002,  0.10000000000E+001,  0.00000000000E+000
  0.17595255000E+008,  0.20998579824E+007,  0.19000000000E+002,  0.10000000000E+001,  0.00000000000E+000
  0.17595405000E+008,  0.20998364289E+007,  0.19000000000E+002,  0.10000000000E+001,  0.00000000000E+000
  0.17595555000E+008,  0.20998145334E+007,  0.19000000000E+002,  0.10000000000E+001,  0.00000000000E+000
  0.17595630000E+008,  0.20998036763E+007,  0.19000000000E+002,  0.10000000000E+001,  0.00000000000E+000
  0.17595667501E+008,  0.20997982898E+007,  0.19000000000E+002,  0.10000000000E+001,  0.00000000000E+000
  0.17595817501E+008,  0.20997774314E+007,  0.19000000000E+002,  0.10000000000E+001,  0.00000000000E+000
  0.17595826876E+008,  0.20997761306E+007,  0.19000000000E+002,  0.10000000000E+001,  0.00000000000E+000
  0.17595831564E+008,  0.20997754808E+007,  0.19000000000E+002,  0.10000000000E+001,  0.00000000000E+000
  0.17595855001E+008,  0.20997722542E+007,  0.19000000000E+002,  0.10000000000E+001,  0.00000000000E+000
  0.17595866720E+008,  0.20997706471E+007,  0.19000000000E+002,  0.10000000000E+001,  0.00000000000E+000
  0.17595872580E+008,  0.20997698452E+007,  0.19000000000E+002,  0.10000000000E+001,  0.00000000000E+000
  0.17595901877E+008,  0.20997658930E+007,  0.19000000000E+002,  0.10000000000E+001,  0.00000000000E+000
  0.17595916526E+008,  0.20997639337E+007,  0.19000000000E+002,  0.10000000000E+001,  0.00000000000E+000
  0.17595989771E+008,  0.20997547040E+007,  0.19000000000E+002,  0.10000000000E+001,  0.00000000000E+000
  0.17596139771E+008,  0.20997370982E+007,  0.19000000000E+002,  0.10000000000E+001,  0.00000000000E+000
  0.17596289771E+008,  0.20997199886E+007,  0.19000000000E+002,  0.10000000000E+001,  0.00000000000E+000
  0.17596364771E+008,  0.20997116699E+007,  0.19000000000E+002,  0.10000000000E+001,  0.00000000000E+000
  0.17596402272E+008,  0.20997076741E+007,  0.19000000000E+002,  0.10000000000E+001,  0.00000000000E+000
  0.17596421022E+008,  0.20997057308E+007,  0.19000000000E+002,  0.10000000000E+001,  0.00000000000E+000
  0.17596514774E+008,  0.20996969993E+007,  0.19000000000E+002,  0.10000000000E+001,  0.00000000000E+000
  0.17596664774E+008,  0.20996843172E+007,  0.19000000000E+002,  0.10000000000E+001,  0.00000000000E+000
  0.17596739774E+008,  0.20996791080E+007,  0.19000000000E+002,  0.10000000000E+001,  0.00000000000E+000
  0.17596777275E+008,  0.20996769861E+007,  0.19000000000E+002,  0.10000000000E+001,  0.00000000000E+000
  0.17596927275E+008,  0.20996760625E+007,  0.19000000000E+002,  0.10000000000E+001,  0.00000000000E+000
  0.17597002275E+008,  0.20996815063E+007,  0.19000000000E+002,  0.10000000000E+001,  0.00000000000E+000
  0.17597152275E+008,  0.20996869102E+007,  0.19000000000E+002,  0.10000000000E+001,  0.00000000000E+000
  0.17597302275E+008,  0.20996896834E+007,  0.19000000000E+002,  0.10000000000E+001,  0.00000000000E+000
  0.17597452275E+008,  0.20996911354E+007,  0.19000000000E+002,  0.10000000000E+001,  0.00000000000E+000
  0.17597602275E+008,  0.20996918973E+007,  0.19000000000E+002,  0.10000000000E+001,  0.00000000000E+000
  0.17597752275E+008,  0.20996922900E+007,  0.19000000000E+002,  0.10000000000E+001,  0.00000000000E+000
  0.17597902275E+008,  0.20996924830E+007,  0.19000000000E+002,  0.10000000000E+001,  0.00000000000E+000
  0.17598052275E+008,  0.20996925675E+007,  0.19000000000E+002,  0.10000000000E+001,  0.00000000000E+000
  0.17598202275E+008,  0.20996925932E+007,  0.19000000000E+002,  0.10000000000E+001,  0.00000000000E+000
  0.17598352275E+008,  0.20996925872E+007,  0.19000000000E+002,  0.10000000000E+001,  0.00000000000E+000
  0.17598502275E+008,  0.20996925645E+007,  0.19000000000E+002,  0.10000000000E+001,  0.00000000000E+000
  0.17598652275E+008,  0.20996925333E+007,  0.19000000000E+002,  0.10000000000E+001,  0.00000000000E+000
  0.17598802275E+008,  0.20996924979E+007,  0.19000000000E+002,  0.10000000000E+001,  0.00000000000E+000
  0.17598952275E+008,  0.20996924608E+007,  0.19000000000E+002,  0.10000000000E+001,  0.00000000000E+000
  0.17599102275E+008,  0.20996924233E+007,  0.19000000000E+002,  0.10000000000E+001,  0.00000000000E+000
  0.17599252275E+008,  0.20996923860E+007,  0.19000000000E+002,  0.10000000000E+001,  0.00000000000E+000
  0.17599402275E+008,  0.20996923494E+007,  0.19000000000E+002,  0.10000000000E+001,  0.00000000000E+000
  0.17599552275E+008,  0.20996923134E+007,  0.19000000000E+002,  0.10000000000E+001,  0.00000000000E+000
  0.17599702275E+008,  0.20996922783E+007,  0.19000000000E+002,  0.10000000000E+001,  0.00000000000E+000
  0.17599852275E+008,  0.20996922439E+007,  0.19000000000E+002,  0.10000000000E+001,  0.00000000000E+000
  0.17600002275E+008,  0.20996922103E+007,  0.19000000000E+002,  0.10000000000E+001,  0.00000000000E+000
  0.17600152275E+008,  0.20996921774E+007,  0.19000000000E+002,  0.10000000000E+001,  0.00000000000E+000
  0.17600302275E+008,  0.20996921452E+007,  0.19000000000E+002,  0.10000000000E+001,  0.00000000000E+000
  0.17600452275E+008,  0.20996921135E+007,  0.19000000000E+002,  0.10000000000E+001,  0.00000000000E+000
  0.17600602275E+008,  0.20996920824E+007,  0.19000000000E+002,  0.10000000000E+001,  0.00000000000E+000
  0.17600752275E+008,  0.20996920519E+007,  0.19000000000E+002,  0.10000000000E+001,  0.00000000000E+000
  0.17600902275E+008,  0.20996920217E+007,  0.19000000000E+002,  0.10000000000E+001,  0.00000000000E+000
  0.17601052275E+008,  0.20996919920E+007,  0.19000000000E+002,  0.10000000000E+001,  0.00000000000E+000
  0.17601202275E+008,  0.20996919627E+007,  0.19000000000E+002,  0.10000000000E+001,  0.00000000000E+000
  0.17601352275E+008,  0.20996919338E+007,  0.19000000000E+002,  0.10000000000E+001,  0.00000000000E+000
  0.17601502275E+008,  0.20996919052E+007,  0.19000000000E+002,  0.10000000000E+001,  0.00000000000E+000
  0.17601652275E+008,  0.20996918769E+007,  0.19000000000E+002,  0.10000000000E+001,  0.00000000000E+000
  0.17601802275E+008,  0.20996918488E+007,  0.19000000000E+002,  0.10000000000E+001,  0.00000000000E+000
  0.17601952275E+008,  0.20996918210E+007,  0.19000000000E+002,  0.10000000000E+001,  0.00000000000E+000
  0.17602102275E+008,  0.20996917935E+007,  0.19000000000E+002,  0.10000000000E+001,  0.00000000000E+000
  0.17602252275E+008,  0.20996917661E+007,  0.19000000000E+002,  0.10000000000E+001,  0.00000000000E+000
  0.17602402275E+008,  0.20996917390E+007,  0.19000000000E+002,  0.10000000000E+001,  0.00000000000E+000
  0.17602552275E+008,  0.20996917120E+007,  0.19000000000E+002,  0.10000000000E+001,  0.00000000000E+000
  0.17602702275E+008,  0.20996916851E+007,  0.19000000000E+002,  0.10000000000E+001,  0.00000000000E+000
  0.17602852275E+008,  0.20996916585E+007,  0.19000000000E+002,  0.10000000000E+001,  0.00000000000E+000
  0.17603002275E+008,  0.20996916319E+007,  0.19000000000E+002,  0.10000000000E+001,  0.00000000000E+000
  0.17603152275E+008,  0.20996916055E+007,  0.19000000000E+002,  0.10000000000E+001,  0.00000000000E+000
  0.17603302275E+008,  0.20996915792E+007,  0.19000000000E+002,  0.10000000000E+001,  0.00000000000E+000
  0.17603452275E+008,  0.20996915530E+007,  0.19000000000E+002,  0.10000000000E+001,  0.00000000000E+000
  0.17603602275E+008,  0.20996915269E+007,  0.19000000000E+002,  0.10000000000E+001,  0.00000000000E+000
  0.17603752275E+008,  0.20996915008E+007,  0.19000000000E+002,  0.10000000000E+001,  0.00000000000E+000
  0.17603902275E+008,  0.20996914749E+007,  0.19000000000E+002,  0.10000000000E+001,  0.00000000000E+000
  0.17604052275E+008,  0.20996914490E+007,  0.19000000000E+002,  0.10000000000E+001,  0.00000000000E+000
  0.17604202275E+008,  0.20996914231E+007,  0.19000000000E+002,  0.10000000000E+001,  0.00000000000E+000
  0.17604352275E+008,  0.20996913973E+007,  0.19000000000E+002,  0.10000000000E+001,  0.00000000000E+000
  0.17604502275E+008,  0.20996913716E+007,  0.19000000000E+002,  0.10000000000E+001,  0.00000000000E+000
  0.17604652275E+008,  0.20996913459E+007,  0.19000000000E+002,  0.10000000000E+001,  0.00000000000E+000
  0.17604802275E+008,  0.20996913202E+007,  0.19000000000E+002,  0.10000000000E+001,  0.00000000000E+000
  0.17604952275E+008,  0.20996912945E+007,  0.19000000000E+002,  0.10000000000E+001,  0.00000000000E+000
  0.17605102275E+008,  0.20996912689E+007,  0.19000000000E+002,  0.10000000000E+001,  0.00000000000E+000
  0.17605252275E+008,  0.20996912432E+007,  0.19000000000E+002,  0.10000000000E+001,  0.00000000000E+000
  0.17605402275E+008,  0.20996912176E+007,  0.19000000000E+002,  0.10000000000E+001,  0.00000000000E+000
  0.17605552275E+008,  0.20996911920E+007,  0.19000000000E+002,  0.10000000000E+001,  0.00000000000E+000
  0.17605702275E+008,  0.20996911664E+007,  0.19000000000E+002,  0.10000000000E+001,  0.00000000000E+000
  0.17605852275E+008,  0.20996911407E+007,  0.19000000000E+002,  0.10000000000E+001,  0.00000000000E+000
  0.17606002275E+008,  0.20996911151E+007,  0.19000000000E+002,  0.10000000000E+001,  0.00000000000E+000
  0.17606152275E+008,  0.20996910894E+007,  0.19000000000E+002,  0.10000000000E+001,  0.00000000000E+000
  0.17606302275E+008,  0.20996910637E+007,  0.19000000000E+002,  0.10000000000E+001,  0.00000000000E+000
  0.17606452275E+008,  0.20996910381E+007,  0.19000000000E+002,  0.10000000000E+001,  0.00000000000E+000
  0.17606602275E+008,  0.20996910123E+007,  0.19000000000E+002,  0.10000000000E+001,  0.00000000000E+000
  0.17606752275E+008,  0.20996909866E+007,  0.19000000000E+002,  0.10000000000E+001,  0.00000000000E+000
  0.17606902275E+008,  0.20996909608E+007,  0.19000000000E+002,  0.10000000000E+001,  0.00000000000E+000
  0.17607052275E+008,  0.20996909350E+007,  0.19000000000E+002,  0.10000000000E+001,  0.00000000000E+000
  0.17607202275E+008,  0.20996909091E+007,  0.19000000000E+002,  0.10000000000E+001,  0.00000000000E+000
  0.17607352275E+008,  0.20996908832E+007,  0.19000000000E+002,  0.10000000000E+001,  0.00000000000E+000
  0.17607502275E+008,  0.20996908573E+007,  0.19000000000E+002,  0.10000000000E+001,  0.00000000000E+000
  0.17607652275E+008,  0.20996908313E+007,  0.19000000000E+002,  0.10000000000E+001,  0.00000000000E+000
  0.17607802275E+008,  0.20996908052E+007,  0.19000000000E+002,  0.10000000000E+001,  0.00000000000E+000
  0.17607952275E+008,  0.20996907791E+007,  0.19000000000E+002,  0.10000000000E+001,  0.00000000000E+000
  0.17608102275E+008,  0.20996907530E+007,  0.19000000000E+002,  0.10000000000E+001,  0.00000000000E+000
  0.17608252275E+008,  0.20996907268E+007,  0.19000000000E+002,  0.10000000000E+001,  0.00000000000E+000
  0.17608402275E+008,  0.20996907005E+007,  0.19000000000E+002,  0.10000000000E+001,  0.00000000000E+000
  0.17608552275E+008,  0.20996906742E+007,  0.19000000000E+002,  0.10000000000E+001,  0.00000000000E+000
  0.17608702275E+008,  0.20996906478E+007,  0.19000000000E+002,  0.10000000000E+001,  0.00000000000E+000
  0.17608852275E+008,  0.20996906213E+007,  0.19000000000E+002,  0.10000000000E+001,  0.00000000000E+000
  0.17609002275E+008,  0.20996905948E+007,  0.19000000000E+002,  0.10000000000E+001,  0.00000000000E+000
  0.17609152275E+008,  0.20996905682E+007,  0.19000000000E+002,  0.10000000000E+001,  0.00000000000E+000
  0.17609302275E+008,  0.20996905416E+007,  0.19000000000E+002,  0.10000000000E+001,  0.00000000000E+000
  0.17609452275E+008,  0.20996905148E+007,  0.19000000000E+002,  0.10000000000E+001,  0.00000000000E+000
  0.17609602275E+008,  0.20996904880E+007,  0.19000000000E+002,  0.10000000000E+001,  0.00000000000E+000
  0.17609752275E+008,  0.20996904611E+007,  0.19000000000E+002,  0.10000000000E+001,  0.00000000000E+000
  0.17609902275E+008,  0.20996904342E+007,  0.19000000000E+002,  0.10000000000E+001,  0.00000000000E+000
  0.17610052275E+008,  0.20996904071E+007,  0.19000000000E+002,  0.10000000000E+001,  0.00000000000E+000
  0.17610202275E+008,  0.20996903800E+007,  0.19000000000E+002,  0.10000000000E+001,  0.00000000000E+000
  0.17610352275E+008,  0.20996903528E+007,  0.19000000000E+002,  0.10000000000E+001,  0.00000000000E+000
  0.17610502275E+008,  0.20996903255E+007,  0.19000000000E+002,  0.10000000000E+001,  0.00000000000E+000
  0.17610652275E+008,  0.20996902981E+007,  0.19000000000E+002,  0.10000000000E+001,  0.00000000000E+000
  0.17610802275E+008,  0.20996902707E+007,  0.19000000000E+002,  0.10000000000E+001,  0.00000000000E+000
  0.17610952275E+008,  0.20996902431E+007,  0.19000000000E+002,  0.10000000000E+001,  0.00000000000E+000
  0.17611102275E+008,  0.20996902155E+007,  0.19000000000E+002,  0.10000000000E+001,  0.00000000000E+000
  0.17611252275E+008,  0.20996901877E+007,  0.19000000000E+002,  0.10000000000E+001,  0.00000000000E+000
  0.17611402275E+008,  0.20996901599E+007,  0.19000000000E+002,  0.10000000000E+001,  0.00000000000E+000
  0.17611552275E+008,  0.20996901320E+007,  0.19000000000E+002,  0.10000000000E+001,  0.00000000000E+000
  0.17611702275E+008,  0.20996901040E+007,  0.19000000000E+002,  0.10000000000E+001,  0.00000000000E+000
  0.17611852275E+008,  0.20996900759E+007,  0.19000000000E+002,  0.10000000000E+001,  0.00000000000E+000
  0.17612002275E+008,  0.20996900477E+007,  0.19000000000E+002,  0.10000000000E+001,  0.00000000000E+000
  0.17612152275E+008,  0.20996900194E+007,  0.19000000000E+002,  0.10000000000E+001,  0.00000000000E+000
  0.17612302275E+008,  0.20996899911E+007,  0.19000000000E+002,  0.10000000000E+001,  0.00000000000E+000
  0.17612452275E+008,  0.20996899626E+007,  0.19000000000E+002,  0.10000000000E+001,  0.00000000000E+000
  0.17612602275E+008,  0.20996899340E+007,  0.19000000000E+002,  0.10000000000E+001,  0.00000000000E+000
  0.17612752275E+008,  0.20996899053E+007,  0.19000000000E+002,  0.10000000000E+001,  0.00000000000E+000
  0.17612902275E+008,  0.20996898765E+007,  0.19000000000E+002,  0.10000000000E+001,  0.00000000000E+000
  0.17613052275E+008,  0.20996898477E+007,  0.19000000000E+002,  0.10000000000E+001,  0.00000000000E+000
  0.17613202275E+008,  0.20996898187E+007,  0.19000000000E+002,  0.10000000000E+001,  0.00000000000E+000
  0.17613352275E+008,  0.20996897896E+007,  0.19000000000E+002,  0.10000000000E+001,  0.00000000000E+000
  0.17613502275E+008,  0.20996897604E+007,  0.19000000000E+002,  0.10000000000E+001,  0.00000000000E+000
  0.17613652275E+008,  0.20996897311E+007,  0.19000000000E+002,  0.10000000000E+001,  0.00000000000E+000
  0.17613802275E+008,  0.20996897018E+007,  0.19000000000E+002,  0.10000000000E+001,  0.00000000000E+000
  0.17613952275E+008,  0.20996896723E+007,  0.19000000000E+002,  0.10000000000E+001,  0.00000000000E+000
  0.17614102275E+008,  0.20996896427E+007,  0.19000000000E+002,  0.10000000000E+001,  0.00000000000E+000
  0.17614252275E+008,  0.20996896130E+007,  0.19000000000E+002,  0.10000000000E+001,  0.00000000000E+000
  0.17614402275E+008,  0.20996895832E+007,  0.19000000000E+002,  0.10000000000E+001,  0.00000000000E+000
  0.17614552275E+008,  0.20996895532E+007,  0.19000000000E+002,  0.10000000000E+001,  0.00000000000E+000
  0.17614702275E+008,  0.20996895232E+007,  0.19000000000E+002,  0.10000000000E+001,  0.00000000000E+000
  0.17614852275E+008,  0.20996894931E+007,  0.19000000000E+002,  0.10000000000E+001,  0.00000000000E+000
  0.17615002275E+008,  0.20996894629E+007,  0.19000000000E+002,  0.10000000000E+001,  0.00000000000E+000
  0.17615152275E+008,  0.20996894325E+007,  0.19000000000E+002,  0.10000000000E+001,  0.00000000000E+000
  0.17615302275E+008,  0.20996894021E+007,  0.19000000000E+002,  0.10000000000E+001,  0.00000000000E+000
  0.17615452275E+008,  0.20996893715E+007,  0.19000000000E+002,  0.10000000000E+001,  0.00000000000E+000
  0.17615602275E+008,  0.20996893409E+007,  0.19000000000E+002,  0.10000000000E+001,  0.00000000000E+000
  0.17615752275E+008,  0.20996893101E+007,  0.19000000000E+002,  0.10000000000E+001,  0.00000000000E+000
  0.17615902275E+008,  0.20996892792E+007,  0.19000000000E+002,  0.10000000000E+001,  0.00000000000E+000
  0.17616052275E+008,  0.20996892482E+007,  0.19000000000E+002,  0.10000000000E+001,  0.00000000000E+000
  0.17616202275E+008,  0.20996892171E+007,  0.19000000000E+002,  0.10000000000E+001,  0.00000000000E+000
  0.17616352275E+008,  0.20996891859E+007,  0.19000000000E+002,  0.10000000000E+001,  0.00000000000E+000
  0.17616502275E+008,  0.20996891546E+007,  0.19000000000E+002,  0.10000000000E+001,  0.00000000000E+000
  0.17616652275E+008,  0.20996891231E+007,  0.19000000000E+002,  0.10000000000E+001,  0.00000000000E+000
  0.17616802275E+008,  0.20996890916E+007,  0.19000000000E+002,  0.10000000000E+001,  0.00000000000E+000
  0.17616952275E+008,  0.20996890599E+007,  0.19000000000E+002,  0.10000000000E+001,  0.00000000000E+000
  0.17617102275E+008,  0.20996890282E+007,  0.19000000000E+002,  0.10000000000E+001,  0.00000000000E+000
  0.17617252275E+008,  0.20996889963E+007,  0.19000000000E+002,  0.10000000000E+001,  0.00000000000E+000
  0.17617402275E+008,  0.20996889643E+007,  0.19000000000E+002,  0.10000000000E+001,  0.00000000000E+000
  0.17617552275E+008,  0.20996889322E+007,  0.19000000000E+002,  0.10000000000E+001,  0.00000000000E+000
  0.17617702275E+008,  0.20996889000E+007,  0.19000000000E+002,  0.10000000000E+001,  0.00000000000E+000
  0.17617852275E+008,  0.20996888677E+007,  0.19000000000E+002,  0.10000000000E+001,  0.00000000000E+000
  0.17618002275E+008,  0.20996888352E+007,  0.19000000000E+002,  0.10000000000E+001,  0.00000000000E+000
  0.17618152275E+008,  0.20996888027E+007,  0.19000000000E+002,  0.10000000000E+001,  0.00000000000E+000
  0.17618302275E+008,  0.20996887700E+007,  0.19000000000E+002,  0.10000000000E+001,  0.00000000000E+000
