"           TIME(S)","              PRES","              TEMP","             SAT_G","             SAT_L"
  0.18228740000E+008,  0.20000083675E+007,  0.19000000000E+002,  0.00000000000E+000,  0.10000000000E+001
  0.18228890000E+008,  0.20000745563E+007,  0.19000000000E+002,  0.00000000000E+000,  0.10000000000E+001
  0.18229040000E+008,  0.20001278216E+007,  0.19000000000E+002,  0.00000000000E+000,  0.10000000000E+001
  0.18229190000E+008,  0.20001645291E+007,  0.19000000000E+002,  0.00000000000E+000,  0.10000000000E+001
  0.18229340000E+008,  0.20001904668E+007,  0.19000000000E+002,  0.00000000000E+000,  0.10000000000E+001
  0.18229490000E+008,  0.20002107178E+007,  0.19000000000E+002,  0.00000000000E+000,  0.10000000000E+001
  0.18229640000E+008,  0.20002285427E+007,  0.19000000000E+002,  0.00000000000E+000,  0.10000000000E+001
  0.18229715000E+008,  0.20002371554E+007,  0.19000000000E+002,  0.00000000000E+000,  0.10000000000E+001
  0.18229865000E+008,  0.20002546321E+007,  0.19000000000E+002,  0.00000000000E+000,  0.10000000000E+001
  0.18230015000E+008,  0.20002732185E+007,  0.19000000000E+002,  0.00000000000E+000,  0.10000000000E+001
  0.18230165000E+008,  0.20002934229E+007,  0.19000000000E+002,  0.00000000000E+000,  0.10000000000E+001
  0.18230315000E+008,  0.20003155436E+007,  0.19000000000E+002,  0.00000000000E+000,  0.10000000000E+001
  0.18230465000E+008,  0.20003397501E+007,  0.19000000000E+002,  0.00000000000E+000,  0.10000000000E+001
  0.18230615000E+008,  0.20003661361E+007,  0.19000000000E+002,  0.00000000000E+000,  0.10000000000E+001
  0.18230690001E+008,  0.20003798826E+007,  0.19000000000E+002,  0.00000000000E+000,  0.10000000000E+001
  0.18230727501E+008,  0.20003868952E+007,  0.19000000000E+002,  0.00000000000E+000,  0.10000000000E+001
  0.18230877501E+008,  0.20004172233E+007,  0.19000000000E+002,  0.00000000000E+000,  0.10000000000E+001
  0.18231027501E+008,  0.20004498716E+007,  0.19000000000E+002,  0.00000000000E+000,  0.10000000000E+001
  0.18231102502E+008,  0.20004667804E+007,  0.19000000000E+002,  0.00000000000E+000,  0.10000000000E+001
  0.18231140002E+008,  0.20004753816E+007,  0.19000000000E+002,  0.00000000000E+000,  0.10000000000E+001
  0.18231158752E+008,  0.20004797189E+007,  0.19000000000E+002,  0.00000000000E+000,  0.10000000000E+001
  0.18231168128E+008,  0.20004818968E+007,  0.19000000000E+002,  0.00000000000E+000,  0.10000000000E+001
  0.18231215004E+008,  0.20004930166E+007,  0.19000000000E+002,  0.00000000000E+000,  0.10000000000E+001
  0.18231365004E+008,  0.20005309555E+007,  0.19000000000E+002,  0.00000000000E+000,  0.10000000000E+001
  0.18231440004E+008,  0.20005505119E+007,  0.19000000000E+002,  0.00000000000E+000,  0.10000000000E+001
  0.18231477505E+008,  0.20005604364E+007,  0.19000000000E+002,  0.00000000000E+000,  0.10000000000E+001
  0.18231496255E+008,  0.20005654352E+007,  0.19000000000E+002,  0.00000000000E+000,  0.10000000000E+001
  0.18231505630E+008,  0.20005679437E+007,  0.19000000000E+002,  0.00000000000E+000,  0.10000000000E+001
  0.18231552506E+008,  0.20005807131E+007,  0.19000000000E+002,  0.00000000000E+000,  0.10000000000E+001
  0.18231702506E+008,  0.20006238346E+007,  0.19000000000E+002,  0.00000000000E+000,  0.10000000000E+001
  0.18231777507E+008,  0.20006459518E+007,  0.19000000000E+002,  0.00000000000E+000,  0.10000000000E+001
  0.18231927507E+008,  0.20006923328E+007,  0.19000000000E+002,  0.00000000000E+000,  0.10000000000E+001
  0.18232002507E+008,  0.20007160501E+007,  0.19000000000E+002,  0.00000000000E+000,  0.10000000000E+001
  0.18232040008E+008,  0.20007280393E+007,  0.19000000000E+002,  0.00000000000E+000,  0.10000000000E+001
  0.18232058758E+008,  0.20007340664E+007,  0.19000000000E+002,  0.00000000000E+000,  0.10000000000E+001
  0.18232068133E+008,  0.20007370880E+007,  0.19000000000E+002,  0.00000000000E+000,  0.10000000000E+001
  0.18232072821E+008,  0.20007386009E+007,  0.19000000000E+002,  0.00000000000E+000,  0.10000000000E+001
  0.18232096259E+008,  0.20007462154E+007,  0.19000000000E+002,  0.00000000000E+000,  0.10000000000E+001
  0.18232107978E+008,  0.20007500352E+007,  0.19000000000E+002,  0.00000000000E+000,  0.10000000000E+001
  0.18232113838E+008,  0.20007519482E+007,  0.19000000000E+002,  0.00000000000E+000,  0.10000000000E+001
  0.18232143136E+008,  0.20007615910E+007,  0.19000000000E+002,  0.00000000000E+000,  0.10000000000E+001
  0.18232157785E+008,  0.20007664317E+007,  0.19000000000E+002,  0.00000000000E+000,  0.10000000000E+001
  0.18232231031E+008,  0.20007911086E+007,  0.19000000000E+002,  0.00000000000E+000,  0.10000000000E+001
  0.18232381031E+008,  0.20008435207E+007,  0.19000000000E+002,  0.00000000000E+000,  0.10000000000E+001
  0.18232456032E+008,  0.20008701807E+007,  0.19000000000E+002,  0.00000000000E+000,  0.10000000000E+001
  0.18232493532E+008,  0.20008836221E+007,  0.19000000000E+002,  0.00000000000E+000,  0.10000000000E+001
  0.18232512282E+008,  0.20008903704E+007,  0.19000000000E+002,  0.00000000000E+000,  0.10000000000E+001
  0.18232606034E+008,  0.20009247650E+007,  0.19000000000E+002,  0.00000000000E+000,  0.10000000000E+001
  0.18232756034E+008,  0.20009813058E+007,  0.19000000000E+002,  0.00000000000E+000,  0.10000000000E+001
  0.18232906034E+008,  0.20010392018E+007,  0.19000000000E+002,  0.00000000000E+000,  0.10000000000E+001
  0.18233056034E+008,  0.20010986337E+007,  0.19000000000E+002,  0.00000000000E+000,  0.10000000000E+001
  0.18233206034E+008,  0.20011601832E+007,  0.19000000000E+002,  0.00000000000E+000,  0.10000000000E+001
  0.18233356034E+008,  0.20012242497E+007,  0.19000000000E+002,  0.00000000000E+000,  0.10000000000E+001
  0.18233506034E+008,  0.20012907755E+007,  0.19000000000E+002,  0.00000000000E+000,  0.10000000000E+001
  0.18233656034E+008,  0.20013595149E+007,  0.19000000000E+002,  0.00000000000E+000,  0.10000000000E+001
  0.18233806034E+008,  0.20014302232E+007,  0.19000000000E+002,  0.00000000000E+000,  0.10000000000E+001
  0.18233956034E+008,  0.20015027143E+007,  0.19000000000E+002,  0.00000000000E+000,  0.10000000000E+001
  0.18234106034E+008,  0.20015768600E+007,  0.19000000000E+002,  0.00000000000E+000,  0.10000000000E+001
  0.18234256034E+008,  0.20016525763E+007,  0.19000000000E+002,  0.00000000000E+000,  0.10000000000E+001
  0.18234406034E+008,  0.20017298098E+007,  0.19000000000E+002,  0.00000000000E+000,  0.10000000000E+001
  0.18234556034E+008,  0.20018085277E+007,  0.19000000000E+002,  0.00000000000E+000,  0.10000000000E+001
  0.18234706034E+008,  0.20018887108E+007,  0.19000000000E+002,  0.00000000000E+000,  0.10000000000E+001
  0.18234856034E+008,  0.20019703487E+007,  0.19000000000E+002,  0.00000000000E+000,  0.10000000000E+001
  0.18235006034E+008,  0.20020534367E+007,  0.19000000000E+002,  0.00000000000E+000,  0.10000000000E+001
  0.18235156034E+008,  0.20021379731E+007,  0.19000000000E+002,  0.00000000000E+000,  0.10000000000E+001
  0.18235306034E+008,  0.20022239586E+007,  0.19000000000E+002,  0.00000000000E+000,  0.10000000000E+001
  0.18235456034E+008,  0.20023113944E+007,  0.19000000000E+002,  0.00000000000E+000,  0.10000000000E+001
  0.18235606034E+008,  0.20024002821E+007,  0.19000000000E+002,  0.00000000000E+000,  0.10000000000E+001
  0.18235756034E+008,  0.20024906232E+007,  0.19000000000E+002,  0.00000000000E+000,  0.10000000000E+001
  0.18235906034E+008,  0.20025824184E+007,  0.19000000000E+002,  0.00000000000E+000,  0.10000000000E+001
  0.18236056034E+008,  0.20026756679E+007,  0.19000000000E+002,  0.00000000000E+000,  0.10000000000E+001
  0.18236206034E+008,  0.20027703708E+007,  0.19000000000E+002,  0.00000000000E+000,  0.10000000000E+001
  0.18236356034E+008,  0.20028665253E+007,  0.19000000000E+002,  0.00000000000E+000,  0.10000000000E+001
  0.18236506034E+008,  0.20029641287E+007,  0.19000000000E+002,  0.00000000000E+000,  0.10000000000E+001
  0.18236656034E+008,  0.20030631771E+007,  0.19000000000E+002,  0.00000000000E+000,  0.10000000000E+001
  0.18236806034E+008,  0.20031636657E+007,  0.19000000000E+002,  0.00000000000E+000,  0.10000000000E+001
  0.18236956034E+008,  0.20032655885E+007,  0.19000000000E+002,  0.00000000000E+000,  0.10000000000E+001
  0.18237106034E+008,  0.20033689387E+007,  0.19000000000E+002,  0.00000000000E+000,  0.10000000000E+001
  0.18237256034E+008,  0.20034737085E+007,  0.19000000000E+002,  0.00000000000E+000,  0.10000000000E+001
  0.18237406034E+008,  0.20035798892E+007,  0.19000000000E+002,  0.00000000000E+000,  0.10000000000E+001
  0.18237556034E+008,  0.20036874711E+007,  0.19000000000E+002,  0.00000000000E+000,  0.10000000000E+001
  0.18237706034E+008,  0.20037964441E+007,  0.19000000000E+002,  0.00000000000E+000,  0.10000000000E+001
  0.18237856034E+008,  0.20039067969E+007,  0.19000000000E+002,  0.00000000000E+000,  0.10000000000E+001
  0.18238006034E+008,  0.20040185177E+007,  0.19000000000E+002,  0.00000000000E+000,  0.10000000000E+001
  0.18238156034E+008,  0.20041315942E+007,  0.19000000000E+002,  0.00000000000E+000,  0.10000000000E+001
  0.18238306034E+008,  0.20042460133E+007,  0.19000000000E+002,  0.00000000000E+000,  0.10000000000E+001
  0.18238456034E+008,  0.20043617614E+007,  0.19000000000E+002,  0.00000000000E+000,  0.10000000000E+001
  0.18238606034E+008,  0.20044788247E+007,  0.19000000000E+002,  0.00000000000E+000,  0.10000000000E+001
  0.18238756034E+008,  0.20045971886E+007,  0.19000000000E+002,  0.00000000000E+000,  0.10000000000E+001
  0.18238906034E+008,  0.20047168383E+007,  0.19000000000E+002,  0.00000000000E+000,  0.10000000000E+001
  0.18239056034E+008,  0.20048377589E+007,  0.19000000000E+002,  0.00000000000E+000,  0.10000000000E+001
  0.18239206034E+008,  0.20049599348E+007,  0.19000000000E+002,  0.00000000000E+000,  0.10000000000E+001
  0.18239356034E+008,  0.20050833505E+007,  0.19000000000E+002,  0.00000000000E+000,  0.10000000000E+001
  0.18239506034E+008,  0.20052079901E+007,  0.19000000000E+002,  0.00000000000E+000,  0.10000000000E+001
  0.18239656034E+008,  0.20053338377E+007,  0.19000000000E+002,  0.00000000000E+000,  0.10000000000E+001
  0.18239806034E+008,  0.20054608771E+007,  0.19000000000E+002,  0.00000000000E+000,  0.10000000000E+001
  0.18239956034E+008,  0.20055890922E+007,  0.19000000000E+002,  0.00000000000E+000,  0.10000000000E+001
  0.18240106034E+008,  0.20057184668E+007,  0.19000000000E+002,  0.00000000000E+000,  0.10000000000E+001
  0.18240256034E+008,  0.20058489844E+007,  0.19000000000E+002,  0.00000000000E+000,  0.10000000000E+001
  0.18240406034E+008,  0.20059806289E+007,  0.19000000000E+002,  0.00000000000E+000,  0.10000000000E+001
  0.18240556034E+008,  0.20061133840E+007,  0.19000000000E+002,  0.00000000000E+000,  0.10000000000E+001
  0.18240706034E+008,  0.20062472334E+007,  0.19000000000E+002,  0.00000000000E+000,  0.10000000000E+001
  0.18240856034E+008,  0.20063821609E+007,  0.19000000000E+002,  0.00000000000E+000,  0.10000000000E+001
  0.18241006034E+008,  0.20065181503E+007,  0.19000000000E+002,  0.00000000000E+000,  0.10000000000E+001
  0.18241156034E+008,  0.20066551858E+007,  0.19000000000E+002,  0.00000000000E+000,  0.10000000000E+001
  0.18241306034E+008,  0.20067932512E+007,  0.19000000000E+002,  0.00000000000E+000,  0.10000000000E+001
  0.18241456034E+008,  0.20069323309E+007,  0.19000000000E+002,  0.00000000000E+000,  0.10000000000E+001
  0.18241606034E+008,  0.20070724090E+007,  0.19000000000E+002,  0.00000000000E+000,  0.10000000000E+001
  0.18241756034E+008,  0.20072134701E+007,  0.19000000000E+002,  0.00000000000E+000,  0.10000000000E+001
  0.18241906034E+008,  0.20073554988E+007,  0.19000000000E+002,  0.00000000000E+000,  0.10000000000E+001
  0.18242056034E+008,  0.20074984797E+007,  0.19000000000E+002,  0.00000000000E+000,  0.10000000000E+001
  0.18242206034E+008,  0.20076423977E+007,  0.19000000000E+002,  0.00000000000E+000,  0.10000000000E+001
  0.18242356034E+008,  0.20077872379E+007,  0.19000000000E+002,  0.00000000000E+000,  0.10000000000E+001
  0.18242506034E+008,  0.20079329856E+007,  0.19000000000E+002,  0.00000000000E+000,  0.10000000000E+001
  0.18242656034E+008,  0.20080796261E+007,  0.19000000000E+002,  0.00000000000E+000,  0.10000000000E+001
  0.18242806034E+008,  0.20082271450E+007,  0.19000000000E+002,  0.00000000000E+000,  0.10000000000E+001
  0.18242956034E+008,  0.20083755281E+007,  0.19000000000E+002,  0.00000000000E+000,  0.10000000000E+001
  0.18243106034E+008,  0.20085247612E+007,  0.19000000000E+002,  0.00000000000E+000,  0.10000000000E+001
  0.18243256034E+008,  0.20086748306E+007,  0.19000000000E+002,  0.00000000000E+000,  0.10000000000E+001
  0.18243406034E+008,  0.20088257226E+007,  0.19000000000E+002,  0.00000000000E+000,  0.10000000000E+001
  0.18243556034E+008,  0.20089774235E+007,  0.19000000000E+002,  0.00000000000E+000,  0.10000000000E+001
  0.18243706034E+008,  0.20091299202E+007,  0.19000000000E+002,  0.00000000000E+000,  0.10000000000E+001
  0.18243856034E+008,  0.20092831994E+007,  0.19000000000E+002,  0.00000000000E+000,  0.10000000000E+001
  0.18244006034E+008,  0.20094372483E+007,  0.19000000000E+002,  0.00000000000E+000,  0.10000000000E+001
  0.18244156034E+008,  0.20095920541E+007,  0.19000000000E+002,  0.00000000000E+000,  0.10000000000E+001
  0.18244306034E+008,  0.20097476042E+007,  0.19000000000E+002,  0.00000000000E+000,  0.10000000000E+001
  0.18244456034E+008,  0.20099038862E+007,  0.19000000000E+002,  0.00000000000E+000,  0.10000000000E+001
  0.18244606034E+008,  0.20100608880E+007,  0.19000000000E+002,  0.00000000000E+000,  0.10000000000E+001
  0.18244756034E+008,  0.20102185974E+007,  0.19000000000E+002,  0.00000000000E+000,  0.10000000000E+001
  0.18244906034E+008,  0.20103770028E+007,  0.19000000000E+002,  0.00000000000E+000,  0.10000000000E+001
  0.18245056034E+008,  0.20105360925E+007,  0.19000000000E+002,  0.00000000000E+000,  0.10000000000E+001
  0.18245206034E+008,  0.20106958549E+007,  0.19000000000E+002,  0.00000000000E+000,  0.10000000000E+001
  0.18245356034E+008,  0.20108562788E+007,  0.19000000000E+002,  0.00000000000E+000,  0.10000000000E+001
  0.18245506034E+008,  0.20110173531E+007,  0.19000000000E+002,  0.00000000000E+000,  0.10000000000E+001
  0.18245656034E+008,  0.20111790669E+007,  0.19000000000E+002,  0.00000000000E+000,  0.10000000000E+001
  0.18245806034E+008,  0.20113414093E+007,  0.19000000000E+002,  0.00000000000E+000,  0.10000000000E+001
  0.18245956034E+008,  0.20115043698E+007,  0.19000000000E+002,  0.00000000000E+000,  0.10000000000E+001
  0.18246106034E+008,  0.20116679379E+007,  0.19000000000E+002,  0.00000000000E+000,  0.10000000000E+001
  0.18246256034E+008,  0.20118321034E+007,  0.19000000000E+002,  0.00000000000E+000,  0.10000000000E+001
  0.18246406034E+008,  0.20119968562E+007,  0.19000000000E+002,  0.00000000000E+000,  0.10000000000E+001
  0.18246556034E+008,  0.20121621864E+007,  0.19000000000E+002,  0.00000000000E+000,  0.10000000000E+001
  0.18246706034E+008,  0.20123280841E+007,  0.19000000000E+002,  0.00000000000E+000,  0.10000000000E+001
  0.18246856034E+008,  0.20124945399E+007,  0.19000000000E+002,  0.00000000000E+000,  0.10000000000E+001
  0.18247006034E+008,  0.20126615441E+007,  0.19000000000E+002,  0.00000000000E+000,  0.10000000000E+001
  0.18247156034E+008,  0.20128290875E+007,  0.19000000000E+002,  0.00000000000E+000,  0.10000000000E+001
  0.18247306034E+008,  0.20129971610E+007,  0.19000000000E+002,  0.00000000000E+000,  0.10000000000E+001
  0.18247456034E+008,  0.20131657556E+007,  0.19000000000E+002,  0.00000000000E+000,  0.10000000000E+001
  0.18247606034E+008,  0.20133348623E+007,  0.19000000000E+002,  0.00000000000E+000,  0.10000000000E+001
  0.18247756034E+008,  0.20135044725E+007,  0.19000000000E+002,  0.00000000000E+000,  0.10000000000E+001
  0.18247906034E+008,  0.20136745776E+007,  0.19000000000E+002,  0.00000000000E+000,  0.10000000000E+001
  0.18248056034E+008,  0.20138451692E+007,  0.19000000000E+002,  0.00000000000E+000,  0.10000000000E+001
  0.18248206034E+008,  0.20140162390E+007,  0.19000000000E+002,  0.00000000000E+000,  0.10000000000E+001
  0.18248356034E+008,  0.20141877789E+007,  0.19000000000E+002,  0.00000000000E+000,  0.10000000000E+001
  0.18248506034E+008,  0.20143597807E+007,  0.19000000000E+002,  0.00000000000E+000,  0.10000000000E+001
  0.18248656034E+008,  0.20145322368E+007,  0.19000000000E+002,  0.00000000000E+000,  0.10000000000E+001
  0.18248806034E+008,  0.20147051392E+007,  0.19000000000E+002,  0.00000000000E+000,  0.10000000000E+001
  0.18248956034E+008,  0.20148784804E+007,  0.19000000000E+002,  0.00000000000E+000,  0.10000000000E+001
  0.18249106034E+008,  0.20150522529E+007,  0.19000000000E+002,  0.00000000000E+000,  0.10000000000E+001
  0.18249256034E+008,  0.20152264492E+007,  0.19000000000E+002,  0.00000000000E+000,  0.10000000000E+001
  0.18249406034E+008,  0.20154010623E+007,  0.19000000000E+002,  0.00000000000E+000,  0.10000000000E+001
  0.18249556034E+008,  0.20155760848E+007,  0.19000000000E+002,  0.00000000000E+000,  0.10000000000E+001
  0.18249706034E+008,  0.20157515099E+007,  0.19000000000E+002,  0.00000000000E+000,  0.10000000000E+001
  0.18249856034E+008,  0.20159273305E+007,  0.19000000000E+002,  0.00000000000E+000,  0.10000000000E+001
  0.18250006034E+008,  0.20161035401E+007,  0.19000000000E+002,  0.00000000000E+000,  0.10000000000E+001
  0.18250156034E+008,  0.20162801318E+007,  0.19000000000E+002,  0.00000000000E+000,  0.10000000000E+001
  0.18250306034E+008,  0.20164570991E+007,  0.19000000000E+002,  0.00000000000E+000,  0.10000000000E+001
  0.18250456034E+008,  0.20166344356E+007,  0.19000000000E+002,  0.00000000000E+000,  0.10000000000E+001
  0.18250606034E+008,  0.20168121350E+007,  0.19000000000E+002,  0.00000000000E+000,  0.10000000000E+001
  0.18250756034E+008,  0.20169901909E+007,  0.19000000000E+002,  0.00000000000E+000,  0.10000000000E+001
  0.18250906034E+008,  0.20171685974E+007,  0.19000000000E+002,  0.00000000000E+000,  0.10000000000E+001
  0.18251056034E+008,  0.20173473483E+007,  0.19000000000E+002,  0.00000000000E+000,  0.10000000000E+001
  0.18251206034E+008,  0.20175264378E+007,  0.19000000000E+002,  0.00000000000E+000,  0.10000000000E+001
  0.18251356034E+008,  0.20177058600E+007,  0.19000000000E+002,  0.00000000000E+000,  0.10000000000E+001
  0.18251506034E+008,  0.20178856092E+007,  0.19000000000E+002,  0.00000000000E+000,  0.10000000000E+001
  0.18251656034E+008,  0.20180656798E+007,  0.19000000000E+002,  0.00000000000E+000,  0.10000000000E+001
  0.18251806034E+008,  0.20182460663E+007,  0.19000000000E+002,  0.00000000000E+000,  0.10000000000E+001
  0.18251956034E+008,  0.20184267631E+007,  0.19000000000E+002,  0.00000000000E+000,  0.10000000000E+001
  0.18252106034E+008,  0.20186077650E+007,  0.19000000000E+002,  0.00000000000E+000,  0.10000000000E+001
  0.18252256034E+008,  0.20187890667E+007,  0.19000000000E+002,  0.00000000000E+000,  0.10000000000E+001
  0.18252406034E+008,  0.20189706630E+007,  0.19000000000E+002,  0.00000000000E+000,  0.10000000000E+001
  0.18252556034E+008,  0.20191525489E+007,  0.19000000000E+002,  0.00000000000E+000,  0.10000000000E+001
  0.18252706034E+008,  0.20193347193E+007,  0.19000000000E+002,  0.00000000000E+000,  0.10000000000E+001
  0.18252856034E+008,  0.20195171694E+007,  0.19000000000E+002,  0.00000000000E+000,  0.10000000000E+001
  0.18253006034E+008,  0.20196998943E+007,  0.19000000000E+002,  0.00000000000E+000,  0.10000000000E+001
  0.18253156034E+008,  0.20198828892E+007,  0.19000000000E+002,  0.00000000000E+000,  0.10000000000E+001
  0.18253306034E+008,  0.20200661495E+007,  0.19000000000E+002,  0.00000000000E+000,  0.10000000000E+001
  0.18253456034E+008,  0.20202496706E+007,  0.19000000000E+002,  0.00000000000E+000,  0.10000000000E+001
  0.18253606034E+008,  0.20204334481E+007,  0.19000000000E+002,  0.00000000000E+000,  0.10000000000E+001
  0.18253756034E+008,  0.20206174774E+007,  0.19000000000E+002,  0.00000000000E+000,  0.10000000000E+001
