"           TIME(S)","              PRES","              TEMP","             SAT_G","             SAT_L"
  0.17592105000E+008,  0.21000000000E+007,  0.19000000000E+002,  0.00000000000E+000,  0.10000000000E+001
  0.17592130000E+008,  0.20999999734E+007,  0.19000000000E+002,  0.00000000000E+000,  0.10000000000E+001
  0.17592255000E+008,  0.20999456950E+007,  0.19000000000E+002,  0.00000000000E+000,  0.10000000000E+001
  0.17592405000E+008,  0.20997366988E+007,  0.19000000000E+002,  0.00000000000E+000,  0.10000000000E+001
  0.17592555000E+008,  0.20993847628E+007,  0.19000000000E+002,  0.00000000000E+000,  0.10000000000E+001
  0.17592705000E+008,  0.20989277550E+007,  0.19000000000E+002,  0.00000000000E+000,  0.10000000000E+001
  0.17592855000E+008,  0.20984084511E+007,  0.19000000000E+002,  0.00000000000E+000,  0.10000000000E+001
  0.17593005000E+008,  0.20978598626E+007,  0.19000000000E+002,  0.00000000000E+000,  0.10000000000E+001
  0.17593155000E+008,  0.20973030108E+007,  0.19000000000E+002,  0.00000000000E+000,  0.10000000000E+001
  0.17593305000E+008,  0.20967495274E+007,  0.19000000000E+002,  0.00000000000E+000,  0.10000000000E+001
  0.17593455000E+008,  0.20962049585E+007,  0.19000000000E+002,  0.00000000000E+000,  0.10000000000E+001
  0.17593605000E+008,  0.20956713727E+007,  0.19000000000E+002,  0.00000000000E+000,  0.10000000000E+001
  0.17593755000E+008,  0.20951490712E+007,  0.19000000000E+002,  0.00000000000E+000,  0.10000000000E+001
  0.17593905000E+008,  0.20946375867E+007,  0.19000000000E+002,  0.00000000000E+000,  0.10000000000E+001
  0.17594055000E+008,  0.20941362142E+007,  0.19000000000E+002,  0.00000000000E+000,  0.10000000000E+001
  0.17594205000E+008,  0.20936442628E+007,  0.19000000000E+002,  0.00000000000E+000,  0.10000000000E+001
  0.17594355000E+008,  0.20931611549E+007,  0.19000000000E+002,  0.00000000000E+000,  0.10000000000E+001
  0.17594505000E+008,  0.20926864485E+007,  0.19000000000E+002,  0.00000000000E+000,  0.10000000000E+001
  0.17594655000E+008,  0.20922198252E+007,  0.19000000000E+002,  0.00000000000E+000,  0.10000000000E+001
  0.17594805000E+008,  0.20917610655E+007,  0.19000000000E+002,  0.00000000000E+000,  0.10000000000E+001
  0.17594955000E+008,  0.20913100227E+007,  0.19000000000E+002,  0.00000000000E+000,  0.10000000000E+001
  0.17595105000E+008,  0.20908665998E+007,  0.19000000000E+002,  0.00000000000E+000,  0.10000000000E+001
  0.17595255000E+008,  0.20904307308E+007,  0.19000000000E+002,  0.00000000000E+000,  0.10000000000E+001
  0.17595405000E+008,  0.20900023669E+007,  0.19000000000E+002,  0.00000000000E+000,  0.10000000000E+001
  0.17595407344E+008,  0.20899956755E+007,  0.19000000000E+002,  0.00000000000E+000,  0.10000000000E+001
  0.17595408809E+008,  0.20899914941E+007,  0.19000000000E+002,  0.00000000000E+000,  0.10000000000E+001
  0.17595409724E+008,  0.20899888811E+007,  0.19000000000E+002,  0.00000000000E+000,  0.10000000000E+001
  0.17595414302E+008,  0.20899758225E+007,  0.19000000000E+002,  0.00000000000E+000,  0.10000000000E+001
  0.17595414659E+008,  0.20899748023E+007,  0.19000000000E+002,  0.00000000000E+000,  0.10000000000E+001
  0.17595414883E+008,  0.20899741648E+007,  0.19000000000E+002,  0.00000000000E+000,  0.10000000000E+001
  0.17595415023E+008,  0.20899737663E+007,  0.19000000000E+002,  0.00000000000E+000,  0.10000000000E+001
  0.17595415110E+008,  0.20899735172E+007,  0.19000000000E+002,  0.00000000000E+000,  0.10000000000E+001
  0.17595415546E+008,  0.20899722721E+007,  0.19000000000E+002,  0.00000000000E+000,  0.10000000000E+001
  0.17595415547E+008,  0.20899722721E+007,  0.19000000000E+002,  0.00000000000E+000,  0.10000000000E+001
  0.17595415547E+008,  0.20899722721E+007,  0.19000000000E+002,  0.00000000000E+000,  0.10000000000E+001
  0.17595415548E+008,  0.20899722721E+007,  0.19000000000E+002,  0.00000000000E+000,  0.10000000000E+001
