"           TIME(S)","              PRES","              TEMP","             SAT_G","             SAT_L"
  0.18228740000E+008,  0.20000001175E+007,  0.19000000000E+002,  0.00000000000E+000,  0.10000000000E+001
  0.18228890000E+008,  0.20000205755E+007,  0.19000000000E+002,  0.00000000000E+000,  0.10000000000E+001
  0.18229040000E+008,  0.20000717390E+007,  0.19000000000E+002,  0.00000000000E+000,  0.10000000000E+001
  0.18229190000E+008,  0.20001549719E+007,  0.19000000000E+002,  0.00000000000E+000,  0.10000000000E+001
  0.18229340000E+008,  0.20002666831E+007,  0.19000000000E+002,  0.00000000000E+000,  0.10000000000E+001
  0.18229490000E+008,  0.20004023964E+007,  0.19000000000E+002,  0.00000000000E+000,  0.10000000000E+001
  0.18229565000E+008,  0.20004759372E+007,  0.19000000000E+002,  0.00000000000E+000,  0.10000000000E+001
  0.18229715000E+008,  0.20006455773E+007,  0.19000000000E+002,  0.00000000000E+000,  0.10000000000E+001
  0.18229790001E+008,  0.20007360659E+007,  0.19000000000E+002,  0.00000000000E+000,  0.10000000000E+001
  0.18229827501E+008,  0.20007827324E+007,  0.19000000000E+002,  0.00000000000E+000,  0.10000000000E+001
  0.18229846251E+008,  0.20008064220E+007,  0.19000000000E+002,  0.00000000000E+000,  0.10000000000E+001
  0.18229855627E+008,  0.20008183560E+007,  0.19000000000E+002,  0.00000000000E+000,  0.10000000000E+001
  0.18229902503E+008,  0.20008802713E+007,  0.19000000000E+002,  0.00000000000E+000,  0.10000000000E+001
  0.18229925941E+008,  0.20009117928E+007,  0.19000000000E+002,  0.00000000000E+000,  0.10000000000E+001
  0.18230043132E+008,  0.20010831442E+007,  0.19000000000E+002,  0.00000000000E+000,  0.10000000000E+001
  0.18230101728E+008,  0.20011721899E+007,  0.19000000000E+002,  0.00000000000E+000,  0.10000000000E+001
  0.18230131026E+008,  0.20012175474E+007,  0.19000000000E+002,  0.00000000000E+000,  0.10000000000E+001
  0.18230145675E+008,  0.20012404340E+007,  0.19000000000E+002,  0.00000000000E+000,  0.10000000000E+001
  0.18230218920E+008,  0.20013599895E+007,  0.19000000000E+002,  0.00000000000E+000,  0.10000000000E+001
  0.18230255543E+008,  0.20014210430E+007,  0.19000000000E+002,  0.00000000000E+000,  0.10000000000E+001
  0.18230273855E+008,  0.20014518883E+007,  0.19000000000E+002,  0.00000000000E+000,  0.10000000000E+001
  0.18230283011E+008,  0.20014673906E+007,  0.19000000000E+002,  0.00000000000E+000,  0.10000000000E+001
  0.18230328790E+008,  0.20015468839E+007,  0.19000000000E+002,  0.00000000000E+000,  0.10000000000E+001
  0.18230478790E+008,  0.20018269521E+007,  0.19000000000E+002,  0.00000000000E+000,  0.10000000000E+001
  0.18230628790E+008,  0.20021237990E+007,  0.19000000000E+002,  0.00000000000E+000,  0.10000000000E+001
  0.18230778790E+008,  0.20024345078E+007,  0.19000000000E+002,  0.00000000000E+000,  0.10000000000E+001
  0.18230928790E+008,  0.20027568738E+007,  0.19000000000E+002,  0.00000000000E+000,  0.10000000000E+001
  0.18231078790E+008,  0.20030896672E+007,  0.19000000000E+002,  0.00000000000E+000,  0.10000000000E+001
  0.18231228790E+008,  0.20034325451E+007,  0.19000000000E+002,  0.00000000000E+000,  0.10000000000E+001
  0.18231378790E+008,  0.20037858591E+007,  0.19000000000E+002,  0.00000000000E+000,  0.10000000000E+001
  0.18231528790E+008,  0.20041504426E+007,  0.19000000000E+002,  0.00000000000E+000,  0.10000000000E+001
  0.18231678790E+008,  0.20045273315E+007,  0.19000000000E+002,  0.00000000000E+000,  0.10000000000E+001
  0.18231828790E+008,  0.20049175459E+007,  0.19000000000E+002,  0.00000000000E+000,  0.10000000000E+001
  0.18231978790E+008,  0.20053219747E+007,  0.19000000000E+002,  0.00000000000E+000,  0.10000000000E+001
  0.18232128790E+008,  0.20057413362E+007,  0.19000000000E+002,  0.00000000000E+000,  0.10000000000E+001
  0.18232278790E+008,  0.20061761750E+007,  0.19000000000E+002,  0.00000000000E+000,  0.10000000000E+001
  0.18232428790E+008,  0.20066268762E+007,  0.19000000000E+002,  0.00000000000E+000,  0.10000000000E+001
  0.18232578790E+008,  0.20070936850E+007,  0.19000000000E+002,  0.00000000000E+000,  0.10000000000E+001
  0.18232728790E+008,  0.20075767277E+007,  0.19000000000E+002,  0.00000000000E+000,  0.10000000000E+001
  0.18232878790E+008,  0.20080760330E+007,  0.19000000000E+002,  0.00000000000E+000,  0.10000000000E+001
  0.18233028790E+008,  0.20085915504E+007,  0.19000000000E+002,  0.00000000000E+000,  0.10000000000E+001
  0.18233178790E+008,  0.20091231676E+007,  0.19000000000E+002,  0.00000000000E+000,  0.10000000000E+001
  0.18233328790E+008,  0.20096707244E+007,  0.19000000000E+002,  0.00000000000E+000,  0.10000000000E+001
  0.18233478790E+008,  0.20102340252E+007,  0.19000000000E+002,  0.00000000000E+000,  0.10000000000E+001
  0.18233628790E+008,  0.20108128487E+007,  0.19000000000E+002,  0.00000000000E+000,  0.10000000000E+001
  0.18233778790E+008,  0.20114069560E+007,  0.19000000000E+002,  0.00000000000E+000,  0.10000000000E+001
  0.18233928790E+008,  0.20120160966E+007,  0.19000000000E+002,  0.00000000000E+000,  0.10000000000E+001
  0.18234078790E+008,  0.20126400132E+007,  0.19000000000E+002,  0.00000000000E+000,  0.10000000000E+001
  0.18234228790E+008,  0.20132784457E+007,  0.19000000000E+002,  0.00000000000E+000,  0.10000000000E+001
  0.18234378790E+008,  0.20139311335E+007,  0.19000000000E+002,  0.00000000000E+000,  0.10000000000E+001
  0.18234528790E+008,  0.20145978175E+007,  0.19000000000E+002,  0.00000000000E+000,  0.10000000000E+001
  0.18234678790E+008,  0.20152782416E+007,  0.19000000000E+002,  0.00000000000E+000,  0.10000000000E+001
  0.18234828790E+008,  0.20159721538E+007,  0.19000000000E+002,  0.00000000000E+000,  0.10000000000E+001
  0.18234978790E+008,  0.20166793061E+007,  0.19000000000E+002,  0.00000000000E+000,  0.10000000000E+001
  0.18235128790E+008,  0.20173994558E+007,  0.19000000000E+002,  0.00000000000E+000,  0.10000000000E+001
  0.18235278790E+008,  0.20181323649E+007,  0.19000000000E+002,  0.00000000000E+000,  0.10000000000E+001
  0.18235428790E+008,  0.20188778005E+007,  0.19000000000E+002,  0.00000000000E+000,  0.10000000000E+001
  0.18235578790E+008,  0.20196355348E+007,  0.19000000000E+002,  0.00000000000E+000,  0.10000000000E+001
  0.18235728790E+008,  0.20204053447E+007,  0.19000000000E+002,  0.00000000000E+000,  0.10000000000E+001
  0.18235878790E+008,  0.20211870120E+007,  0.19000000000E+002,  0.00000000000E+000,  0.10000000000E+001
  0.18236028790E+008,  0.20219803232E+007,  0.19000000000E+002,  0.00000000000E+000,  0.10000000000E+001
  0.18236178790E+008,  0.20227850691E+007,  0.19000000000E+002,  0.00000000000E+000,  0.10000000000E+001
  0.18236328790E+008,  0.20236010449E+007,  0.19000000000E+002,  0.00000000000E+000,  0.10000000000E+001
  0.18236478790E+008,  0.20244280499E+007,  0.19000000000E+002,  0.00000000000E+000,  0.10000000000E+001
  0.18236628790E+008,  0.20252658874E+007,  0.19000000000E+002,  0.00000000000E+000,  0.10000000000E+001
  0.18236778790E+008,  0.20261143646E+007,  0.19000000000E+002,  0.00000000000E+000,  0.10000000000E+001
  0.18236928790E+008,  0.20269732922E+007,  0.19000000000E+002,  0.00000000000E+000,  0.10000000000E+001
  0.18237078790E+008,  0.20278424848E+007,  0.19000000000E+002,  0.00000000000E+000,  0.10000000000E+001
  0.18237228790E+008,  0.20287217602E+007,  0.19000000000E+002,  0.00000000000E+000,  0.10000000000E+001
  0.18237378790E+008,  0.20296109398E+007,  0.19000000000E+002,  0.00000000000E+000,  0.10000000000E+001
  0.18237528790E+008,  0.20305098480E+007,  0.19000000000E+002,  0.00000000000E+000,  0.10000000000E+001
  0.18237678790E+008,  0.20314183126E+007,  0.19000000000E+002,  0.00000000000E+000,  0.10000000000E+001
  0.18237828790E+008,  0.20323361645E+007,  0.19000000000E+002,  0.00000000000E+000,  0.10000000000E+001
  0.18237978790E+008,  0.20332632373E+007,  0.19000000000E+002,  0.00000000000E+000,  0.10000000000E+001
  0.18238128790E+008,  0.20341993679E+007,  0.19000000000E+002,  0.00000000000E+000,  0.10000000000E+001
  0.18238278790E+008,  0.20351443959E+007,  0.19000000000E+002,  0.00000000000E+000,  0.10000000000E+001
  0.18238428790E+008,  0.20360981637E+007,  0.19000000000E+002,  0.00000000000E+000,  0.10000000000E+001
  0.18238578790E+008,  0.20370605165E+007,  0.19000000000E+002,  0.00000000000E+000,  0.10000000000E+001
  0.18238728790E+008,  0.20380313022E+007,  0.19000000000E+002,  0.00000000000E+000,  0.10000000000E+001
  0.18238878790E+008,  0.20390103713E+007,  0.19000000000E+002,  0.00000000000E+000,  0.10000000000E+001
  0.18239028790E+008,  0.20399975768E+007,  0.19000000000E+002,  0.00000000000E+000,  0.10000000000E+001
  0.18239178790E+008,  0.20409927743E+007,  0.19000000000E+002,  0.00000000000E+000,  0.10000000000E+001
  0.18239328790E+008,  0.20419958219E+007,  0.19000000000E+002,  0.00000000000E+000,  0.10000000000E+001
  0.18239478790E+008,  0.20430065801E+007,  0.19000000000E+002,  0.00000000000E+000,  0.10000000000E+001
  0.18239628790E+008,  0.20440249118E+007,  0.19000000000E+002,  0.00000000000E+000,  0.10000000000E+001
  0.18239778790E+008,  0.20450506822E+007,  0.19000000000E+002,  0.00000000000E+000,  0.10000000000E+001
  0.18239928790E+008,  0.20460837590E+007,  0.19000000000E+002,  0.00000000000E+000,  0.10000000000E+001
  0.18240078790E+008,  0.20471240118E+007,  0.19000000000E+002,  0.00000000000E+000,  0.10000000000E+001
  0.18240228790E+008,  0.20481713128E+007,  0.19000000000E+002,  0.00000000000E+000,  0.10000000000E+001
  0.18240378790E+008,  0.20492255362E+007,  0.19000000000E+002,  0.00000000000E+000,  0.10000000000E+001
  0.18240528790E+008,  0.20502865582E+007,  0.19000000000E+002,  0.00000000000E+000,  0.10000000000E+001
  0.18240678790E+008,  0.20513542575E+007,  0.19000000000E+002,  0.00000000000E+000,  0.10000000000E+001
  0.18240828790E+008,  0.20524285145E+007,  0.19000000000E+002,  0.00000000000E+000,  0.10000000000E+001
  0.18240978790E+008,  0.20535092117E+007,  0.19000000000E+002,  0.00000000000E+000,  0.10000000000E+001
  0.18241128790E+008,  0.20545962339E+007,  0.19000000000E+002,  0.00000000000E+000,  0.10000000000E+001
  0.18241278790E+008,  0.20556894675E+007,  0.19000000000E+002,  0.00000000000E+000,  0.10000000000E+001
  0.18241428790E+008,  0.20567888010E+007,  0.19000000000E+002,  0.00000000000E+000,  0.10000000000E+001
  0.18241578790E+008,  0.20578941247E+007,  0.19000000000E+002,  0.00000000000E+000,  0.10000000000E+001
  0.18241728790E+008,  0.20590053311E+007,  0.19000000000E+002,  0.00000000000E+000,  0.10000000000E+001
  0.18241878790E+008,  0.20601223140E+007,  0.19000000000E+002,  0.00000000000E+000,  0.10000000000E+001
  0.18242028790E+008,  0.20612449695E+007,  0.19000000000E+002,  0.00000000000E+000,  0.10000000000E+001
  0.18242178790E+008,  0.20623731952E+007,  0.19000000000E+002,  0.00000000000E+000,  0.10000000000E+001
  0.18242328790E+008,  0.20635068905E+007,  0.19000000000E+002,  0.00000000000E+000,  0.10000000000E+001
  0.18242478790E+008,  0.20646459566E+007,  0.19000000000E+002,  0.00000000000E+000,  0.10000000000E+001
  0.18242628790E+008,  0.20657902963E+007,  0.19000000000E+002,  0.00000000000E+000,  0.10000000000E+001
  0.18242778790E+008,  0.20669398140E+007,  0.19000000000E+002,  0.00000000000E+000,  0.10000000000E+001
  0.18242928790E+008,  0.20680944158E+007,  0.19000000000E+002,  0.00000000000E+000,  0.10000000000E+001
  0.18243078790E+008,  0.20692540096E+007,  0.19000000000E+002,  0.00000000000E+000,  0.10000000000E+001
  0.18243228790E+008,  0.20704185045E+007,  0.19000000000E+002,  0.00000000000E+000,  0.10000000000E+001
  0.18243378790E+008,  0.20715878114E+007,  0.19000000000E+002,  0.00000000000E+000,  0.10000000000E+001
  0.18243528790E+008,  0.20727618428E+007,  0.19000000000E+002,  0.00000000000E+000,  0.10000000000E+001
  0.18243678790E+008,  0.20739405123E+007,  0.19000000000E+002,  0.00000000000E+000,  0.10000000000E+001
  0.18243828790E+008,  0.20751237355E+007,  0.19000000000E+002,  0.00000000000E+000,  0.10000000000E+001
  0.18243978790E+008,  0.20763114290E+007,  0.19000000000E+002,  0.00000000000E+000,  0.10000000000E+001
  0.18244128790E+008,  0.20775035111E+007,  0.19000000000E+002,  0.00000000000E+000,  0.10000000000E+001
  0.18244278790E+008,  0.20786999013E+007,  0.19000000000E+002,  0.00000000000E+000,  0.10000000000E+001
  0.18244428790E+008,  0.20799005207E+007,  0.19000000000E+002,  0.00000000000E+000,  0.10000000000E+001
  0.18244578790E+008,  0.20811052916E+007,  0.19000000000E+002,  0.00000000000E+000,  0.10000000000E+001
  0.18244728790E+008,  0.20823141376E+007,  0.19000000000E+002,  0.00000000000E+000,  0.10000000000E+001
  0.18244878790E+008,  0.20835269838E+007,  0.19000000000E+002,  0.00000000000E+000,  0.10000000000E+001
  0.18245028790E+008,  0.20847437563E+007,  0.19000000000E+002,  0.00000000000E+000,  0.10000000000E+001
  0.18245178790E+008,  0.20859643827E+007,  0.19000000000E+002,  0.00000000000E+000,  0.10000000000E+001
  0.18245328790E+008,  0.20871887917E+007,  0.19000000000E+002,  0.00000000000E+000,  0.10000000000E+001
  0.18245478790E+008,  0.20884169133E+007,  0.19000000000E+002,  0.00000000000E+000,  0.10000000000E+001
  0.18245628790E+008,  0.20896486787E+007,  0.19000000000E+002,  0.00000000000E+000,  0.10000000000E+001
  0.18245778790E+008,  0.20908840202E+007,  0.19000000000E+002,  0.00000000000E+000,  0.10000000000E+001
  0.18245928790E+008,  0.20921228714E+007,  0.19000000000E+002,  0.00000000000E+000,  0.10000000000E+001
  0.18246078790E+008,  0.20933651669E+007,  0.19000000000E+002,  0.00000000000E+000,  0.10000000000E+001
  0.18246228790E+008,  0.20946108425E+007,  0.19000000000E+002,  0.00000000000E+000,  0.10000000000E+001
  0.18246378790E+008,  0.20958598350E+007,  0.19000000000E+002,  0.00000000000E+000,  0.10000000000E+001
  0.18246528790E+008,  0.20971120823E+007,  0.19000000000E+002,  0.00000000000E+000,  0.10000000000E+001
  0.18246678790E+008,  0.20983675236E+007,  0.19000000000E+002,  0.00000000000E+000,  0.10000000000E+001
  0.18246828790E+008,  0.20996260989E+007,  0.19000000000E+002,  0.00000000000E+000,  0.10000000000E+001
  0.18246978790E+008,  0.21008877492E+007,  0.19000000000E+002,  0.00000000000E+000,  0.10000000000E+001
  0.18247128790E+008,  0.21021524167E+007,  0.19000000000E+002,  0.00000000000E+000,  0.10000000000E+001
  0.18247278790E+008,  0.21034200444E+007,  0.19000000000E+002,  0.00000000000E+000,  0.10000000000E+001
  0.18247428790E+008,  0.21046905765E+007,  0.19000000000E+002,  0.00000000000E+000,  0.10000000000E+001
  0.18247578790E+008,  0.21059639578E+007,  0.19000000000E+002,  0.00000000000E+000,  0.10000000000E+001
  0.18247728790E+008,  0.21072401345E+007,  0.19000000000E+002,  0.00000000000E+000,  0.10000000000E+001
  0.18247878790E+008,  0.21085190534E+007,  0.19000000000E+002,  0.00000000000E+000,  0.10000000000E+001
  0.18248028790E+008,  0.21098006623E+007,  0.19000000000E+002,  0.00000000000E+000,  0.10000000000E+001
  0.18248178790E+008,  0.21110849098E+007,  0.19000000000E+002,  0.00000000000E+000,  0.10000000000E+001
  0.18248328790E+008,  0.21123717457E+007,  0.19000000000E+002,  0.00000000000E+000,  0.10000000000E+001
  0.18248478790E+008,  0.21136611202E+007,  0.19000000000E+002,  0.00000000000E+000,  0.10000000000E+001
  0.18248628790E+008,  0.21149529848E+007,  0.19000000000E+002,  0.00000000000E+000,  0.10000000000E+001
  0.18248778790E+008,  0.21162472915E+007,  0.19000000000E+002,  0.00000000000E+000,  0.10000000000E+001
  0.18248928790E+008,  0.21175439933E+007,  0.19000000000E+002,  0.00000000000E+000,  0.10000000000E+001
  0.18249078790E+008,  0.21188430440E+007,  0.19000000000E+002,  0.00000000000E+000,  0.10000000000E+001
  0.18249228790E+008,  0.21201443980E+007,  0.19000000000E+002,  0.00000000000E+000,  0.10000000000E+001
  0.18249378790E+008,  0.21214480107E+007,  0.19000000000E+002,  0.00000000000E+000,  0.10000000000E+001
  0.18249528790E+008,  0.21227538383E+007,  0.19000000000E+002,  0.00000000000E+000,  0.10000000000E+001
  0.18249678790E+008,  0.21240618375E+007,  0.19000000000E+002,  0.00000000000E+000,  0.10000000000E+001
  0.18249828790E+008,  0.21253719659E+007,  0.19000000000E+002,  0.00000000000E+000,  0.10000000000E+001
  0.18249978790E+008,  0.21266841818E+007,  0.19000000000E+002,  0.00000000000E+000,  0.10000000000E+001
  0.18250128790E+008,  0.21279984443E+007,  0.19000000000E+002,  0.00000000000E+000,  0.10000000000E+001
  0.18250278790E+008,  0.21293147131E+007,  0.19000000000E+002,  0.00000000000E+000,  0.10000000000E+001
  0.18250428790E+008,  0.21306329487E+007,  0.19000000000E+002,  0.00000000000E+000,  0.10000000000E+001
  0.18250578790E+008,  0.21319531120E+007,  0.19000000000E+002,  0.00000000000E+000,  0.10000000000E+001
  0.18250728790E+008,  0.21332751649E+007,  0.19000000000E+002,  0.00000000000E+000,  0.10000000000E+001
  0.18250878790E+008,  0.21345990697E+007,  0.19000000000E+002,  0.00000000000E+000,  0.10000000000E+001
  0.18251028790E+008,  0.21359247896E+007,  0.19000000000E+002,  0.00000000000E+000,  0.10000000000E+001
  0.18251178790E+008,  0.21372522883E+007,  0.19000000000E+002,  0.00000000000E+000,  0.10000000000E+001
  0.18251328790E+008,  0.21385815299E+007,  0.19000000000E+002,  0.00000000000E+000,  0.10000000000E+001
  0.18251478790E+008,  0.21399124796E+007,  0.19000000000E+002,  0.00000000000E+000,  0.10000000000E+001
  0.18251628790E+008,  0.21412451027E+007,  0.19000000000E+002,  0.00000000000E+000,  0.10000000000E+001
  0.18251778790E+008,  0.21425793655E+007,  0.19000000000E+002,  0.00000000000E+000,  0.10000000000E+001
  0.18251928790E+008,  0.21439152346E+007,  0.19000000000E+002,  0.00000000000E+000,  0.10000000000E+001
  0.18252078790E+008,  0.21452526772E+007,  0.19000000000E+002,  0.00000000000E+000,  0.10000000000E+001
  0.18252228790E+008,  0.21465916613E+007,  0.19000000000E+002,  0.00000000000E+000,  0.10000000000E+001
  0.18252378790E+008,  0.21479321551E+007,  0.19000000000E+002,  0.00000000000E+000,  0.10000000000E+001
  0.18252528790E+008,  0.21492741276E+007,  0.19000000000E+002,  0.00000000000E+000,  0.10000000000E+001
  0.18252678790E+008,  0.21506175483E+007,  0.19000000000E+002,  0.00000000000E+000,  0.10000000000E+001
  0.18252828790E+008,  0.21519623870E+007,  0.19000000000E+002,  0.00000000000E+000,  0.10000000000E+001
  0.18252978790E+008,  0.21533086144E+007,  0.19000000000E+002,  0.00000000000E+000,  0.10000000000E+001
  0.18253128790E+008,  0.21546562013E+007,  0.19000000000E+002,  0.00000000000E+000,  0.10000000000E+001
  0.18253278790E+008,  0.21560051193E+007,  0.19000000000E+002,  0.00000000000E+000,  0.10000000000E+001
  0.18253428790E+008,  0.21573553404E+007,  0.19000000000E+002,  0.00000000000E+000,  0.10000000000E+001
  0.18253578790E+008,  0.21587068369E+007,  0.19000000000E+002,  0.00000000000E+000,  0.10000000000E+001
  0.18253728790E+008,  0.21600595819E+007,  0.19000000000E+002,  0.00000000000E+000,  0.10000000000E+001
  0.18253878790E+008,  0.21614135486E+007,  0.19000000000E+002,  0.00000000000E+000,  0.10000000000E+001
  0.18254028790E+008,  0.21627687110E+007,  0.19000000000E+002,  0.00000000000E+000,  0.10000000000E+001
  0.18254178790E+008,  0.21641250433E+007,  0.19000000000E+002,  0.00000000000E+000,  0.10000000000E+001
  0.18254328790E+008,  0.21654825202E+007,  0.19000000000E+002,  0.00000000000E+000,  0.10000000000E+001
  0.18254478790E+008,  0.21668411169E+007,  0.19000000000E+002,  0.00000000000E+000,  0.10000000000E+001
  0.18254628790E+008,  0.21682008090E+007,  0.19000000000E+002,  0.00000000000E+000,  0.10000000000E+001
  0.18254778790E+008,  0.21695615724E+007,  0.19000000000E+002,  0.00000000000E+000,  0.10000000000E+001
  0.18254928790E+008,  0.21709233836E+007,  0.19000000000E+002,  0.00000000000E+000,  0.10000000000E+001
  0.18255078790E+008,  0.21722862194E+007,  0.19000000000E+002,  0.00000000000E+000,  0.10000000000E+001
  0.18255228790E+008,  0.21736500569E+007,  0.19000000000E+002,  0.00000000000E+000,  0.10000000000E+001
