"           TIME(S)","              PRES","              TEMP","             SAT_G","             SAT_L"
  0.17592105000E+008,  0.21000000000E+007,  0.19000000000E+002,  0.00000000000E+000,  0.10000000000E+001
  0.17592130000E+008,  0.20999998234E+007,  0.19000000000E+002,  0.00000000000E+000,  0.10000000000E+001
  0.17592255000E+008,  0.20998617031E+007,  0.19000000000E+002,  0.00000000000E+000,  0.10000000000E+001
  0.17592405000E+008,  0.20994218462E+007,  0.19000000000E+002,  0.00000000000E+000,  0.10000000000E+001
  0.17592555000E+008,  0.20987737879E+007,  0.19000000000E+002,  0.00000000000E+000,  0.10000000000E+001
  0.17592705000E+008,  0.20980162015E+007,  0.19000000000E+002,  0.00000000000E+000,  0.10000000000E+001
  0.17592855000E+008,  0.20972244981E+007,  0.19000000000E+002,  0.00000000000E+000,  0.10000000000E+001
  0.17593005000E+008,  0.20964420454E+007,  0.19000000000E+002,  0.00000000000E+000,  0.10000000000E+001
  0.17593155000E+008,  0.20956885957E+007,  0.19000000000E+002,  0.00000000000E+000,  0.10000000000E+001
  0.17593305000E+008,  0.20949701994E+007,  0.19000000000E+002,  0.00000000000E+000,  0.10000000000E+001
  0.17593455000E+008,  0.20942861775E+007,  0.19000000000E+002,  0.00000000000E+000,  0.10000000000E+001
  0.17593605000E+008,  0.20936331509E+007,  0.19000000000E+002,  0.00000000000E+000,  0.10000000000E+001
  0.17593755000E+008,  0.20930070913E+007,  0.19000000000E+002,  0.00000000000E+000,  0.10000000000E+001
  0.17593905000E+008,  0.20924042370E+007,  0.19000000000E+002,  0.00000000000E+000,  0.10000000000E+001
  0.17594055000E+008,  0.20918214180E+007,  0.19000000000E+002,  0.00000000000E+000,  0.10000000000E+001
  0.17594205000E+008,  0.20912561021E+007,  0.19000000000E+002,  0.00000000000E+000,  0.10000000000E+001
  0.17594355000E+008,  0.20907063259E+007,  0.19000000000E+002,  0.00000000000E+000,  0.10000000000E+001
  0.17594505000E+008,  0.20901705895E+007,  0.19000000000E+002,  0.00000000000E+000,  0.10000000000E+001
  0.17594655000E+008,  0.20896477528E+007,  0.19000000000E+002,  0.00000000000E+000,  0.10000000000E+001
  0.17594805000E+008,  0.20891369460E+007,  0.19000000000E+002,  0.00000000000E+000,  0.10000000000E+001
  0.17594955000E+008,  0.20886374982E+007,  0.19000000000E+002,  0.00000000000E+000,  0.10000000000E+001
  0.17595105000E+008,  0.20881488821E+007,  0.19000000000E+002,  0.00000000000E+000,  0.10000000000E+001
  0.17595255000E+008,  0.20876706737E+007,  0.19000000000E+002,  0.00000000000E+000,  0.10000000000E+001
  0.17595405000E+008,  0.20872025220E+007,  0.19000000000E+002,  0.00000000000E+000,  0.10000000000E+001
  0.17595407344E+008,  0.20871952095E+007,  0.19000000000E+002,  0.00000000000E+000,  0.10000000000E+001
  0.17595408809E+008,  0.20871906402E+007,  0.19000000000E+002,  0.00000000000E+000,  0.10000000000E+001
  0.17595409724E+008,  0.20871877848E+007,  0.19000000000E+002,  0.00000000000E+000,  0.10000000000E+001
  0.17595414302E+008,  0.20871735170E+007,  0.19000000000E+002,  0.00000000000E+000,  0.10000000000E+001
  0.17595414659E+008,  0.20871724024E+007,  0.19000000000E+002,  0.00000000000E+000,  0.10000000000E+001
  0.17595414883E+008,  0.20871717057E+007,  0.19000000000E+002,  0.00000000000E+000,  0.10000000000E+001
  0.17595415023E+008,  0.20871712704E+007,  0.19000000000E+002,  0.00000000000E+000,  0.10000000000E+001
  0.17595415110E+008,  0.20871709983E+007,  0.19000000000E+002,  0.00000000000E+000,  0.10000000000E+001
  0.17595415546E+008,  0.20871696378E+007,  0.19000000000E+002,  0.00000000000E+000,  0.10000000000E+001
  0.17595415547E+008,  0.20871696378E+007,  0.19000000000E+002,  0.00000000000E+000,  0.10000000000E+001
  0.17595415547E+008,  0.20871696378E+007,  0.19000000000E+002,  0.00000000000E+000,  0.10000000000E+001
  0.17595415548E+008,  0.20871696378E+007,  0.19000000000E+002,  0.00000000000E+000,  0.10000000000E+001
