"           TIME(S)","              PRES","              TEMP","             SAT_G","             SAT_L"
  0.18228740000E+008,  0.20000079930E+007,  0.19000000000E+002,  0.00000000000E+000,  0.10000000000E+001
  0.18228890000E+008,  0.20000528943E+007,  0.19000000000E+002,  0.00000000000E+000,  0.10000000000E+001
  0.18229040000E+008,  0.20000847841E+007,  0.19000000000E+002,  0.00000000000E+000,  0.10000000000E+001
  0.18229190000E+008,  0.20001081950E+007,  0.19000000000E+002,  0.00000000000E+000,  0.10000000000E+001
  0.18229340000E+008,  0.20001267598E+007,  0.19000000000E+002,  0.00000000000E+000,  0.10000000000E+001
  0.18229490000E+008,  0.20001422532E+007,  0.19000000000E+002,  0.00000000000E+000,  0.10000000000E+001
  0.18229640000E+008,  0.20001556112E+007,  0.19000000000E+002,  0.00000000000E+000,  0.10000000000E+001
  0.18229790000E+008,  0.20001674066E+007,  0.19000000000E+002,  0.00000000000E+000,  0.10000000000E+001
  0.18229940000E+008,  0.20001780283E+007,  0.19000000000E+002,  0.00000000000E+000,  0.10000000000E+001
  0.18230090000E+008,  0.20001877566E+007,  0.19000000000E+002,  0.00000000000E+000,  0.10000000000E+001
  0.18230240000E+008,  0.20001968001E+007,  0.19000000000E+002,  0.00000000000E+000,  0.10000000000E+001
  0.18230390000E+008,  0.20002053163E+007,  0.19000000000E+002,  0.00000000000E+000,  0.10000000000E+001
  0.18230540000E+008,  0.20002134255E+007,  0.19000000000E+002,  0.00000000000E+000,  0.10000000000E+001
  0.18230690000E+008,  0.20002212200E+007,  0.19000000000E+002,  0.00000000000E+000,  0.10000000000E+001
  0.18230840000E+008,  0.20002287706E+007,  0.19000000000E+002,  0.00000000000E+000,  0.10000000000E+001
  0.18230990000E+008,  0.20002361325E+007,  0.19000000000E+002,  0.00000000000E+000,  0.10000000000E+001
  0.18231140000E+008,  0.20002433476E+007,  0.19000000000E+002,  0.00000000000E+000,  0.10000000000E+001
  0.18231290000E+008,  0.20002504492E+007,  0.19000000000E+002,  0.00000000000E+000,  0.10000000000E+001
  0.18231440000E+008,  0.20002574621E+007,  0.19000000000E+002,  0.00000000000E+000,  0.10000000000E+001
  0.18231590000E+008,  0.20002644065E+007,  0.19000000000E+002,  0.00000000000E+000,  0.10000000000E+001
  0.18231740000E+008,  0.20002712972E+007,  0.19000000000E+002,  0.00000000000E+000,  0.10000000000E+001
  0.18231890000E+008,  0.20002781464E+007,  0.19000000000E+002,  0.00000000000E+000,  0.10000000000E+001
  0.18232040000E+008,  0.20002849635E+007,  0.19000000000E+002,  0.00000000000E+000,  0.10000000000E+001
  0.18232190000E+008,  0.20002917550E+007,  0.19000000000E+002,  0.00000000000E+000,  0.10000000000E+001
  0.18232340000E+008,  0.20002985270E+007,  0.19000000000E+002,  0.00000000000E+000,  0.10000000000E+001
  0.18232490000E+008,  0.20003052838E+007,  0.19000000000E+002,  0.00000000000E+000,  0.10000000000E+001
  0.18232640000E+008,  0.20003120285E+007,  0.19000000000E+002,  0.00000000000E+000,  0.10000000000E+001
  0.18232790000E+008,  0.20003187638E+007,  0.19000000000E+002,  0.00000000000E+000,  0.10000000000E+001
  0.18232940000E+008,  0.20003254919E+007,  0.19000000000E+002,  0.00000000000E+000,  0.10000000000E+001
  0.18233090000E+008,  0.20003322141E+007,  0.19000000000E+002,  0.00000000000E+000,  0.10000000000E+001
  0.18233240000E+008,  0.20003389319E+007,  0.19000000000E+002,  0.00000000000E+000,  0.10000000000E+001
  0.18233390000E+008,  0.20003456461E+007,  0.19000000000E+002,  0.00000000000E+000,  0.10000000000E+001
  0.18233540000E+008,  0.20003523584E+007,  0.19000000000E+002,  0.00000000000E+000,  0.10000000000E+001
  0.18233690000E+008,  0.20003590691E+007,  0.19000000000E+002,  0.00000000000E+000,  0.10000000000E+001
  0.18233840000E+008,  0.20003657780E+007,  0.19000000000E+002,  0.00000000000E+000,  0.10000000000E+001
  0.18233990000E+008,  0.20003724869E+007,  0.19000000000E+002,  0.00000000000E+000,  0.10000000000E+001
  0.18234140000E+008,  0.20003791966E+007,  0.19000000000E+002,  0.00000000000E+000,  0.10000000000E+001
  0.18234290000E+008,  0.20003859054E+007,  0.19000000000E+002,  0.00000000000E+000,  0.10000000000E+001
  0.18234440000E+008,  0.20003926134E+007,  0.19000000000E+002,  0.00000000000E+000,  0.10000000000E+001
  0.18234590000E+008,  0.20003993208E+007,  0.19000000000E+002,  0.00000000000E+000,  0.10000000000E+001
  0.18234740000E+008,  0.20004060277E+007,  0.19000000000E+002,  0.00000000000E+000,  0.10000000000E+001
  0.18234890000E+008,  0.20004127339E+007,  0.19000000000E+002,  0.00000000000E+000,  0.10000000000E+001
  0.18235040000E+008,  0.20004194397E+007,  0.19000000000E+002,  0.00000000000E+000,  0.10000000000E+001
  0.18235190000E+008,  0.20004261451E+007,  0.19000000000E+002,  0.00000000000E+000,  0.10000000000E+001
  0.18235340000E+008,  0.20004328502E+007,  0.19000000000E+002,  0.00000000000E+000,  0.10000000000E+001
  0.18235490000E+008,  0.20004395547E+007,  0.19000000000E+002,  0.00000000000E+000,  0.10000000000E+001
  0.18235640000E+008,  0.20004478691E+007,  0.19000000000E+002,  0.00000000000E+000,  0.10000000000E+001
  0.18235715000E+008,  0.20004503255E+007,  0.19000000000E+002,  0.00000000000E+000,  0.10000000000E+001
  0.18235865000E+008,  0.20004555561E+007,  0.19000000000E+002,  0.00000000000E+000,  0.10000000000E+001
  0.18236015000E+008,  0.20004618450E+007,  0.19000000000E+002,  0.00000000000E+000,  0.10000000000E+001
  0.18236165000E+008,  0.20004684376E+007,  0.19000000000E+002,  0.00000000000E+000,  0.10000000000E+001
  0.18236315000E+008,  0.20004751103E+007,  0.19000000000E+002,  0.00000000000E+000,  0.10000000000E+001
  0.18236465000E+008,  0.20004818030E+007,  0.19000000000E+002,  0.00000000000E+000,  0.10000000000E+001
  0.18236615000E+008,  0.20004885014E+007,  0.19000000000E+002,  0.00000000000E+000,  0.10000000000E+001
  0.18236765000E+008,  0.20004952017E+007,  0.19000000000E+002,  0.00000000000E+000,  0.10000000000E+001
  0.18236915000E+008,  0.20005019031E+007,  0.19000000000E+002,  0.00000000000E+000,  0.10000000000E+001
  0.18237065000E+008,  0.20005086047E+007,  0.19000000000E+002,  0.00000000000E+000,  0.10000000000E+001
  0.18237215000E+008,  0.20005153066E+007,  0.19000000000E+002,  0.00000000000E+000,  0.10000000000E+001
  0.18237365000E+008,  0.20005220086E+007,  0.19000000000E+002,  0.00000000000E+000,  0.10000000000E+001
  0.18237515000E+008,  0.20005287109E+007,  0.19000000000E+002,  0.00000000000E+000,  0.10000000000E+001
  0.18237665000E+008,  0.20005354129E+007,  0.19000000000E+002,  0.00000000000E+000,  0.10000000000E+001
  0.18237815000E+008,  0.20005421149E+007,  0.19000000000E+002,  0.00000000000E+000,  0.10000000000E+001
  0.18237965000E+008,  0.20005488168E+007,  0.19000000000E+002,  0.00000000000E+000,  0.10000000000E+001
  0.18238115000E+008,  0.20005555186E+007,  0.19000000000E+002,  0.00000000000E+000,  0.10000000000E+001
  0.18238265000E+008,  0.20005622200E+007,  0.19000000000E+002,  0.00000000000E+000,  0.10000000000E+001
  0.18238415000E+008,  0.20005689213E+007,  0.19000000000E+002,  0.00000000000E+000,  0.10000000000E+001
  0.18238565000E+008,  0.20005756226E+007,  0.19000000000E+002,  0.00000000000E+000,  0.10000000000E+001
  0.18238715000E+008,  0.20005823237E+007,  0.19000000000E+002,  0.00000000000E+000,  0.10000000000E+001
  0.18238865000E+008,  0.20005890253E+007,  0.19000000000E+002,  0.00000000000E+000,  0.10000000000E+001
  0.18239015000E+008,  0.20005957266E+007,  0.19000000000E+002,  0.00000000000E+000,  0.10000000000E+001
  0.18239165000E+008,  0.20006024277E+007,  0.19000000000E+002,  0.00000000000E+000,  0.10000000000E+001
  0.18239315000E+008,  0.20006091286E+007,  0.19000000000E+002,  0.00000000000E+000,  0.10000000000E+001
  0.18239465000E+008,  0.20006158294E+007,  0.19000000000E+002,  0.00000000000E+000,  0.10000000000E+001
  0.18239615000E+008,  0.20006225296E+007,  0.19000000000E+002,  0.00000000000E+000,  0.10000000000E+001
  0.18239765000E+008,  0.20006292295E+007,  0.19000000000E+002,  0.00000000000E+000,  0.10000000000E+001
  0.18239915000E+008,  0.20006359293E+007,  0.19000000000E+002,  0.00000000000E+000,  0.10000000000E+001
  0.18240065000E+008,  0.20006426288E+007,  0.19000000000E+002,  0.00000000000E+000,  0.10000000000E+001
  0.18240215000E+008,  0.20006493284E+007,  0.19000000000E+002,  0.00000000000E+000,  0.10000000000E+001
  0.18240365000E+008,  0.20006560275E+007,  0.19000000000E+002,  0.00000000000E+000,  0.10000000000E+001
  0.18240515000E+008,  0.20006627264E+007,  0.19000000000E+002,  0.00000000000E+000,  0.10000000000E+001
  0.18240665000E+008,  0.20006694252E+007,  0.19000000000E+002,  0.00000000000E+000,  0.10000000000E+001
  0.18240815000E+008,  0.20006761242E+007,  0.19000000000E+002,  0.00000000000E+000,  0.10000000000E+001
  0.18240965000E+008,  0.20006828239E+007,  0.19000000000E+002,  0.00000000000E+000,  0.10000000000E+001
  0.18241115000E+008,  0.20006895233E+007,  0.19000000000E+002,  0.00000000000E+000,  0.10000000000E+001
  0.18241265000E+008,  0.20006962225E+007,  0.19000000000E+002,  0.00000000000E+000,  0.10000000000E+001
  0.18241415000E+008,  0.20007029214E+007,  0.19000000000E+002,  0.00000000000E+000,  0.10000000000E+001
  0.18241565000E+008,  0.20007096199E+007,  0.19000000000E+002,  0.00000000000E+000,  0.10000000000E+001
  0.18241715000E+008,  0.20007163178E+007,  0.19000000000E+002,  0.00000000000E+000,  0.10000000000E+001
  0.18241865000E+008,  0.20007230153E+007,  0.19000000000E+002,  0.00000000000E+000,  0.10000000000E+001
  0.18242015000E+008,  0.20007297123E+007,  0.19000000000E+002,  0.00000000000E+000,  0.10000000000E+001
  0.18242165000E+008,  0.20007364090E+007,  0.19000000000E+002,  0.00000000000E+000,  0.10000000000E+001
  0.18242315000E+008,  0.20007431055E+007,  0.19000000000E+002,  0.00000000000E+000,  0.10000000000E+001
  0.18242465000E+008,  0.20007498015E+007,  0.19000000000E+002,  0.00000000000E+000,  0.10000000000E+001
  0.18242615000E+008,  0.20007564971E+007,  0.19000000000E+002,  0.00000000000E+000,  0.10000000000E+001
  0.18242765000E+008,  0.20007631922E+007,  0.19000000000E+002,  0.00000000000E+000,  0.10000000000E+001
  0.18242915000E+008,  0.20007698870E+007,  0.19000000000E+002,  0.00000000000E+000,  0.10000000000E+001
  0.18243065000E+008,  0.20007765813E+007,  0.19000000000E+002,  0.00000000000E+000,  0.10000000000E+001
  0.18243215000E+008,  0.20007832753E+007,  0.19000000000E+002,  0.00000000000E+000,  0.10000000000E+001
  0.18243365000E+008,  0.20007899654E+007,  0.19000000000E+002,  0.00000000000E+000,  0.10000000000E+001
  0.18243515000E+008,  0.20007966440E+007,  0.19000000000E+002,  0.00000000000E+000,  0.10000000000E+001
  0.18243665000E+008,  0.20008033207E+007,  0.19000000000E+002,  0.00000000000E+000,  0.10000000000E+001
  0.18243815000E+008,  0.20008099824E+007,  0.19000000000E+002,  0.00000000000E+000,  0.10000000000E+001
  0.18243965000E+008,  0.20008166440E+007,  0.19000000000E+002,  0.00000000000E+000,  0.10000000000E+001
  0.18244115000E+008,  0.20008233051E+007,  0.19000000000E+002,  0.00000000000E+000,  0.10000000000E+001
  0.18244265000E+008,  0.20008299653E+007,  0.19000000000E+002,  0.00000000000E+000,  0.10000000000E+001
  0.18244415000E+008,  0.20008366251E+007,  0.19000000000E+002,  0.00000000000E+000,  0.10000000000E+001
  0.18244565000E+008,  0.20008432841E+007,  0.19000000000E+002,  0.00000000000E+000,  0.10000000000E+001
  0.18244715000E+008,  0.20008499424E+007,  0.19000000000E+002,  0.00000000000E+000,  0.10000000000E+001
  0.18244865000E+008,  0.20008566004E+007,  0.19000000000E+002,  0.00000000000E+000,  0.10000000000E+001
  0.18245015000E+008,  0.20008632489E+007,  0.19000000000E+002,  0.00000000000E+000,  0.10000000000E+001
  0.18245165000E+008,  0.20008698871E+007,  0.19000000000E+002,  0.00000000000E+000,  0.10000000000E+001
  0.18245315000E+008,  0.20008765232E+007,  0.19000000000E+002,  0.00000000000E+000,  0.10000000000E+001
  0.18245465000E+008,  0.20008831588E+007,  0.19000000000E+002,  0.00000000000E+000,  0.10000000000E+001
  0.18245615000E+008,  0.20008897933E+007,  0.19000000000E+002,  0.00000000000E+000,  0.10000000000E+001
  0.18245765000E+008,  0.20008964271E+007,  0.19000000000E+002,  0.00000000000E+000,  0.10000000000E+001
  0.18245915000E+008,  0.20009030607E+007,  0.19000000000E+002,  0.00000000000E+000,  0.10000000000E+001
  0.18246065000E+008,  0.20009096946E+007,  0.19000000000E+002,  0.00000000000E+000,  0.10000000000E+001
  0.18246215000E+008,  0.20009163277E+007,  0.19000000000E+002,  0.00000000000E+000,  0.10000000000E+001
  0.18246365000E+008,  0.20009229606E+007,  0.19000000000E+002,  0.00000000000E+000,  0.10000000000E+001
  0.18246515000E+008,  0.20009295932E+007,  0.19000000000E+002,  0.00000000000E+000,  0.10000000000E+001
  0.18246665000E+008,  0.20009362255E+007,  0.19000000000E+002,  0.00000000000E+000,  0.10000000000E+001
  0.18246815000E+008,  0.20009428571E+007,  0.19000000000E+002,  0.00000000000E+000,  0.10000000000E+001
  0.18246965000E+008,  0.20009494879E+007,  0.19000000000E+002,  0.00000000000E+000,  0.10000000000E+001
  0.18247115000E+008,  0.20009561178E+007,  0.19000000000E+002,  0.00000000000E+000,  0.10000000000E+001
  0.18247265000E+008,  0.20009627467E+007,  0.19000000000E+002,  0.00000000000E+000,  0.10000000000E+001
  0.18247415000E+008,  0.20009693744E+007,  0.19000000000E+002,  0.00000000000E+000,  0.10000000000E+001
  0.18247565000E+008,  0.20009760010E+007,  0.19000000000E+002,  0.00000000000E+000,  0.10000000000E+001
  0.18247715000E+008,  0.20009826266E+007,  0.19000000000E+002,  0.00000000000E+000,  0.10000000000E+001
  0.18247865000E+008,  0.20009892511E+007,  0.19000000000E+002,  0.00000000000E+000,  0.10000000000E+001
  0.18248015000E+008,  0.20009958746E+007,  0.19000000000E+002,  0.00000000000E+000,  0.10000000000E+001
  0.18248165000E+008,  0.20010024970E+007,  0.19000000000E+002,  0.00000000000E+000,  0.10000000000E+001
  0.18248315000E+008,  0.20010091187E+007,  0.19000000000E+002,  0.00000000000E+000,  0.10000000000E+001
  0.18248465000E+008,  0.20010157396E+007,  0.19000000000E+002,  0.00000000000E+000,  0.10000000000E+001
  0.18248615000E+008,  0.20010223593E+007,  0.19000000000E+002,  0.00000000000E+000,  0.10000000000E+001
  0.18248765000E+008,  0.20010289783E+007,  0.19000000000E+002,  0.00000000000E+000,  0.10000000000E+001
  0.18248915000E+008,  0.20010355961E+007,  0.19000000000E+002,  0.00000000000E+000,  0.10000000000E+001
  0.18249065000E+008,  0.20010422128E+007,  0.19000000000E+002,  0.00000000000E+000,  0.10000000000E+001
  0.18249215000E+008,  0.20010488283E+007,  0.19000000000E+002,  0.00000000000E+000,  0.10000000000E+001
  0.18249365000E+008,  0.20010554428E+007,  0.19000000000E+002,  0.00000000000E+000,  0.10000000000E+001
  0.18249515000E+008,  0.20010620558E+007,  0.19000000000E+002,  0.00000000000E+000,  0.10000000000E+001
  0.18249665000E+008,  0.20010686676E+007,  0.19000000000E+002,  0.00000000000E+000,  0.10000000000E+001
  0.18249815000E+008,  0.20010752781E+007,  0.19000000000E+002,  0.00000000000E+000,  0.10000000000E+001
  0.18249965000E+008,  0.20010818875E+007,  0.19000000000E+002,  0.00000000000E+000,  0.10000000000E+001
  0.18250115000E+008,  0.20010884954E+007,  0.19000000000E+002,  0.00000000000E+000,  0.10000000000E+001
  0.18250265000E+008,  0.20010951020E+007,  0.19000000000E+002,  0.00000000000E+000,  0.10000000000E+001
  0.18250415000E+008,  0.20011026435E+007,  0.19000000000E+002,  0.00000000000E+000,  0.10000000000E+001
  0.18250490001E+008,  0.20011061415E+007,  0.19000000000E+002,  0.00000000000E+000,  0.10000000000E+001
  0.18250640001E+008,  0.20011116091E+007,  0.19000000000E+002,  0.00000000000E+000,  0.10000000000E+001
  0.18250790001E+008,  0.20011182405E+007,  0.19000000000E+002,  0.00000000000E+000,  0.10000000000E+001
  0.18250865001E+008,  0.20011218566E+007,  0.19000000000E+002,  0.00000000000E+000,  0.10000000000E+001
  0.18251015001E+008,  0.20011273610E+007,  0.19000000000E+002,  0.00000000000E+000,  0.10000000000E+001
  0.18251165001E+008,  0.20011334321E+007,  0.19000000000E+002,  0.00000000000E+000,  0.10000000000E+001
  0.18251315001E+008,  0.20011398151E+007,  0.19000000000E+002,  0.00000000000E+000,  0.10000000000E+001
  0.18251465001E+008,  0.20011463212E+007,  0.19000000000E+002,  0.00000000000E+000,  0.10000000000E+001
  0.18251615001E+008,  0.20011528739E+007,  0.19000000000E+002,  0.00000000000E+000,  0.10000000000E+001
  0.18251765001E+008,  0.20011608227E+007,  0.19000000000E+002,  0.00000000000E+000,  0.10000000000E+001
  0.18251840002E+008,  0.20011634165E+007,  0.19000000000E+002,  0.00000000000E+000,  0.10000000000E+001
  0.18251990002E+008,  0.20011690339E+007,  0.19000000000E+002,  0.00000000000E+000,  0.10000000000E+001
  0.18252140002E+008,  0.20011751754E+007,  0.19000000000E+002,  0.00000000000E+000,  0.10000000000E+001
  0.18252290002E+008,  0.20011815627E+007,  0.19000000000E+002,  0.00000000000E+000,  0.10000000000E+001
  0.18252440002E+008,  0.20011880587E+007,  0.19000000000E+002,  0.00000000000E+000,  0.10000000000E+001
  0.18252590002E+008,  0.20011945927E+007,  0.19000000000E+002,  0.00000000000E+000,  0.10000000000E+001
  0.18252740002E+008,  0.20012011213E+007,  0.19000000000E+002,  0.00000000000E+000,  0.10000000000E+001
  0.18252890002E+008,  0.20012076515E+007,  0.19000000000E+002,  0.00000000000E+000,  0.10000000000E+001
  0.18253040002E+008,  0.20012141742E+007,  0.19000000000E+002,  0.00000000000E+000,  0.10000000000E+001
  0.18253190002E+008,  0.20012206890E+007,  0.19000000000E+002,  0.00000000000E+000,  0.10000000000E+001
  0.18253340002E+008,  0.20012271939E+007,  0.19000000000E+002,  0.00000000000E+000,  0.10000000000E+001
  0.18253490002E+008,  0.20012336901E+007,  0.19000000000E+002,  0.00000000000E+000,  0.10000000000E+001
  0.18253640002E+008,  0.20012401827E+007,  0.19000000000E+002,  0.00000000000E+000,  0.10000000000E+001
  0.18253790002E+008,  0.20012466675E+007,  0.19000000000E+002,  0.00000000000E+000,  0.10000000000E+001
  0.18253940002E+008,  0.20012531313E+007,  0.19000000000E+002,  0.00000000000E+000,  0.10000000000E+001
  0.18254090002E+008,  0.20012595814E+007,  0.19000000000E+002,  0.00000000000E+000,  0.10000000000E+001
  0.18254240002E+008,  0.20012660259E+007,  0.19000000000E+002,  0.00000000000E+000,  0.10000000000E+001
  0.18254390002E+008,  0.20012724672E+007,  0.19000000000E+002,  0.00000000000E+000,  0.10000000000E+001
  0.18254540002E+008,  0.20012789063E+007,  0.19000000000E+002,  0.00000000000E+000,  0.10000000000E+001
  0.18254690002E+008,  0.20012853432E+007,  0.19000000000E+002,  0.00000000000E+000,  0.10000000000E+001
  0.18254840002E+008,  0.20012917783E+007,  0.19000000000E+002,  0.00000000000E+000,  0.10000000000E+001
  0.18254990002E+008,  0.20012982118E+007,  0.19000000000E+002,  0.00000000000E+000,  0.10000000000E+001
  0.18255140002E+008,  0.20013046436E+007,  0.19000000000E+002,  0.00000000000E+000,  0.10000000000E+001
  0.18255290002E+008,  0.20013110739E+007,  0.19000000000E+002,  0.00000000000E+000,  0.10000000000E+001
  0.18255440002E+008,  0.20013175025E+007,  0.19000000000E+002,  0.00000000000E+000,  0.10000000000E+001
  0.18255590002E+008,  0.20013239296E+007,  0.19000000000E+002,  0.00000000000E+000,  0.10000000000E+001
  0.18255740002E+008,  0.20013303552E+007,  0.19000000000E+002,  0.00000000000E+000,  0.10000000000E+001
  0.18255890002E+008,  0.20013367794E+007,  0.19000000000E+002,  0.00000000000E+000,  0.10000000000E+001
  0.18256040002E+008,  0.20013432020E+007,  0.19000000000E+002,  0.00000000000E+000,  0.10000000000E+001
  0.18256190002E+008,  0.20013496082E+007,  0.19000000000E+002,  0.00000000000E+000,  0.10000000000E+001
  0.18256340002E+008,  0.20013559924E+007,  0.19000000000E+002,  0.00000000000E+000,  0.10000000000E+001
  0.18256490002E+008,  0.20013623666E+007,  0.19000000000E+002,  0.00000000000E+000,  0.10000000000E+001
  0.18256640002E+008,  0.20013687278E+007,  0.19000000000E+002,  0.00000000000E+000,  0.10000000000E+001
