"           TIME(S)","              PRES","              TEMP","             SAT_G","             SAT_L"
  0.17592105000E+008,  0.21000000000E+007,  0.19000000000E+002,  0.00000000000E+000,  0.10000000000E+001
  0.17592130000E+008,  0.21000000096E+007,  0.19000000000E+002,  0.00000000000E+000,  0.10000000000E+001
  0.17592255000E+008,  0.20999961278E+007,  0.19000000000E+002,  0.00000000000E+000,  0.10000000000E+001
  0.17592405000E+008,  0.20999684697E+007,  0.19000000000E+002,  0.00000000000E+000,  0.10000000000E+001
  0.17592555000E+008,  0.20999031459E+007,  0.19000000000E+002,  0.00000000000E+000,  0.10000000000E+001
  0.17592705000E+008,  0.20997944548E+007,  0.19000000000E+002,  0.00000000000E+000,  0.10000000000E+001
  0.17592855000E+008,  0.20996447000E+007,  0.19000000000E+002,  0.00000000000E+000,  0.10000000000E+001
  0.17593005000E+008,  0.20994602663E+007,  0.19000000000E+002,  0.00000000000E+000,  0.10000000000E+001
  0.17593155000E+008,  0.20992483741E+007,  0.19000000000E+002,  0.00000000000E+000,  0.10000000000E+001
  0.17593305000E+008,  0.20990155081E+007,  0.19000000000E+002,  0.00000000000E+000,  0.10000000000E+001
  0.17593455000E+008,  0.20987668615E+007,  0.19000000000E+002,  0.00000000000E+000,  0.10000000000E+001
  0.17593605000E+008,  0.20985063400E+007,  0.19000000000E+002,  0.00000000000E+000,  0.10000000000E+001
  0.17593755000E+008,  0.20982368010E+007,  0.19000000000E+002,  0.00000000000E+000,  0.10000000000E+001
  0.17593905000E+008,  0.20979603372E+007,  0.19000000000E+002,  0.00000000000E+000,  0.10000000000E+001
  0.17594055000E+008,  0.20976785177E+007,  0.19000000000E+002,  0.00000000000E+000,  0.10000000000E+001
  0.17594205000E+008,  0.20973925653E+007,  0.19000000000E+002,  0.00000000000E+000,  0.10000000000E+001
  0.17594355000E+008,  0.20971034755E+007,  0.19000000000E+002,  0.00000000000E+000,  0.10000000000E+001
  0.17594505000E+008,  0.20968120901E+007,  0.19000000000E+002,  0.00000000000E+000,  0.10000000000E+001
  0.17594655000E+008,  0.20965191426E+007,  0.19000000000E+002,  0.00000000000E+000,  0.10000000000E+001
  0.17594805000E+008,  0.20962252829E+007,  0.19000000000E+002,  0.00000000000E+000,  0.10000000000E+001
  0.17594955000E+008,  0.20959310919E+007,  0.19000000000E+002,  0.00000000000E+000,  0.10000000000E+001
  0.17595105000E+008,  0.20956370910E+007,  0.19000000000E+002,  0.00000000000E+000,  0.10000000000E+001
  0.17595255000E+008,  0.20953390279E+007,  0.19000000000E+002,  0.00000000000E+000,  0.10000000000E+001
  0.17595330000E+008,  0.20951889264E+007,  0.19000000000E+002,  0.00000000000E+000,  0.10000000000E+001
  0.17595480000E+008,  0.20948824312E+007,  0.19000000000E+002,  0.00000000000E+000,  0.10000000000E+001
  0.17595555001E+008,  0.20947226312E+007,  0.19000000000E+002,  0.00000000000E+000,  0.10000000000E+001
  0.17595592501E+008,  0.20946403094E+007,  0.19000000000E+002,  0.00000000000E+000,  0.10000000000E+001
  0.17595742501E+008,  0.20943002097E+007,  0.19000000000E+002,  0.00000000000E+000,  0.10000000000E+001
  0.17595817502E+008,  0.20941239121E+007,  0.19000000000E+002,  0.00000000000E+000,  0.10000000000E+001
  0.17595855002E+008,  0.20940332603E+007,  0.19000000000E+002,  0.00000000000E+000,  0.10000000000E+001
  0.17596005002E+008,  0.20936176079E+007,  0.19000000000E+002,  0.00000000000E+000,  0.10000000000E+001
  0.17596080003E+008,  0.20933934871E+007,  0.19000000000E+002,  0.00000000000E+000,  0.10000000000E+001
  0.17596117503E+008,  0.20932776653E+007,  0.19000000000E+002,  0.00000000000E+000,  0.10000000000E+001
  0.17596136254E+008,  0.20932186638E+007,  0.19000000000E+002,  0.00000000000E+000,  0.10000000000E+001
  0.17596230005E+008,  0.20929039084E+007,  0.19000000000E+002,  0.00000000000E+000,  0.10000000000E+001
  0.17596276882E+008,  0.20927368633E+007,  0.19000000000E+002,  0.00000000000E+000,  0.10000000000E+001
  0.17596426882E+008,  0.20920428271E+007,  0.19000000000E+002,  0.00000000000E+000,  0.10000000000E+001
  0.17596501882E+008,  0.20916069398E+007,  0.19000000000E+002,  0.00000000000E+000,  0.10000000000E+001
  0.17596651882E+008,  0.20907559869E+007,  0.19000000000E+002,  0.00000000000E+000,  0.10000000000E+001
  0.17596801882E+008,  0.20900004831E+007,  0.19000000000E+002,  0.00000000000E+000,  0.10000000000E+001
  0.17596951882E+008,  0.20893204991E+007,  0.19000000000E+002,  0.00000000000E+000,  0.10000000000E+001
  0.17597101882E+008,  0.20886908084E+007,  0.19000000000E+002,  0.00000000000E+000,  0.10000000000E+001
  0.17597251882E+008,  0.20880942708E+007,  0.19000000000E+002,  0.00000000000E+000,  0.10000000000E+001
  0.17597401882E+008,  0.20875202458E+007,  0.19000000000E+002,  0.00000000000E+000,  0.10000000000E+001
  0.17597551882E+008,  0.20869621096E+007,  0.19000000000E+002,  0.00000000000E+000,  0.10000000000E+001
  0.17597701882E+008,  0.20864156407E+007,  0.19000000000E+002,  0.00000000000E+000,  0.10000000000E+001
  0.17597851882E+008,  0.20858780834E+007,  0.19000000000E+002,  0.00000000000E+000,  0.10000000000E+001
  0.17598001882E+008,  0.20853476029E+007,  0.19000000000E+002,  0.00000000000E+000,  0.10000000000E+001
  0.17598151882E+008,  0.20848229586E+007,  0.19000000000E+002,  0.00000000000E+000,  0.10000000000E+001
  0.17598301882E+008,  0.20843033018E+007,  0.19000000000E+002,  0.00000000000E+000,  0.10000000000E+001
  0.17598451882E+008,  0.20837880464E+007,  0.19000000000E+002,  0.00000000000E+000,  0.10000000000E+001
  0.17598601882E+008,  0.20832767840E+007,  0.19000000000E+002,  0.00000000000E+000,  0.10000000000E+001
  0.17598751882E+008,  0.20827692275E+007,  0.19000000000E+002,  0.00000000000E+000,  0.10000000000E+001
  0.17598901882E+008,  0.20822651734E+007,  0.19000000000E+002,  0.00000000000E+000,  0.10000000000E+001
  0.17599051882E+008,  0.20817644757E+007,  0.19000000000E+002,  0.00000000000E+000,  0.10000000000E+001
  0.17599201882E+008,  0.20812670283E+007,  0.19000000000E+002,  0.00000000000E+000,  0.10000000000E+001
  0.17599351882E+008,  0.20807727526E+007,  0.19000000000E+002,  0.00000000000E+000,  0.10000000000E+001
  0.17599501882E+008,  0.20802815892E+007,  0.19000000000E+002,  0.00000000000E+000,  0.10000000000E+001
  0.17599651882E+008,  0.20797934921E+007,  0.19000000000E+002,  0.00000000000E+000,  0.10000000000E+001
  0.17599801882E+008,  0.20793084245E+007,  0.19000000000E+002,  0.00000000000E+000,  0.10000000000E+001
  0.17599951882E+008,  0.20788263560E+007,  0.19000000000E+002,  0.00000000000E+000,  0.10000000000E+001
  0.17600101882E+008,  0.20783472608E+007,  0.19000000000E+002,  0.00000000000E+000,  0.10000000000E+001
  0.17600251882E+008,  0.20778711161E+007,  0.19000000000E+002,  0.00000000000E+000,  0.10000000000E+001
  0.17600401882E+008,  0.20773979011E+007,  0.19000000000E+002,  0.00000000000E+000,  0.10000000000E+001
  0.17600551882E+008,  0.20769275968E+007,  0.19000000000E+002,  0.00000000000E+000,  0.10000000000E+001
  0.17600701882E+008,  0.20764601848E+007,  0.19000000000E+002,  0.00000000000E+000,  0.10000000000E+001
  0.17600851882E+008,  0.20759956477E+007,  0.19000000000E+002,  0.00000000000E+000,  0.10000000000E+001
  0.17601001882E+008,  0.20755339683E+007,  0.19000000000E+002,  0.00000000000E+000,  0.10000000000E+001
  0.17601151882E+008,  0.20750751300E+007,  0.19000000000E+002,  0.00000000000E+000,  0.10000000000E+001
  0.17601301882E+008,  0.20746191161E+007,  0.19000000000E+002,  0.00000000000E+000,  0.10000000000E+001
  0.17601451882E+008,  0.20741659103E+007,  0.19000000000E+002,  0.00000000000E+000,  0.10000000000E+001
  0.17601601882E+008,  0.20737154963E+007,  0.19000000000E+002,  0.00000000000E+000,  0.10000000000E+001
  0.17601751882E+008,  0.20732678577E+007,  0.19000000000E+002,  0.00000000000E+000,  0.10000000000E+001
  0.17601901882E+008,  0.20728229785E+007,  0.19000000000E+002,  0.00000000000E+000,  0.10000000000E+001
  0.17602051882E+008,  0.20723808423E+007,  0.19000000000E+002,  0.00000000000E+000,  0.10000000000E+001
  0.17602201882E+008,  0.20719414332E+007,  0.19000000000E+002,  0.00000000000E+000,  0.10000000000E+001
  0.17602351882E+008,  0.20715047349E+007,  0.19000000000E+002,  0.00000000000E+000,  0.10000000000E+001
  0.17602501882E+008,  0.20710707315E+007,  0.19000000000E+002,  0.00000000000E+000,  0.10000000000E+001
  0.17602651882E+008,  0.20706394068E+007,  0.19000000000E+002,  0.00000000000E+000,  0.10000000000E+001
  0.17602801882E+008,  0.20702107450E+007,  0.19000000000E+002,  0.00000000000E+000,  0.10000000000E+001
  0.17602951882E+008,  0.20697847300E+007,  0.19000000000E+002,  0.00000000000E+000,  0.10000000000E+001
  0.17603101882E+008,  0.20693613461E+007,  0.19000000000E+002,  0.00000000000E+000,  0.10000000000E+001
  0.17603251882E+008,  0.20689405772E+007,  0.19000000000E+002,  0.00000000000E+000,  0.10000000000E+001
  0.17603401882E+008,  0.20685224077E+007,  0.19000000000E+002,  0.00000000000E+000,  0.10000000000E+001
  0.17603551882E+008,  0.20681068218E+007,  0.19000000000E+002,  0.00000000000E+000,  0.10000000000E+001
  0.17603701882E+008,  0.20676938039E+007,  0.19000000000E+002,  0.00000000000E+000,  0.10000000000E+001
  0.17603851882E+008,  0.20672833383E+007,  0.19000000000E+002,  0.00000000000E+000,  0.10000000000E+001
  0.17604001882E+008,  0.20668754096E+007,  0.19000000000E+002,  0.00000000000E+000,  0.10000000000E+001
  0.17604151882E+008,  0.20664700022E+007,  0.19000000000E+002,  0.00000000000E+000,  0.10000000000E+001
  0.17604301882E+008,  0.20660671008E+007,  0.19000000000E+002,  0.00000000000E+000,  0.10000000000E+001
  0.17604451882E+008,  0.20656666900E+007,  0.19000000000E+002,  0.00000000000E+000,  0.10000000000E+001
  0.17604601882E+008,  0.20652687546E+007,  0.19000000000E+002,  0.00000000000E+000,  0.10000000000E+001
  0.17604751882E+008,  0.20648732795E+007,  0.19000000000E+002,  0.00000000000E+000,  0.10000000000E+001
  0.17604901882E+008,  0.20644802496E+007,  0.19000000000E+002,  0.00000000000E+000,  0.10000000000E+001
  0.17605051882E+008,  0.20640896498E+007,  0.19000000000E+002,  0.00000000000E+000,  0.10000000000E+001
  0.17605201882E+008,  0.20637014652E+007,  0.19000000000E+002,  0.00000000000E+000,  0.10000000000E+001
  0.17605351882E+008,  0.20633156810E+007,  0.19000000000E+002,  0.00000000000E+000,  0.10000000000E+001
  0.17605501882E+008,  0.20629322825E+007,  0.19000000000E+002,  0.00000000000E+000,  0.10000000000E+001
  0.17605651882E+008,  0.20625512549E+007,  0.19000000000E+002,  0.00000000000E+000,  0.10000000000E+001
  0.17605801882E+008,  0.20621725837E+007,  0.19000000000E+002,  0.00000000000E+000,  0.10000000000E+001
  0.17605951882E+008,  0.20617962543E+007,  0.19000000000E+002,  0.00000000000E+000,  0.10000000000E+001
  0.17606101882E+008,  0.20614222523E+007,  0.19000000000E+002,  0.00000000000E+000,  0.10000000000E+001
  0.17606251882E+008,  0.20610505633E+007,  0.19000000000E+002,  0.00000000000E+000,  0.10000000000E+001
  0.17606401882E+008,  0.20606811732E+007,  0.19000000000E+002,  0.00000000000E+000,  0.10000000000E+001
  0.17606551882E+008,  0.20603140677E+007,  0.19000000000E+002,  0.00000000000E+000,  0.10000000000E+001
  0.17606701882E+008,  0.20599492327E+007,  0.19000000000E+002,  0.00000000000E+000,  0.10000000000E+001
  0.17606851882E+008,  0.20595866542E+007,  0.19000000000E+002,  0.00000000000E+000,  0.10000000000E+001
  0.17607001882E+008,  0.20592263183E+007,  0.19000000000E+002,  0.00000000000E+000,  0.10000000000E+001
  0.17607151882E+008,  0.20588682112E+007,  0.19000000000E+002,  0.00000000000E+000,  0.10000000000E+001
  0.17607301882E+008,  0.20585123190E+007,  0.19000000000E+002,  0.00000000000E+000,  0.10000000000E+001
  0.17607451882E+008,  0.20581586281E+007,  0.19000000000E+002,  0.00000000000E+000,  0.10000000000E+001
  0.17607601882E+008,  0.20578071249E+007,  0.19000000000E+002,  0.00000000000E+000,  0.10000000000E+001
  0.17607751882E+008,  0.20574577958E+007,  0.19000000000E+002,  0.00000000000E+000,  0.10000000000E+001
  0.17607901882E+008,  0.20571106275E+007,  0.19000000000E+002,  0.00000000000E+000,  0.10000000000E+001
  0.17608051882E+008,  0.20567656066E+007,  0.19000000000E+002,  0.00000000000E+000,  0.10000000000E+001
  0.17608201882E+008,  0.20564227199E+007,  0.19000000000E+002,  0.00000000000E+000,  0.10000000000E+001
  0.17608351882E+008,  0.20560819540E+007,  0.19000000000E+002,  0.00000000000E+000,  0.10000000000E+001
  0.17608501882E+008,  0.20557432960E+007,  0.19000000000E+002,  0.00000000000E+000,  0.10000000000E+001
  0.17608651882E+008,  0.20554067327E+007,  0.19000000000E+002,  0.00000000000E+000,  0.10000000000E+001
  0.17608801882E+008,  0.20550722513E+007,  0.19000000000E+002,  0.00000000000E+000,  0.10000000000E+001
  0.17608951882E+008,  0.20547398389E+007,  0.19000000000E+002,  0.00000000000E+000,  0.10000000000E+001
  0.17609101882E+008,  0.20544094826E+007,  0.19000000000E+002,  0.00000000000E+000,  0.10000000000E+001
  0.17609251882E+008,  0.20540811698E+007,  0.19000000000E+002,  0.00000000000E+000,  0.10000000000E+001
  0.17609401882E+008,  0.20537548878E+007,  0.19000000000E+002,  0.00000000000E+000,  0.10000000000E+001
  0.17609551882E+008,  0.20534306241E+007,  0.19000000000E+002,  0.00000000000E+000,  0.10000000000E+001
  0.17609701882E+008,  0.20531083662E+007,  0.19000000000E+002,  0.00000000000E+000,  0.10000000000E+001
  0.17609851882E+008,  0.20527881017E+007,  0.19000000000E+002,  0.00000000000E+000,  0.10000000000E+001
  0.17610001882E+008,  0.20524698182E+007,  0.19000000000E+002,  0.00000000000E+000,  0.10000000000E+001
  0.17610151882E+008,  0.20521535035E+007,  0.19000000000E+002,  0.00000000000E+000,  0.10000000000E+001
  0.17610301882E+008,  0.20518391455E+007,  0.19000000000E+002,  0.00000000000E+000,  0.10000000000E+001
  0.17610451882E+008,  0.20515267320E+007,  0.19000000000E+002,  0.00000000000E+000,  0.10000000000E+001
  0.17610601882E+008,  0.20512162510E+007,  0.19000000000E+002,  0.00000000000E+000,  0.10000000000E+001
  0.17610751882E+008,  0.20509076905E+007,  0.19000000000E+002,  0.00000000000E+000,  0.10000000000E+001
  0.17610901882E+008,  0.20506010388E+007,  0.19000000000E+002,  0.00000000000E+000,  0.10000000000E+001
  0.17611051882E+008,  0.20502962838E+007,  0.19000000000E+002,  0.00000000000E+000,  0.10000000000E+001
  0.17611201882E+008,  0.20499934141E+007,  0.19000000000E+002,  0.00000000000E+000,  0.10000000000E+001
  0.17611351882E+008,  0.20496924178E+007,  0.19000000000E+002,  0.00000000000E+000,  0.10000000000E+001
  0.17611501882E+008,  0.20493932834E+007,  0.19000000000E+002,  0.00000000000E+000,  0.10000000000E+001
  0.17611651882E+008,  0.20490959993E+007,  0.19000000000E+002,  0.00000000000E+000,  0.10000000000E+001
  0.17611801882E+008,  0.20488005542E+007,  0.19000000000E+002,  0.00000000000E+000,  0.10000000000E+001
  0.17611951882E+008,  0.20485069366E+007,  0.19000000000E+002,  0.00000000000E+000,  0.10000000000E+001
  0.17612101882E+008,  0.20482151353E+007,  0.19000000000E+002,  0.00000000000E+000,  0.10000000000E+001
  0.17612251882E+008,  0.20479251390E+007,  0.19000000000E+002,  0.00000000000E+000,  0.10000000000E+001
  0.17612401882E+008,  0.20476369366E+007,  0.19000000000E+002,  0.00000000000E+000,  0.10000000000E+001
  0.17612551882E+008,  0.20473505169E+007,  0.19000000000E+002,  0.00000000000E+000,  0.10000000000E+001
  0.17612701882E+008,  0.20470658689E+007,  0.19000000000E+002,  0.00000000000E+000,  0.10000000000E+001
  0.17612851882E+008,  0.20467829817E+007,  0.19000000000E+002,  0.00000000000E+000,  0.10000000000E+001
  0.17613001882E+008,  0.20465018444E+007,  0.19000000000E+002,  0.00000000000E+000,  0.10000000000E+001
  0.17613151882E+008,  0.20462224462E+007,  0.19000000000E+002,  0.00000000000E+000,  0.10000000000E+001
  0.17613301882E+008,  0.20459447762E+007,  0.19000000000E+002,  0.00000000000E+000,  0.10000000000E+001
  0.17613451882E+008,  0.20456688238E+007,  0.19000000000E+002,  0.00000000000E+000,  0.10000000000E+001
  0.17613601882E+008,  0.20453945785E+007,  0.19000000000E+002,  0.00000000000E+000,  0.10000000000E+001
  0.17613751882E+008,  0.20451220295E+007,  0.19000000000E+002,  0.00000000000E+000,  0.10000000000E+001
  0.17613901882E+008,  0.20448511665E+007,  0.19000000000E+002,  0.00000000000E+000,  0.10000000000E+001
  0.17614051882E+008,  0.20445819790E+007,  0.19000000000E+002,  0.00000000000E+000,  0.10000000000E+001
  0.17614201882E+008,  0.20443144566E+007,  0.19000000000E+002,  0.00000000000E+000,  0.10000000000E+001
  0.17614351882E+008,  0.20440485890E+007,  0.19000000000E+002,  0.00000000000E+000,  0.10000000000E+001
  0.17614501882E+008,  0.20437843661E+007,  0.19000000000E+002,  0.00000000000E+000,  0.10000000000E+001
  0.17614651882E+008,  0.20435217776E+007,  0.19000000000E+002,  0.00000000000E+000,  0.10000000000E+001
  0.17614801882E+008,  0.20432608134E+007,  0.19000000000E+002,  0.00000000000E+000,  0.10000000000E+001
  0.17614951882E+008,  0.20430014635E+007,  0.19000000000E+002,  0.00000000000E+000,  0.10000000000E+001
  0.17615101882E+008,  0.20427437178E+007,  0.19000000000E+002,  0.00000000000E+000,  0.10000000000E+001
  0.17615251882E+008,  0.20424875666E+007,  0.19000000000E+002,  0.00000000000E+000,  0.10000000000E+001
  0.17615401882E+008,  0.20422329998E+007,  0.19000000000E+002,  0.00000000000E+000,  0.10000000000E+001
  0.17615551882E+008,  0.20419800077E+007,  0.19000000000E+002,  0.00000000000E+000,  0.10000000000E+001
  0.17615701882E+008,  0.20417285806E+007,  0.19000000000E+002,  0.00000000000E+000,  0.10000000000E+001
  0.17615851882E+008,  0.20414787088E+007,  0.19000000000E+002,  0.00000000000E+000,  0.10000000000E+001
  0.17616001882E+008,  0.20412303826E+007,  0.19000000000E+002,  0.00000000000E+000,  0.10000000000E+001
  0.17616151882E+008,  0.20409835926E+007,  0.19000000000E+002,  0.00000000000E+000,  0.10000000000E+001
  0.17616301882E+008,  0.20407383291E+007,  0.19000000000E+002,  0.00000000000E+000,  0.10000000000E+001
  0.17616451882E+008,  0.20404945827E+007,  0.19000000000E+002,  0.00000000000E+000,  0.10000000000E+001
  0.17616601882E+008,  0.20402523442E+007,  0.19000000000E+002,  0.00000000000E+000,  0.10000000000E+001
  0.17616751882E+008,  0.20400116041E+007,  0.19000000000E+002,  0.00000000000E+000,  0.10000000000E+001
  0.17616901882E+008,  0.20397723531E+007,  0.19000000000E+002,  0.00000000000E+000,  0.10000000000E+001
  0.17617051882E+008,  0.20395345822E+007,  0.19000000000E+002,  0.00000000000E+000,  0.10000000000E+001
  0.17617201882E+008,  0.20392982820E+007,  0.19000000000E+002,  0.00000000000E+000,  0.10000000000E+001
  0.17617351882E+008,  0.20390634435E+007,  0.19000000000E+002,  0.00000000000E+000,  0.10000000000E+001
  0.17617501882E+008,  0.20388300577E+007,  0.19000000000E+002,  0.00000000000E+000,  0.10000000000E+001
  0.17617651882E+008,  0.20385981156E+007,  0.19000000000E+002,  0.00000000000E+000,  0.10000000000E+001
  0.17617801882E+008,  0.20383676082E+007,  0.19000000000E+002,  0.00000000000E+000,  0.10000000000E+001
  0.17617951882E+008,  0.20381385268E+007,  0.19000000000E+002,  0.00000000000E+000,  0.10000000000E+001
  0.17618101882E+008,  0.20379108623E+007,  0.19000000000E+002,  0.00000000000E+000,  0.10000000000E+001
  0.17618251882E+008,  0.20376846062E+007,  0.19000000000E+002,  0.00000000000E+000,  0.10000000000E+001
  0.17618401882E+008,  0.20374597496E+007,  0.19000000000E+002,  0.00000000000E+000,  0.10000000000E+001
  0.17618551882E+008,  0.20372362840E+007,  0.19000000000E+002,  0.00000000000E+000,  0.10000000000E+001
  0.17618701882E+008,  0.20370142007E+007,  0.19000000000E+002,  0.00000000000E+000,  0.10000000000E+001
  0.17618851882E+008,  0.20367934911E+007,  0.19000000000E+002,  0.00000000000E+000,  0.10000000000E+001
  0.17619001882E+008,  0.20365741468E+007,  0.19000000000E+002,  0.00000000000E+000,  0.10000000000E+001
  0.17619151882E+008,  0.20363561594E+007,  0.19000000000E+002,  0.00000000000E+000,  0.10000000000E+001
