"           TIME(S)","              PRES","              TEMP","             SAT_G","             SAT_L"
  0.18228740000E+008,  0.20000001825E+007,  0.19000000000E+002,  0.00000000000E+000,  0.10000000000E+001
  0.18228890000E+008,  0.20000086507E+007,  0.19000000000E+002,  0.00000000000E+000,  0.10000000000E+001
  0.18229040000E+008,  0.20000220817E+007,  0.19000000000E+002,  0.00000000000E+000,  0.10000000000E+001
  0.18229190000E+008,  0.20000369216E+007,  0.19000000000E+002,  0.00000000000E+000,  0.10000000000E+001
  0.18229340000E+008,  0.20000512700E+007,  0.19000000000E+002,  0.00000000000E+000,  0.10000000000E+001
  0.18229490000E+008,  0.20000645342E+007,  0.19000000000E+002,  0.00000000000E+000,  0.10000000000E+001
  0.18229640000E+008,  0.20000767462E+007,  0.19000000000E+002,  0.00000000000E+000,  0.10000000000E+001
  0.18229790000E+008,  0.20000881436E+007,  0.19000000000E+002,  0.00000000000E+000,  0.10000000000E+001
  0.18229865000E+008,  0.20000936722E+007,  0.19000000000E+002,  0.00000000000E+000,  0.10000000000E+001
  0.18230015000E+008,  0.20001042805E+007,  0.19000000000E+002,  0.00000000000E+000,  0.10000000000E+001
  0.18230165000E+008,  0.20001146271E+007,  0.19000000000E+002,  0.00000000000E+000,  0.10000000000E+001
  0.18230315000E+008,  0.20001248635E+007,  0.19000000000E+002,  0.00000000000E+000,  0.10000000000E+001
  0.18230465000E+008,  0.20001351106E+007,  0.19000000000E+002,  0.00000000000E+000,  0.10000000000E+001
  0.18230615000E+008,  0.20001454617E+007,  0.19000000000E+002,  0.00000000000E+000,  0.10000000000E+001
  0.18230765000E+008,  0.20001559850E+007,  0.19000000000E+002,  0.00000000000E+000,  0.10000000000E+001
  0.18230915000E+008,  0.20001667282E+007,  0.19000000000E+002,  0.00000000000E+000,  0.10000000000E+001
  0.18231065000E+008,  0.20001777232E+007,  0.19000000000E+002,  0.00000000000E+000,  0.10000000000E+001
  0.18231215000E+008,  0.20001889898E+007,  0.19000000000E+002,  0.00000000000E+000,  0.10000000000E+001
  0.18231365000E+008,  0.20002005389E+007,  0.19000000000E+002,  0.00000000000E+000,  0.10000000000E+001
  0.18231515000E+008,  0.20002123748E+007,  0.19000000000E+002,  0.00000000000E+000,  0.10000000000E+001
  0.18231665000E+008,  0.20002244970E+007,  0.19000000000E+002,  0.00000000000E+000,  0.10000000000E+001
  0.18231815000E+008,  0.20002369021E+007,  0.19000000000E+002,  0.00000000000E+000,  0.10000000000E+001
  0.18231965000E+008,  0.20002495849E+007,  0.19000000000E+002,  0.00000000000E+000,  0.10000000000E+001
  0.18232115000E+008,  0.20002625393E+007,  0.19000000000E+002,  0.00000000000E+000,  0.10000000000E+001
  0.18232265000E+008,  0.20002757584E+007,  0.19000000000E+002,  0.00000000000E+000,  0.10000000000E+001
  0.18232415000E+008,  0.20002892354E+007,  0.19000000000E+002,  0.00000000000E+000,  0.10000000000E+001
  0.18232565000E+008,  0.20003029624E+007,  0.19000000000E+002,  0.00000000000E+000,  0.10000000000E+001
  0.18232640001E+008,  0.20003098873E+007,  0.19000000000E+002,  0.00000000000E+000,  0.10000000000E+001
  0.18232677501E+008,  0.20003133649E+007,  0.19000000000E+002,  0.00000000000E+000,  0.10000000000E+001
  0.18232827501E+008,  0.20003274977E+007,  0.19000000000E+002,  0.00000000000E+000,  0.10000000000E+001
  0.18232977501E+008,  0.20003418348E+007,  0.19000000000E+002,  0.00000000000E+000,  0.10000000000E+001
  0.18233052502E+008,  0.20003490525E+007,  0.19000000000E+002,  0.00000000000E+000,  0.10000000000E+001
  0.18233202502E+008,  0.20003636711E+007,  0.19000000000E+002,  0.00000000000E+000,  0.10000000000E+001
  0.18233352502E+008,  0.20003784648E+007,  0.19000000000E+002,  0.00000000000E+000,  0.10000000000E+001
  0.18233502502E+008,  0.20003934306E+007,  0.19000000000E+002,  0.00000000000E+000,  0.10000000000E+001
  0.18233652502E+008,  0.20004085701E+007,  0.19000000000E+002,  0.00000000000E+000,  0.10000000000E+001
  0.18233802502E+008,  0.20004238867E+007,  0.19000000000E+002,  0.00000000000E+000,  0.10000000000E+001
  0.18233952502E+008,  0.20004393834E+007,  0.19000000000E+002,  0.00000000000E+000,  0.10000000000E+001
  0.18234102502E+008,  0.20004550628E+007,  0.19000000000E+002,  0.00000000000E+000,  0.10000000000E+001
  0.18234252502E+008,  0.20004709256E+007,  0.19000000000E+002,  0.00000000000E+000,  0.10000000000E+001
  0.18234402502E+008,  0.20004869697E+007,  0.19000000000E+002,  0.00000000000E+000,  0.10000000000E+001
  0.18234552502E+008,  0.20005031926E+007,  0.19000000000E+002,  0.00000000000E+000,  0.10000000000E+001
  0.18234702502E+008,  0.20005195908E+007,  0.19000000000E+002,  0.00000000000E+000,  0.10000000000E+001
  0.18234852502E+008,  0.20005361586E+007,  0.19000000000E+002,  0.00000000000E+000,  0.10000000000E+001
  0.18235002502E+008,  0.20005528913E+007,  0.19000000000E+002,  0.00000000000E+000,  0.10000000000E+001
  0.18235152502E+008,  0.20005697840E+007,  0.19000000000E+002,  0.00000000000E+000,  0.10000000000E+001
  0.18235302502E+008,  0.20005868303E+007,  0.19000000000E+002,  0.00000000000E+000,  0.10000000000E+001
  0.18235452502E+008,  0.20006040253E+007,  0.19000000000E+002,  0.00000000000E+000,  0.10000000000E+001
  0.18235602502E+008,  0.20006213641E+007,  0.19000000000E+002,  0.00000000000E+000,  0.10000000000E+001
  0.18235752502E+008,  0.20006388409E+007,  0.19000000000E+002,  0.00000000000E+000,  0.10000000000E+001
  0.18235902502E+008,  0.20006564512E+007,  0.19000000000E+002,  0.00000000000E+000,  0.10000000000E+001
  0.18236052502E+008,  0.20006741908E+007,  0.19000000000E+002,  0.00000000000E+000,  0.10000000000E+001
  0.18236202502E+008,  0.20006920543E+007,  0.19000000000E+002,  0.00000000000E+000,  0.10000000000E+001
  0.18236352502E+008,  0.20007100380E+007,  0.19000000000E+002,  0.00000000000E+000,  0.10000000000E+001
  0.18236502502E+008,  0.20007281381E+007,  0.19000000000E+002,  0.00000000000E+000,  0.10000000000E+001
  0.18236652502E+008,  0.20007463499E+007,  0.19000000000E+002,  0.00000000000E+000,  0.10000000000E+001
  0.18236802502E+008,  0.20007646700E+007,  0.19000000000E+002,  0.00000000000E+000,  0.10000000000E+001
  0.18236877502E+008,  0.20007738565E+007,  0.19000000000E+002,  0.00000000000E+000,  0.10000000000E+001
  0.18236915003E+008,  0.20007784563E+007,  0.19000000000E+002,  0.00000000000E+000,  0.10000000000E+001
  0.18236933753E+008,  0.20007807579E+007,  0.19000000000E+002,  0.00000000000E+000,  0.10000000000E+001
  0.18237027505E+008,  0.20007923044E+007,  0.19000000000E+002,  0.00000000000E+000,  0.10000000000E+001
  0.18237074381E+008,  0.20007980872E+007,  0.19000000000E+002,  0.00000000000E+000,  0.10000000000E+001
  0.18237097819E+008,  0.20008009809E+007,  0.19000000000E+002,  0.00000000000E+000,  0.10000000000E+001
  0.18237215011E+008,  0.20008154996E+007,  0.19000000000E+002,  0.00000000000E+000,  0.10000000000E+001
  0.18237365011E+008,  0.20008341491E+007,  0.19000000000E+002,  0.00000000000E+000,  0.10000000000E+001
  0.18237440011E+008,  0.20008434886E+007,  0.19000000000E+002,  0.00000000000E+000,  0.10000000000E+001
  0.18237477511E+008,  0.20008481619E+007,  0.19000000000E+002,  0.00000000000E+000,  0.10000000000E+001
  0.18237627511E+008,  0.20008669034E+007,  0.19000000000E+002,  0.00000000000E+000,  0.10000000000E+001
  0.18237777511E+008,  0.20008856908E+007,  0.19000000000E+002,  0.00000000000E+000,  0.10000000000E+001
  0.18237852512E+008,  0.20008950959E+007,  0.19000000000E+002,  0.00000000000E+000,  0.10000000000E+001
  0.18237890012E+008,  0.20008998013E+007,  0.19000000000E+002,  0.00000000000E+000,  0.10000000000E+001
  0.18238040012E+008,  0.20009186679E+007,  0.19000000000E+002,  0.00000000000E+000,  0.10000000000E+001
  0.18238115013E+008,  0.20009281127E+007,  0.19000000000E+002,  0.00000000000E+000,  0.10000000000E+001
  0.18238152513E+008,  0.20009328380E+007,  0.19000000000E+002,  0.00000000000E+000,  0.10000000000E+001
  0.18238302513E+008,  0.20009517894E+007,  0.19000000000E+002,  0.00000000000E+000,  0.10000000000E+001
  0.18238452513E+008,  0.20009707971E+007,  0.19000000000E+002,  0.00000000000E+000,  0.10000000000E+001
  0.18238602513E+008,  0.20009898673E+007,  0.19000000000E+002,  0.00000000000E+000,  0.10000000000E+001
  0.18238677514E+008,  0.20009994188E+007,  0.19000000000E+002,  0.00000000000E+000,  0.10000000000E+001
  0.18238715014E+008,  0.20010041989E+007,  0.19000000000E+002,  0.00000000000E+000,  0.10000000000E+001
  0.18238733765E+008,  0.20010065900E+007,  0.19000000000E+002,  0.00000000000E+000,  0.10000000000E+001
  0.18238827516E+008,  0.20010185735E+007,  0.19000000000E+002,  0.00000000000E+000,  0.10000000000E+001
  0.18238977516E+008,  0.20010378250E+007,  0.19000000000E+002,  0.00000000000E+000,  0.10000000000E+001
  0.18239052517E+008,  0.20010474709E+007,  0.19000000000E+002,  0.00000000000E+000,  0.10000000000E+001
  0.18239090017E+008,  0.20010522989E+007,  0.19000000000E+002,  0.00000000000E+000,  0.10000000000E+001
  0.18239240017E+008,  0.20010716944E+007,  0.19000000000E+002,  0.00000000000E+000,  0.10000000000E+001
  0.18239390017E+008,  0.20010911744E+007,  0.19000000000E+002,  0.00000000000E+000,  0.10000000000E+001
  0.18239540017E+008,  0.20011107390E+007,  0.19000000000E+002,  0.00000000000E+000,  0.10000000000E+001
  0.18239690017E+008,  0.20011303869E+007,  0.19000000000E+002,  0.00000000000E+000,  0.10000000000E+001
  0.18239840017E+008,  0.20011501148E+007,  0.19000000000E+002,  0.00000000000E+000,  0.10000000000E+001
  0.18239915018E+008,  0.20011599981E+007,  0.19000000000E+002,  0.00000000000E+000,  0.10000000000E+001
  0.18239952518E+008,  0.20011649446E+007,  0.19000000000E+002,  0.00000000000E+000,  0.10000000000E+001
  0.18240102518E+008,  0.20011847902E+007,  0.19000000000E+002,  0.00000000000E+000,  0.10000000000E+001
  0.18240252518E+008,  0.20012046792E+007,  0.19000000000E+002,  0.00000000000E+000,  0.10000000000E+001
  0.18240402518E+008,  0.20012246005E+007,  0.19000000000E+002,  0.00000000000E+000,  0.10000000000E+001
  0.18240477519E+008,  0.20012345690E+007,  0.19000000000E+002,  0.00000000000E+000,  0.10000000000E+001
  0.18240515019E+008,  0.20012395553E+007,  0.19000000000E+002,  0.00000000000E+000,  0.10000000000E+001
  0.18240665019E+008,  0.20012595603E+007,  0.19000000000E+002,  0.00000000000E+000,  0.10000000000E+001
  0.18240740020E+008,  0.20012695823E+007,  0.19000000000E+002,  0.00000000000E+000,  0.10000000000E+001
  0.18240777520E+008,  0.20012745989E+007,  0.19000000000E+002,  0.00000000000E+000,  0.10000000000E+001
  0.18240927520E+008,  0.20012947743E+007,  0.19000000000E+002,  0.00000000000E+000,  0.10000000000E+001
  0.18241002521E+008,  0.20013048905E+007,  0.19000000000E+002,  0.00000000000E+000,  0.10000000000E+001
  0.18241040021E+008,  0.20013099557E+007,  0.19000000000E+002,  0.00000000000E+000,  0.10000000000E+001
  0.18241058771E+008,  0.20013124900E+007,  0.19000000000E+002,  0.00000000000E+000,  0.10000000000E+001
  0.18241152523E+008,  0.20013252011E+007,  0.19000000000E+002,  0.00000000000E+000,  0.10000000000E+001
  0.18241302523E+008,  0.20013456056E+007,  0.19000000000E+002,  0.00000000000E+000,  0.10000000000E+001
  0.18241377524E+008,  0.20013558200E+007,  0.19000000000E+002,  0.00000000000E+000,  0.10000000000E+001
  0.18241527524E+008,  0.20013762642E+007,  0.19000000000E+002,  0.00000000000E+000,  0.10000000000E+001
  0.18241602524E+008,  0.20013864864E+007,  0.19000000000E+002,  0.00000000000E+000,  0.10000000000E+001
  0.18241752524E+008,  0.20014069081E+007,  0.19000000000E+002,  0.00000000000E+000,  0.10000000000E+001
  0.18241902524E+008,  0.20014272939E+007,  0.19000000000E+002,  0.00000000000E+000,  0.10000000000E+001
  0.18241977525E+008,  0.20014374767E+007,  0.19000000000E+002,  0.00000000000E+000,  0.10000000000E+001
  0.18242127525E+008,  0.20014577974E+007,  0.19000000000E+002,  0.00000000000E+000,  0.10000000000E+001
  0.18242277525E+008,  0.20014780760E+007,  0.19000000000E+002,  0.00000000000E+000,  0.10000000000E+001
  0.18242427525E+008,  0.20014983206E+007,  0.19000000000E+002,  0.00000000000E+000,  0.10000000000E+001
  0.18242577525E+008,  0.20015185417E+007,  0.19000000000E+002,  0.00000000000E+000,  0.10000000000E+001
  0.18242652525E+008,  0.20015286476E+007,  0.19000000000E+002,  0.00000000000E+000,  0.10000000000E+001
  0.18242690026E+008,  0.20015336996E+007,  0.19000000000E+002,  0.00000000000E+000,  0.10000000000E+001
  0.18242840026E+008,  0.20015538939E+007,  0.19000000000E+002,  0.00000000000E+000,  0.10000000000E+001
  0.18242915026E+008,  0.20015639877E+007,  0.19000000000E+002,  0.00000000000E+000,  0.10000000000E+001
  0.18243065026E+008,  0.20015841550E+007,  0.19000000000E+002,  0.00000000000E+000,  0.10000000000E+001
  0.18243140026E+008,  0.20015942325E+007,  0.19000000000E+002,  0.00000000000E+000,  0.10000000000E+001
  0.18243290026E+008,  0.20016143482E+007,  0.19000000000E+002,  0.00000000000E+000,  0.10000000000E+001
  0.18243440026E+008,  0.20016344093E+007,  0.19000000000E+002,  0.00000000000E+000,  0.10000000000E+001
  0.18243515027E+008,  0.20016444242E+007,  0.19000000000E+002,  0.00000000000E+000,  0.10000000000E+001
  0.18243665027E+008,  0.20016643729E+007,  0.19000000000E+002,  0.00000000000E+000,  0.10000000000E+001
  0.18243815027E+008,  0.20016842280E+007,  0.19000000000E+002,  0.00000000000E+000,  0.10000000000E+001
  0.18243890027E+008,  0.20016941311E+007,  0.19000000000E+002,  0.00000000000E+000,  0.10000000000E+001
  0.18244040027E+008,  0.20017138358E+007,  0.19000000000E+002,  0.00000000000E+000,  0.10000000000E+001
  0.18244190027E+008,  0.20017334400E+007,  0.19000000000E+002,  0.00000000000E+000,  0.10000000000E+001
  0.18244265028E+008,  0.20017432172E+007,  0.19000000000E+002,  0.00000000000E+000,  0.10000000000E+001
  0.18244415028E+008,  0.20017626713E+007,  0.19000000000E+002,  0.00000000000E+000,  0.10000000000E+001
  0.18244490028E+008,  0.20017723731E+007,  0.19000000000E+002,  0.00000000000E+000,  0.10000000000E+001
  0.18244640028E+008,  0.20017916730E+007,  0.19000000000E+002,  0.00000000000E+000,  0.10000000000E+001
  0.18244790028E+008,  0.20018108698E+007,  0.19000000000E+002,  0.00000000000E+000,  0.10000000000E+001
  0.18244940028E+008,  0.20018299681E+007,  0.19000000000E+002,  0.00000000000E+000,  0.10000000000E+001
  0.18245090028E+008,  0.20018489762E+007,  0.19000000000E+002,  0.00000000000E+000,  0.10000000000E+001
  0.18245240028E+008,  0.20018679048E+007,  0.19000000000E+002,  0.00000000000E+000,  0.10000000000E+001
  0.18245390028E+008,  0.20018867662E+007,  0.19000000000E+002,  0.00000000000E+000,  0.10000000000E+001
  0.18245540028E+008,  0.20019055733E+007,  0.19000000000E+002,  0.00000000000E+000,  0.10000000000E+001
  0.18245690028E+008,  0.20019243379E+007,  0.19000000000E+002,  0.00000000000E+000,  0.10000000000E+001
  0.18245840028E+008,  0.20019430717E+007,  0.19000000000E+002,  0.00000000000E+000,  0.10000000000E+001
  0.18245990028E+008,  0.20019617860E+007,  0.19000000000E+002,  0.00000000000E+000,  0.10000000000E+001
  0.18246140028E+008,  0.20019804911E+007,  0.19000000000E+002,  0.00000000000E+000,  0.10000000000E+001
  0.18246290028E+008,  0.20019991965E+007,  0.19000000000E+002,  0.00000000000E+000,  0.10000000000E+001
  0.18246440028E+008,  0.20020179107E+007,  0.19000000000E+002,  0.00000000000E+000,  0.10000000000E+001
  0.18246590028E+008,  0.20020366413E+007,  0.19000000000E+002,  0.00000000000E+000,  0.10000000000E+001
  0.18246740028E+008,  0.20020553952E+007,  0.19000000000E+002,  0.00000000000E+000,  0.10000000000E+001
  0.18246890028E+008,  0.20020741784E+007,  0.19000000000E+002,  0.00000000000E+000,  0.10000000000E+001
  0.18247040028E+008,  0.20020929964E+007,  0.19000000000E+002,  0.00000000000E+000,  0.10000000000E+001
  0.18247190028E+008,  0.20021118539E+007,  0.19000000000E+002,  0.00000000000E+000,  0.10000000000E+001
  0.18247340028E+008,  0.20021307557E+007,  0.19000000000E+002,  0.00000000000E+000,  0.10000000000E+001
  0.18247490028E+008,  0.20021497052E+007,  0.19000000000E+002,  0.00000000000E+000,  0.10000000000E+001
  0.18247640028E+008,  0.20021687060E+007,  0.19000000000E+002,  0.00000000000E+000,  0.10000000000E+001
  0.18247790028E+008,  0.20021877615E+007,  0.19000000000E+002,  0.00000000000E+000,  0.10000000000E+001
  0.18247940028E+008,  0.20022068734E+007,  0.19000000000E+002,  0.00000000000E+000,  0.10000000000E+001
  0.18248090028E+008,  0.20022260448E+007,  0.19000000000E+002,  0.00000000000E+000,  0.10000000000E+001
  0.18248240028E+008,  0.20022452778E+007,  0.19000000000E+002,  0.00000000000E+000,  0.10000000000E+001
  0.18248390028E+008,  0.20022645737E+007,  0.19000000000E+002,  0.00000000000E+000,  0.10000000000E+001
  0.18248540028E+008,  0.20022839343E+007,  0.19000000000E+002,  0.00000000000E+000,  0.10000000000E+001
  0.18248690028E+008,  0.20023033611E+007,  0.19000000000E+002,  0.00000000000E+000,  0.10000000000E+001
  0.18248840028E+008,  0.20023228554E+007,  0.19000000000E+002,  0.00000000000E+000,  0.10000000000E+001
  0.18248990028E+008,  0.20023424176E+007,  0.19000000000E+002,  0.00000000000E+000,  0.10000000000E+001
  0.18249140028E+008,  0.20023620487E+007,  0.19000000000E+002,  0.00000000000E+000,  0.10000000000E+001
  0.18249290028E+008,  0.20023817496E+007,  0.19000000000E+002,  0.00000000000E+000,  0.10000000000E+001
  0.18249440028E+008,  0.20024015209E+007,  0.19000000000E+002,  0.00000000000E+000,  0.10000000000E+001
  0.18249590028E+008,  0.20024213622E+007,  0.19000000000E+002,  0.00000000000E+000,  0.10000000000E+001
  0.18249740028E+008,  0.20024412744E+007,  0.19000000000E+002,  0.00000000000E+000,  0.10000000000E+001
  0.18249890028E+008,  0.20024612574E+007,  0.19000000000E+002,  0.00000000000E+000,  0.10000000000E+001
  0.18250040028E+008,  0.20024813118E+007,  0.19000000000E+002,  0.00000000000E+000,  0.10000000000E+001
  0.18250190028E+008,  0.20025014365E+007,  0.19000000000E+002,  0.00000000000E+000,  0.10000000000E+001
  0.18250340028E+008,  0.20025216321E+007,  0.19000000000E+002,  0.00000000000E+000,  0.10000000000E+001
  0.18250490028E+008,  0.20025418982E+007,  0.19000000000E+002,  0.00000000000E+000,  0.10000000000E+001
  0.18250640028E+008,  0.20025622350E+007,  0.19000000000E+002,  0.00000000000E+000,  0.10000000000E+001
  0.18250790028E+008,  0.20025826412E+007,  0.19000000000E+002,  0.00000000000E+000,  0.10000000000E+001
  0.18250940028E+008,  0.20026031170E+007,  0.19000000000E+002,  0.00000000000E+000,  0.10000000000E+001
  0.18251090028E+008,  0.20026236619E+007,  0.19000000000E+002,  0.00000000000E+000,  0.10000000000E+001
  0.18251240028E+008,  0.20026442758E+007,  0.19000000000E+002,  0.00000000000E+000,  0.10000000000E+001
  0.18251390028E+008,  0.20026649574E+007,  0.19000000000E+002,  0.00000000000E+000,  0.10000000000E+001
  0.18251540028E+008,  0.20026857065E+007,  0.19000000000E+002,  0.00000000000E+000,  0.10000000000E+001
  0.18251690028E+008,  0.20027065226E+007,  0.19000000000E+002,  0.00000000000E+000,  0.10000000000E+001
  0.18251840028E+008,  0.20027274054E+007,  0.19000000000E+002,  0.00000000000E+000,  0.10000000000E+001
  0.18251990028E+008,  0.20027483534E+007,  0.19000000000E+002,  0.00000000000E+000,  0.10000000000E+001
  0.18252140028E+008,  0.20027693663E+007,  0.19000000000E+002,  0.00000000000E+000,  0.10000000000E+001
  0.18252290028E+008,  0.20027904437E+007,  0.19000000000E+002,  0.00000000000E+000,  0.10000000000E+001
  0.18252440028E+008,  0.20028115850E+007,  0.19000000000E+002,  0.00000000000E+000,  0.10000000000E+001
  0.18252590028E+008,  0.20028327887E+007,  0.19000000000E+002,  0.00000000000E+000,  0.10000000000E+001
  0.18252740028E+008,  0.20028540546E+007,  0.19000000000E+002,  0.00000000000E+000,  0.10000000000E+001
  0.18252890028E+008,  0.20028753819E+007,  0.19000000000E+002,  0.00000000000E+000,  0.10000000000E+001
  0.18253040028E+008,  0.20028967702E+007,  0.19000000000E+002,  0.00000000000E+000,  0.10000000000E+001
