"           TIME(S)","              PRES","              TEMP","             SAT_G","             SAT_L"
  0.17592105000E+008,  0.21000000020E+007,  0.19000000000E+002,  0.10000000000E+001,  0.00000000000E+000
  0.17592130000E+008,  0.21000000119E+007,  0.19000000000E+002,  0.10000000000E+001,  0.00000000000E+000
  0.17592255000E+008,  0.21000000671E+007,  0.19000000000E+002,  0.10000000000E+001,  0.00000000000E+000
  0.17592405000E+008,  0.21000001388E+007,  0.19000000000E+002,  0.10000000000E+001,  0.00000000000E+000
  0.17592555000E+008,  0.21000001592E+007,  0.19000000000E+002,  0.10000000000E+001,  0.00000000000E+000
  0.17592705000E+008,  0.21000000634E+007,  0.19000000000E+002,  0.10000000000E+001,  0.00000000000E+000
  0.17592855000E+008,  0.20999997668E+007,  0.19000000000E+002,  0.10000000000E+001,  0.00000000000E+000
  0.17593005000E+008,  0.20999991730E+007,  0.19000000000E+002,  0.10000000000E+001,  0.00000000000E+000
  0.17593155000E+008,  0.20999981548E+007,  0.19000000000E+002,  0.10000000000E+001,  0.00000000000E+000
  0.17593305000E+008,  0.20999965705E+007,  0.19000000000E+002,  0.10000000000E+001,  0.00000000000E+000
  0.17593455000E+008,  0.20999942841E+007,  0.19000000000E+002,  0.10000000000E+001,  0.00000000000E+000
  0.17593605000E+008,  0.20999911711E+007,  0.19000000000E+002,  0.10000000000E+001,  0.00000000000E+000
  0.17593755000E+008,  0.20999871200E+007,  0.19000000000E+002,  0.10000000000E+001,  0.00000000000E+000
  0.17593905000E+008,  0.20999820322E+007,  0.19000000000E+002,  0.10000000000E+001,  0.00000000000E+000
  0.17594055000E+008,  0.20999758210E+007,  0.19000000000E+002,  0.10000000000E+001,  0.00000000000E+000
  0.17594205000E+008,  0.20999684115E+007,  0.19000000000E+002,  0.10000000000E+001,  0.00000000000E+000
  0.17594355000E+008,  0.20999597398E+007,  0.19000000000E+002,  0.10000000000E+001,  0.00000000000E+000
  0.17594505000E+008,  0.20999497524E+007,  0.19000000000E+002,  0.10000000000E+001,  0.00000000000E+000
  0.17594655000E+008,  0.20999384059E+007,  0.19000000000E+002,  0.10000000000E+001,  0.00000000000E+000
  0.17594805000E+008,  0.20999256656E+007,  0.19000000000E+002,  0.10000000000E+001,  0.00000000000E+000
  0.17594955000E+008,  0.20999115052E+007,  0.19000000000E+002,  0.10000000000E+001,  0.00000000000E+000
  0.17595105000E+008,  0.20998959056E+007,  0.19000000000E+002,  0.10000000000E+001,  0.00000000000E+000
  0.17595255000E+008,  0.20998788545E+007,  0.19000000000E+002,  0.10000000000E+001,  0.00000000000E+000
  0.17595405000E+008,  0.20998603451E+007,  0.19000000000E+002,  0.10000000000E+001,  0.00000000000E+000
  0.17595555000E+008,  0.20998418871E+007,  0.19000000000E+002,  0.10000000000E+001,  0.00000000000E+000
  0.17595564375E+008,  0.20998407341E+007,  0.19000000000E+002,  0.10000000000E+001,  0.00000000000E+000
  0.17595611250E+008,  0.20998350368E+007,  0.19000000000E+002,  0.10000000000E+001,  0.00000000000E+000
  0.17595761250E+008,  0.20998179441E+007,  0.19000000000E+002,  0.10000000000E+001,  0.00000000000E+000
  0.17595836251E+008,  0.20998096738E+007,  0.19000000000E+002,  0.10000000000E+001,  0.00000000000E+000
  0.17595986251E+008,  0.20997939915E+007,  0.19000000000E+002,  0.10000000000E+001,  0.00000000000E+000
  0.17596061251E+008,  0.20997864110E+007,  0.19000000000E+002,  0.10000000000E+001,  0.00000000000E+000
  0.17596098752E+008,  0.20997826995E+007,  0.19000000000E+002,  0.10000000000E+001,  0.00000000000E+000
  0.17596248752E+008,  0.20997689576E+007,  0.19000000000E+002,  0.10000000000E+001,  0.00000000000E+000
  0.17596398752E+008,  0.20997557207E+007,  0.19000000000E+002,  0.10000000000E+001,  0.00000000000E+000
  0.17596473752E+008,  0.20997492547E+007,  0.19000000000E+002,  0.10000000000E+001,  0.00000000000E+000
  0.17596511253E+008,  0.20997460639E+007,  0.19000000000E+002,  0.10000000000E+001,  0.00000000000E+000
  0.17596661253E+008,  0.20997347545E+007,  0.19000000000E+002,  0.10000000000E+001,  0.00000000000E+000
  0.17596736253E+008,  0.20997294562E+007,  0.19000000000E+002,  0.10000000000E+001,  0.00000000000E+000
  0.17596773754E+008,  0.20997269110E+007,  0.19000000000E+002,  0.10000000000E+001,  0.00000000000E+000
  0.17596923754E+008,  0.20997191247E+007,  0.19000000000E+002,  0.10000000000E+001,  0.00000000000E+000
  0.17596998754E+008,  0.20997177260E+007,  0.19000000000E+002,  0.10000000000E+001,  0.00000000000E+000
  0.17597036254E+008,  0.20997198288E+007,  0.19000000000E+002,  0.10000000000E+001,  0.00000000000E+000
  0.17597055005E+008,  0.20997211202E+007,  0.19000000000E+002,  0.10000000000E+001,  0.00000000000E+000
  0.17597148757E+008,  0.20997251909E+007,  0.19000000000E+002,  0.10000000000E+001,  0.00000000000E+000
  0.17597298757E+008,  0.20997287186E+007,  0.19000000000E+002,  0.10000000000E+001,  0.00000000000E+000
  0.17597448757E+008,  0.20997306676E+007,  0.19000000000E+002,  0.10000000000E+001,  0.00000000000E+000
  0.17597598757E+008,  0.20997317422E+007,  0.19000000000E+002,  0.10000000000E+001,  0.00000000000E+000
  0.17597748757E+008,  0.20997323191E+007,  0.19000000000E+002,  0.10000000000E+001,  0.00000000000E+000
  0.17597898757E+008,  0.20997326082E+007,  0.19000000000E+002,  0.10000000000E+001,  0.00000000000E+000
  0.17598048757E+008,  0.20997327290E+007,  0.19000000000E+002,  0.10000000000E+001,  0.00000000000E+000
  0.17598198757E+008,  0.20997327505E+007,  0.19000000000E+002,  0.10000000000E+001,  0.00000000000E+000
  0.17598348757E+008,  0.20997327127E+007,  0.19000000000E+002,  0.10000000000E+001,  0.00000000000E+000
  0.17598498757E+008,  0.20997326390E+007,  0.19000000000E+002,  0.10000000000E+001,  0.00000000000E+000
  0.17598648757E+008,  0.20997325431E+007,  0.19000000000E+002,  0.10000000000E+001,  0.00000000000E+000
  0.17598798757E+008,  0.20997324328E+007,  0.19000000000E+002,  0.10000000000E+001,  0.00000000000E+000
  0.17598948757E+008,  0.20997323130E+007,  0.19000000000E+002,  0.10000000000E+001,  0.00000000000E+000
  0.17599098757E+008,  0.20997321864E+007,  0.19000000000E+002,  0.10000000000E+001,  0.00000000000E+000
  0.17599248757E+008,  0.20997320545E+007,  0.19000000000E+002,  0.10000000000E+001,  0.00000000000E+000
  0.17599398757E+008,  0.20997319184E+007,  0.19000000000E+002,  0.10000000000E+001,  0.00000000000E+000
  0.17599548757E+008,  0.20997317787E+007,  0.19000000000E+002,  0.10000000000E+001,  0.00000000000E+000
  0.17599698757E+008,  0.20997316356E+007,  0.19000000000E+002,  0.10000000000E+001,  0.00000000000E+000
  0.17599848757E+008,  0.20997314894E+007,  0.19000000000E+002,  0.10000000000E+001,  0.00000000000E+000
  0.17599998757E+008,  0.20997313403E+007,  0.19000000000E+002,  0.10000000000E+001,  0.00000000000E+000
  0.17600148757E+008,  0.20997311883E+007,  0.19000000000E+002,  0.10000000000E+001,  0.00000000000E+000
  0.17600298757E+008,  0.20997310335E+007,  0.19000000000E+002,  0.10000000000E+001,  0.00000000000E+000
  0.17600448757E+008,  0.20997308759E+007,  0.19000000000E+002,  0.10000000000E+001,  0.00000000000E+000
  0.17600598757E+008,  0.20997307157E+007,  0.19000000000E+002,  0.10000000000E+001,  0.00000000000E+000
  0.17600748757E+008,  0.20997305528E+007,  0.19000000000E+002,  0.10000000000E+001,  0.00000000000E+000
  0.17600898757E+008,  0.20997303873E+007,  0.19000000000E+002,  0.10000000000E+001,  0.00000000000E+000
  0.17601048757E+008,  0.20997302192E+007,  0.19000000000E+002,  0.10000000000E+001,  0.00000000000E+000
  0.17601198757E+008,  0.20997300485E+007,  0.19000000000E+002,  0.10000000000E+001,  0.00000000000E+000
  0.17601348757E+008,  0.20997298754E+007,  0.19000000000E+002,  0.10000000000E+001,  0.00000000000E+000
  0.17601498757E+008,  0.20997296997E+007,  0.19000000000E+002,  0.10000000000E+001,  0.00000000000E+000
  0.17601648757E+008,  0.20997295217E+007,  0.19000000000E+002,  0.10000000000E+001,  0.00000000000E+000
  0.17601798757E+008,  0.20997293412E+007,  0.19000000000E+002,  0.10000000000E+001,  0.00000000000E+000
  0.17601948757E+008,  0.20997291584E+007,  0.19000000000E+002,  0.10000000000E+001,  0.00000000000E+000
  0.17602098757E+008,  0.20997289733E+007,  0.19000000000E+002,  0.10000000000E+001,  0.00000000000E+000
  0.17602248757E+008,  0.20997287859E+007,  0.19000000000E+002,  0.10000000000E+001,  0.00000000000E+000
  0.17602398757E+008,  0.20997285962E+007,  0.19000000000E+002,  0.10000000000E+001,  0.00000000000E+000
  0.17602548757E+008,  0.20997284043E+007,  0.19000000000E+002,  0.10000000000E+001,  0.00000000000E+000
  0.17602698757E+008,  0.20997282102E+007,  0.19000000000E+002,  0.10000000000E+001,  0.00000000000E+000
  0.17602848757E+008,  0.20997280140E+007,  0.19000000000E+002,  0.10000000000E+001,  0.00000000000E+000
  0.17602998757E+008,  0.20997278157E+007,  0.19000000000E+002,  0.10000000000E+001,  0.00000000000E+000
  0.17603148757E+008,  0.20997276153E+007,  0.19000000000E+002,  0.10000000000E+001,  0.00000000000E+000
  0.17603298757E+008,  0.20997274129E+007,  0.19000000000E+002,  0.10000000000E+001,  0.00000000000E+000
  0.17603448757E+008,  0.20997272085E+007,  0.19000000000E+002,  0.10000000000E+001,  0.00000000000E+000
  0.17603598757E+008,  0.20997270021E+007,  0.19000000000E+002,  0.10000000000E+001,  0.00000000000E+000
  0.17603748757E+008,  0.20997267938E+007,  0.19000000000E+002,  0.10000000000E+001,  0.00000000000E+000
  0.17603898757E+008,  0.20997265835E+007,  0.19000000000E+002,  0.10000000000E+001,  0.00000000000E+000
  0.17604048757E+008,  0.20997263714E+007,  0.19000000000E+002,  0.10000000000E+001,  0.00000000000E+000
  0.17604198757E+008,  0.20997261575E+007,  0.19000000000E+002,  0.10000000000E+001,  0.00000000000E+000
  0.17604348757E+008,  0.20997259417E+007,  0.19000000000E+002,  0.10000000000E+001,  0.00000000000E+000
  0.17604498757E+008,  0.20997257242E+007,  0.19000000000E+002,  0.10000000000E+001,  0.00000000000E+000
  0.17604648757E+008,  0.20997255049E+007,  0.19000000000E+002,  0.10000000000E+001,  0.00000000000E+000
  0.17604798757E+008,  0.20997252838E+007,  0.19000000000E+002,  0.10000000000E+001,  0.00000000000E+000
  0.17604948757E+008,  0.20997250611E+007,  0.19000000000E+002,  0.10000000000E+001,  0.00000000000E+000
  0.17605098757E+008,  0.20997248368E+007,  0.19000000000E+002,  0.10000000000E+001,  0.00000000000E+000
  0.17605248757E+008,  0.20997246107E+007,  0.19000000000E+002,  0.10000000000E+001,  0.00000000000E+000
  0.17605398757E+008,  0.20997243831E+007,  0.19000000000E+002,  0.10000000000E+001,  0.00000000000E+000
  0.17605548757E+008,  0.20997241539E+007,  0.19000000000E+002,  0.10000000000E+001,  0.00000000000E+000
  0.17605698757E+008,  0.20997239232E+007,  0.19000000000E+002,  0.10000000000E+001,  0.00000000000E+000
  0.17605848757E+008,  0.20997236909E+007,  0.19000000000E+002,  0.10000000000E+001,  0.00000000000E+000
  0.17605998757E+008,  0.20997234571E+007,  0.19000000000E+002,  0.10000000000E+001,  0.00000000000E+000
  0.17606148757E+008,  0.20997232218E+007,  0.19000000000E+002,  0.10000000000E+001,  0.00000000000E+000
  0.17606298757E+008,  0.20997229851E+007,  0.19000000000E+002,  0.10000000000E+001,  0.00000000000E+000
  0.17606448757E+008,  0.20997227470E+007,  0.19000000000E+002,  0.10000000000E+001,  0.00000000000E+000
  0.17606598757E+008,  0.20997225074E+007,  0.19000000000E+002,  0.10000000000E+001,  0.00000000000E+000
  0.17606748757E+008,  0.20997222665E+007,  0.19000000000E+002,  0.10000000000E+001,  0.00000000000E+000
  0.17606898757E+008,  0.20997220242E+007,  0.19000000000E+002,  0.10000000000E+001,  0.00000000000E+000
  0.17607048757E+008,  0.20997217806E+007,  0.19000000000E+002,  0.10000000000E+001,  0.00000000000E+000
  0.17607198757E+008,  0.20997215357E+007,  0.19000000000E+002,  0.10000000000E+001,  0.00000000000E+000
  0.17607348757E+008,  0.20997212894E+007,  0.19000000000E+002,  0.10000000000E+001,  0.00000000000E+000
  0.17607498757E+008,  0.20997210420E+007,  0.19000000000E+002,  0.10000000000E+001,  0.00000000000E+000
  0.17607648757E+008,  0.20997207932E+007,  0.19000000000E+002,  0.10000000000E+001,  0.00000000000E+000
  0.17607798757E+008,  0.20997205433E+007,  0.19000000000E+002,  0.10000000000E+001,  0.00000000000E+000
  0.17607948757E+008,  0.20997202921E+007,  0.19000000000E+002,  0.10000000000E+001,  0.00000000000E+000
  0.17608098757E+008,  0.20997200398E+007,  0.19000000000E+002,  0.10000000000E+001,  0.00000000000E+000
  0.17608248757E+008,  0.20997197863E+007,  0.19000000000E+002,  0.10000000000E+001,  0.00000000000E+000
  0.17608398757E+008,  0.20997195316E+007,  0.19000000000E+002,  0.10000000000E+001,  0.00000000000E+000
  0.17608548757E+008,  0.20997192758E+007,  0.19000000000E+002,  0.10000000000E+001,  0.00000000000E+000
  0.17608698757E+008,  0.20997190190E+007,  0.19000000000E+002,  0.10000000000E+001,  0.00000000000E+000
  0.17608848757E+008,  0.20997187610E+007,  0.19000000000E+002,  0.10000000000E+001,  0.00000000000E+000
  0.17608998757E+008,  0.20997185020E+007,  0.19000000000E+002,  0.10000000000E+001,  0.00000000000E+000
  0.17609148757E+008,  0.20997182419E+007,  0.19000000000E+002,  0.10000000000E+001,  0.00000000000E+000
  0.17609298757E+008,  0.20997179808E+007,  0.19000000000E+002,  0.10000000000E+001,  0.00000000000E+000
  0.17609448757E+008,  0.20997177187E+007,  0.19000000000E+002,  0.10000000000E+001,  0.00000000000E+000
  0.17609598757E+008,  0.20997174555E+007,  0.19000000000E+002,  0.10000000000E+001,  0.00000000000E+000
  0.17609748757E+008,  0.20997171914E+007,  0.19000000000E+002,  0.10000000000E+001,  0.00000000000E+000
  0.17609898757E+008,  0.20997169264E+007,  0.19000000000E+002,  0.10000000000E+001,  0.00000000000E+000
  0.17610048757E+008,  0.20997166603E+007,  0.19000000000E+002,  0.10000000000E+001,  0.00000000000E+000
  0.17610198757E+008,  0.20997163934E+007,  0.19000000000E+002,  0.10000000000E+001,  0.00000000000E+000
  0.17610348757E+008,  0.20997161255E+007,  0.19000000000E+002,  0.10000000000E+001,  0.00000000000E+000
  0.17610498757E+008,  0.20997158568E+007,  0.19000000000E+002,  0.10000000000E+001,  0.00000000000E+000
  0.17610648757E+008,  0.20997155871E+007,  0.19000000000E+002,  0.10000000000E+001,  0.00000000000E+000
  0.17610798757E+008,  0.20997153166E+007,  0.19000000000E+002,  0.10000000000E+001,  0.00000000000E+000
  0.17610948757E+008,  0.20997150453E+007,  0.19000000000E+002,  0.10000000000E+001,  0.00000000000E+000
  0.17611098757E+008,  0.20997147731E+007,  0.19000000000E+002,  0.10000000000E+001,  0.00000000000E+000
  0.17611248757E+008,  0.20997145000E+007,  0.19000000000E+002,  0.10000000000E+001,  0.00000000000E+000
  0.17611398757E+008,  0.20997142262E+007,  0.19000000000E+002,  0.10000000000E+001,  0.00000000000E+000
  0.17611548757E+008,  0.20997139515E+007,  0.19000000000E+002,  0.10000000000E+001,  0.00000000000E+000
  0.17611698757E+008,  0.20997136761E+007,  0.19000000000E+002,  0.10000000000E+001,  0.00000000000E+000
  0.17611848757E+008,  0.20997133999E+007,  0.19000000000E+002,  0.10000000000E+001,  0.00000000000E+000
  0.17611998757E+008,  0.20997131230E+007,  0.19000000000E+002,  0.10000000000E+001,  0.00000000000E+000
  0.17612148757E+008,  0.20997128453E+007,  0.19000000000E+002,  0.10000000000E+001,  0.00000000000E+000
  0.17612298757E+008,  0.20997125669E+007,  0.19000000000E+002,  0.10000000000E+001,  0.00000000000E+000
  0.17612448757E+008,  0.20997122877E+007,  0.19000000000E+002,  0.10000000000E+001,  0.00000000000E+000
  0.17612598757E+008,  0.20997120079E+007,  0.19000000000E+002,  0.10000000000E+001,  0.00000000000E+000
  0.17612748757E+008,  0.20997117273E+007,  0.19000000000E+002,  0.10000000000E+001,  0.00000000000E+000
  0.17612898757E+008,  0.20997114461E+007,  0.19000000000E+002,  0.10000000000E+001,  0.00000000000E+000
  0.17613048757E+008,  0.20997111642E+007,  0.19000000000E+002,  0.10000000000E+001,  0.00000000000E+000
  0.17613198757E+008,  0.20997108816E+007,  0.19000000000E+002,  0.10000000000E+001,  0.00000000000E+000
  0.17613348757E+008,  0.20997105984E+007,  0.19000000000E+002,  0.10000000000E+001,  0.00000000000E+000
  0.17613498757E+008,  0.20997103146E+007,  0.19000000000E+002,  0.10000000000E+001,  0.00000000000E+000
  0.17613648757E+008,  0.20997100301E+007,  0.19000000000E+002,  0.10000000000E+001,  0.00000000000E+000
  0.17613798757E+008,  0.20997097450E+007,  0.19000000000E+002,  0.10000000000E+001,  0.00000000000E+000
  0.17613948757E+008,  0.20997094593E+007,  0.19000000000E+002,  0.10000000000E+001,  0.00000000000E+000
  0.17614098757E+008,  0.20997091730E+007,  0.19000000000E+002,  0.10000000000E+001,  0.00000000000E+000
  0.17614248757E+008,  0.20997088861E+007,  0.19000000000E+002,  0.10000000000E+001,  0.00000000000E+000
  0.17614398757E+008,  0.20997085987E+007,  0.19000000000E+002,  0.10000000000E+001,  0.00000000000E+000
  0.17614548757E+008,  0.20997083107E+007,  0.19000000000E+002,  0.10000000000E+001,  0.00000000000E+000
  0.17614698757E+008,  0.20997080221E+007,  0.19000000000E+002,  0.10000000000E+001,  0.00000000000E+000
  0.17614848757E+008,  0.20997077330E+007,  0.19000000000E+002,  0.10000000000E+001,  0.00000000000E+000
  0.17614998757E+008,  0.20997074433E+007,  0.19000000000E+002,  0.10000000000E+001,  0.00000000000E+000
  0.17615148757E+008,  0.20997071531E+007,  0.19000000000E+002,  0.10000000000E+001,  0.00000000000E+000
  0.17615298757E+008,  0.20997068624E+007,  0.19000000000E+002,  0.10000000000E+001,  0.00000000000E+000
  0.17615448757E+008,  0.20997065712E+007,  0.19000000000E+002,  0.10000000000E+001,  0.00000000000E+000
  0.17615598757E+008,  0.20997062795E+007,  0.19000000000E+002,  0.10000000000E+001,  0.00000000000E+000
  0.17615748757E+008,  0.20997059873E+007,  0.19000000000E+002,  0.10000000000E+001,  0.00000000000E+000
  0.17615898757E+008,  0.20997056946E+007,  0.19000000000E+002,  0.10000000000E+001,  0.00000000000E+000
  0.17616048757E+008,  0.20997054015E+007,  0.19000000000E+002,  0.10000000000E+001,  0.00000000000E+000
  0.17616198757E+008,  0.20997051079E+007,  0.19000000000E+002,  0.10000000000E+001,  0.00000000000E+000
  0.17616348757E+008,  0.20997048138E+007,  0.19000000000E+002,  0.10000000000E+001,  0.00000000000E+000
  0.17616498757E+008,  0.20997045192E+007,  0.19000000000E+002,  0.10000000000E+001,  0.00000000000E+000
  0.17616648757E+008,  0.20997042243E+007,  0.19000000000E+002,  0.10000000000E+001,  0.00000000000E+000
  0.17616798757E+008,  0.20997039289E+007,  0.19000000000E+002,  0.10000000000E+001,  0.00000000000E+000
  0.17616948757E+008,  0.20997036330E+007,  0.19000000000E+002,  0.10000000000E+001,  0.00000000000E+000
  0.17617098757E+008,  0.20997033367E+007,  0.19000000000E+002,  0.10000000000E+001,  0.00000000000E+000
  0.17617248757E+008,  0.20997030401E+007,  0.19000000000E+002,  0.10000000000E+001,  0.00000000000E+000
  0.17617398757E+008,  0.20997027430E+007,  0.19000000000E+002,  0.10000000000E+001,  0.00000000000E+000
  0.17617548757E+008,  0.20997024455E+007,  0.19000000000E+002,  0.10000000000E+001,  0.00000000000E+000
  0.17617698757E+008,  0.20997021476E+007,  0.19000000000E+002,  0.10000000000E+001,  0.00000000000E+000
  0.17617848757E+008,  0.20997018493E+007,  0.19000000000E+002,  0.10000000000E+001,  0.00000000000E+000
  0.17617998757E+008,  0.20997015507E+007,  0.19000000000E+002,  0.10000000000E+001,  0.00000000000E+000
  0.17618148757E+008,  0.20997012517E+007,  0.19000000000E+002,  0.10000000000E+001,  0.00000000000E+000
  0.17618298757E+008,  0.20997009523E+007,  0.19000000000E+002,  0.10000000000E+001,  0.00000000000E+000
  0.17618448757E+008,  0.20997006526E+007,  0.19000000000E+002,  0.10000000000E+001,  0.00000000000E+000
  0.17618598757E+008,  0.20997003525E+007,  0.19000000000E+002,  0.10000000000E+001,  0.00000000000E+000
  0.17618748757E+008,  0.20997000520E+007,  0.19000000000E+002,  0.10000000000E+001,  0.00000000000E+000
  0.17618898757E+008,  0.20996997512E+007,  0.19000000000E+002,  0.10000000000E+001,  0.00000000000E+000
