"           TIME(S)","              PRES","              TEMP","             SAT_G","             SAT_L"
  0.18228740000E+008,  0.20002057539E+007,  0.19000000000E+002,  0.00000000000E+000,  0.10000000000E+001
  0.18228890000E+008,  0.20009117849E+007,  0.19000000000E+002,  0.00000000000E+000,  0.10000000000E+001
  0.18229040000E+008,  0.20014576474E+007,  0.19000000000E+002,  0.00000000000E+000,  0.10000000000E+001
  0.18229190000E+008,  0.20018915651E+007,  0.19000000000E+002,  0.00000000000E+000,  0.10000000000E+001
  0.18229340000E+008,  0.20022748619E+007,  0.19000000000E+002,  0.00000000000E+000,  0.10000000000E+001
  0.18229415000E+008,  0.20026709495E+007,  0.19000000000E+002,  0.00000000000E+000,  0.10000000000E+001
  0.18229452501E+008,  0.20029185332E+007,  0.19000000000E+002,  0.00000000000E+000,  0.10000000000E+001
  0.18229471251E+008,  0.20031323229E+007,  0.19000000000E+002,  0.00000000000E+000,  0.10000000000E+001
  0.18229480626E+008,  0.20032439734E+007,  0.19000000000E+002,  0.00000000000E+000,  0.10000000000E+001
  0.18229485314E+008,  0.20032932773E+007,  0.19000000000E+002,  0.00000000000E+000,  0.10000000000E+001
  0.18229487658E+008,  0.20033152767E+007,  0.19000000000E+002,  0.00000000000E+000,  0.10000000000E+001
  0.18229488829E+008,  0.20033259722E+007,  0.19000000000E+002,  0.00000000000E+000,  0.10000000000E+001
  0.18229494689E+008,  0.20033624122E+007,  0.19000000000E+002,  0.00000000000E+000,  0.10000000000E+001
  0.18229523987E+008,  0.20033998153E+007,  0.19000000000E+002,  0.00000000000E+000,  0.10000000000E+001
  0.18229670477E+008,  0.20032884255E+007,  0.19000000000E+002,  0.00000000000E+000,  0.10000000000E+001
  0.18229743722E+008,  0.20038402307E+007,  0.19000000000E+002,  0.00000000000E+000,  0.10000000000E+001
  0.18229893722E+008,  0.20052570424E+007,  0.19000000000E+002,  0.00000000000E+000,  0.10000000000E+001
  0.18230043722E+008,  0.20066861952E+007,  0.19000000000E+002,  0.00000000000E+000,  0.10000000000E+001
  0.18230193722E+008,  0.20081335954E+007,  0.19000000000E+002,  0.00000000000E+000,  0.10000000000E+001
  0.18230343722E+008,  0.20096093236E+007,  0.19000000000E+002,  0.00000000000E+000,  0.10000000000E+001
  0.18230493722E+008,  0.20111144747E+007,  0.19000000000E+002,  0.00000000000E+000,  0.10000000000E+001
  0.18230643722E+008,  0.20126455664E+007,  0.19000000000E+002,  0.00000000000E+000,  0.10000000000E+001
  0.18230793722E+008,  0.20141978515E+007,  0.19000000000E+002,  0.00000000000E+000,  0.10000000000E+001
  0.18230943722E+008,  0.20157667805E+007,  0.19000000000E+002,  0.00000000000E+000,  0.10000000000E+001
  0.18231093722E+008,  0.20173484653E+007,  0.19000000000E+002,  0.00000000000E+000,  0.10000000000E+001
  0.18231243722E+008,  0.20189397309E+007,  0.19000000000E+002,  0.00000000000E+000,  0.10000000000E+001
  0.18231393722E+008,  0.20205380331E+007,  0.19000000000E+002,  0.00000000000E+000,  0.10000000000E+001
  0.18231543722E+008,  0.20221413472E+007,  0.19000000000E+002,  0.00000000000E+000,  0.10000000000E+001
  0.18231693722E+008,  0.20237480659E+007,  0.19000000000E+002,  0.00000000000E+000,  0.10000000000E+001
  0.18231843722E+008,  0.20253569126E+007,  0.19000000000E+002,  0.00000000000E+000,  0.10000000000E+001
  0.18231993722E+008,  0.20269668733E+007,  0.19000000000E+002,  0.00000000000E+000,  0.10000000000E+001
  0.18232143722E+008,  0.20285771414E+007,  0.19000000000E+002,  0.00000000000E+000,  0.10000000000E+001
  0.18232293722E+008,  0.20301870746E+007,  0.19000000000E+002,  0.00000000000E+000,  0.10000000000E+001
  0.18232443722E+008,  0.20317961609E+007,  0.19000000000E+002,  0.00000000000E+000,  0.10000000000E+001
  0.18232593722E+008,  0.20334039915E+007,  0.19000000000E+002,  0.00000000000E+000,  0.10000000000E+001
  0.18232743722E+008,  0.20350102396E+007,  0.19000000000E+002,  0.00000000000E+000,  0.10000000000E+001
  0.18232893722E+008,  0.20366146438E+007,  0.19000000000E+002,  0.00000000000E+000,  0.10000000000E+001
  0.18233043722E+008,  0.20382169940E+007,  0.19000000000E+002,  0.00000000000E+000,  0.10000000000E+001
  0.18233193722E+008,  0.20398171217E+007,  0.19000000000E+002,  0.00000000000E+000,  0.10000000000E+001
  0.18233343722E+008,  0.20414148909E+007,  0.19000000000E+002,  0.00000000000E+000,  0.10000000000E+001
  0.18233493722E+008,  0.20430101919E+007,  0.19000000000E+002,  0.00000000000E+000,  0.10000000000E+001
  0.18233643722E+008,  0.20446029357E+007,  0.19000000000E+002,  0.00000000000E+000,  0.10000000000E+001
  0.18233793722E+008,  0.20461930500E+007,  0.19000000000E+002,  0.00000000000E+000,  0.10000000000E+001
  0.18233943722E+008,  0.20477804756E+007,  0.19000000000E+002,  0.00000000000E+000,  0.10000000000E+001
  0.18234093722E+008,  0.20493651641E+007,  0.19000000000E+002,  0.00000000000E+000,  0.10000000000E+001
  0.18234243722E+008,  0.20509470753E+007,  0.19000000000E+002,  0.00000000000E+000,  0.10000000000E+001
  0.18234393722E+008,  0.20525261762E+007,  0.19000000000E+002,  0.00000000000E+000,  0.10000000000E+001
  0.18234543722E+008,  0.20541024388E+007,  0.19000000000E+002,  0.00000000000E+000,  0.10000000000E+001
  0.18234693722E+008,  0.20556758399E+007,  0.19000000000E+002,  0.00000000000E+000,  0.10000000000E+001
  0.18234843722E+008,  0.20572463596E+007,  0.19000000000E+002,  0.00000000000E+000,  0.10000000000E+001
  0.18234993722E+008,  0.20588139808E+007,  0.19000000000E+002,  0.00000000000E+000,  0.10000000000E+001
  0.18235143722E+008,  0.20603786890E+007,  0.19000000000E+002,  0.00000000000E+000,  0.10000000000E+001
  0.18235293722E+008,  0.20619404713E+007,  0.19000000000E+002,  0.00000000000E+000,  0.10000000000E+001
  0.18235443722E+008,  0.20634993165E+007,  0.19000000000E+002,  0.00000000000E+000,  0.10000000000E+001
  0.18235593722E+008,  0.20650552146E+007,  0.19000000000E+002,  0.00000000000E+000,  0.10000000000E+001
  0.18235743722E+008,  0.20666081567E+007,  0.19000000000E+002,  0.00000000000E+000,  0.10000000000E+001
  0.18235893722E+008,  0.20681581347E+007,  0.19000000000E+002,  0.00000000000E+000,  0.10000000000E+001
  0.18236043722E+008,  0.20697051411E+007,  0.19000000000E+002,  0.00000000000E+000,  0.10000000000E+001
  0.18236193722E+008,  0.20712491693E+007,  0.19000000000E+002,  0.00000000000E+000,  0.10000000000E+001
  0.18236343722E+008,  0.20727902130E+007,  0.19000000000E+002,  0.00000000000E+000,  0.10000000000E+001
  0.18236493722E+008,  0.20743282663E+007,  0.19000000000E+002,  0.00000000000E+000,  0.10000000000E+001
  0.18236643722E+008,  0.20758633238E+007,  0.19000000000E+002,  0.00000000000E+000,  0.10000000000E+001
  0.18236793722E+008,  0.20773953805E+007,  0.19000000000E+002,  0.00000000000E+000,  0.10000000000E+001
  0.18236943722E+008,  0.20789244314E+007,  0.19000000000E+002,  0.00000000000E+000,  0.10000000000E+001
  0.18237093722E+008,  0.20804504719E+007,  0.19000000000E+002,  0.00000000000E+000,  0.10000000000E+001
  0.18237243722E+008,  0.20819734978E+007,  0.19000000000E+002,  0.00000000000E+000,  0.10000000000E+001
  0.18237393722E+008,  0.20834935048E+007,  0.19000000000E+002,  0.00000000000E+000,  0.10000000000E+001
  0.18237543722E+008,  0.20850104889E+007,  0.19000000000E+002,  0.00000000000E+000,  0.10000000000E+001
  0.18237693722E+008,  0.20865244464E+007,  0.19000000000E+002,  0.00000000000E+000,  0.10000000000E+001
  0.18237843722E+008,  0.20880353736E+007,  0.19000000000E+002,  0.00000000000E+000,  0.10000000000E+001
  0.18237993722E+008,  0.20895432669E+007,  0.19000000000E+002,  0.00000000000E+000,  0.10000000000E+001
  0.18238143722E+008,  0.20910481230E+007,  0.19000000000E+002,  0.00000000000E+000,  0.10000000000E+001
  0.18238293722E+008,  0.20925499387E+007,  0.19000000000E+002,  0.00000000000E+000,  0.10000000000E+001
  0.18238443722E+008,  0.20940487107E+007,  0.19000000000E+002,  0.00000000000E+000,  0.10000000000E+001
  0.18238593722E+008,  0.20955444362E+007,  0.19000000000E+002,  0.00000000000E+000,  0.10000000000E+001
  0.18238743722E+008,  0.20970371121E+007,  0.19000000000E+002,  0.00000000000E+000,  0.10000000000E+001
  0.18238893722E+008,  0.20985267357E+007,  0.19000000000E+002,  0.00000000000E+000,  0.10000000000E+001
  0.18239043722E+008,  0.21000133043E+007,  0.19000000000E+002,  0.00000000000E+000,  0.10000000000E+001
  0.18239193722E+008,  0.21014968152E+007,  0.19000000000E+002,  0.00000000000E+000,  0.10000000000E+001
  0.18239343722E+008,  0.21029772660E+007,  0.19000000000E+002,  0.00000000000E+000,  0.10000000000E+001
  0.18239493722E+008,  0.21044546543E+007,  0.19000000000E+002,  0.00000000000E+000,  0.10000000000E+001
  0.18239643722E+008,  0.21059289777E+007,  0.19000000000E+002,  0.00000000000E+000,  0.10000000000E+001
  0.18239793722E+008,  0.21074002340E+007,  0.19000000000E+002,  0.00000000000E+000,  0.10000000000E+001
  0.18239943722E+008,  0.21088684211E+007,  0.19000000000E+002,  0.00000000000E+000,  0.10000000000E+001
  0.18240093722E+008,  0.21103335368E+007,  0.19000000000E+002,  0.00000000000E+000,  0.10000000000E+001
  0.18240243722E+008,  0.21117955792E+007,  0.19000000000E+002,  0.00000000000E+000,  0.10000000000E+001
  0.18240393722E+008,  0.21132545465E+007,  0.19000000000E+002,  0.00000000000E+000,  0.10000000000E+001
  0.18240543722E+008,  0.21147104367E+007,  0.19000000000E+002,  0.00000000000E+000,  0.10000000000E+001
  0.18240693722E+008,  0.21161632481E+007,  0.19000000000E+002,  0.00000000000E+000,  0.10000000000E+001
  0.18240843722E+008,  0.21176129792E+007,  0.19000000000E+002,  0.00000000000E+000,  0.10000000000E+001
  0.18240993722E+008,  0.21190596282E+007,  0.19000000000E+002,  0.00000000000E+000,  0.10000000000E+001
  0.18241143722E+008,  0.21205031937E+007,  0.19000000000E+002,  0.00000000000E+000,  0.10000000000E+001
  0.18241293722E+008,  0.21219436742E+007,  0.19000000000E+002,  0.00000000000E+000,  0.10000000000E+001
  0.18241443722E+008,  0.21233810683E+007,  0.19000000000E+002,  0.00000000000E+000,  0.10000000000E+001
  0.18241593722E+008,  0.21248153748E+007,  0.19000000000E+002,  0.00000000000E+000,  0.10000000000E+001
  0.18241743722E+008,  0.21262465925E+007,  0.19000000000E+002,  0.00000000000E+000,  0.10000000000E+001
  0.18241893722E+008,  0.21276747202E+007,  0.19000000000E+002,  0.00000000000E+000,  0.10000000000E+001
  0.18242043722E+008,  0.21290997567E+007,  0.19000000000E+002,  0.00000000000E+000,  0.10000000000E+001
  0.18242193722E+008,  0.21305217011E+007,  0.19000000000E+002,  0.00000000000E+000,  0.10000000000E+001
  0.18242343722E+008,  0.21319405525E+007,  0.19000000000E+002,  0.00000000000E+000,  0.10000000000E+001
  0.18242493722E+008,  0.21333563099E+007,  0.19000000000E+002,  0.00000000000E+000,  0.10000000000E+001
  0.18242643722E+008,  0.21347689725E+007,  0.19000000000E+002,  0.00000000000E+000,  0.10000000000E+001
  0.18242793722E+008,  0.21361785397E+007,  0.19000000000E+002,  0.00000000000E+000,  0.10000000000E+001
  0.18242943722E+008,  0.21375850106E+007,  0.19000000000E+002,  0.00000000000E+000,  0.10000000000E+001
  0.18243093722E+008,  0.21389883847E+007,  0.19000000000E+002,  0.00000000000E+000,  0.10000000000E+001
  0.18243243722E+008,  0.21403886615E+007,  0.19000000000E+002,  0.00000000000E+000,  0.10000000000E+001
  0.18243393722E+008,  0.21417858404E+007,  0.19000000000E+002,  0.00000000000E+000,  0.10000000000E+001
  0.18243543722E+008,  0.21431799210E+007,  0.19000000000E+002,  0.00000000000E+000,  0.10000000000E+001
  0.18243693722E+008,  0.21445709029E+007,  0.19000000000E+002,  0.00000000000E+000,  0.10000000000E+001
  0.18243843722E+008,  0.21459587859E+007,  0.19000000000E+002,  0.00000000000E+000,  0.10000000000E+001
  0.18243993722E+008,  0.21473435696E+007,  0.19000000000E+002,  0.00000000000E+000,  0.10000000000E+001
  0.18244143722E+008,  0.21487252540E+007,  0.19000000000E+002,  0.00000000000E+000,  0.10000000000E+001
  0.18244293722E+008,  0.21501038389E+007,  0.19000000000E+002,  0.00000000000E+000,  0.10000000000E+001
  0.18244443722E+008,  0.21514793241E+007,  0.19000000000E+002,  0.00000000000E+000,  0.10000000000E+001
  0.18244593722E+008,  0.21528517099E+007,  0.19000000000E+002,  0.00000000000E+000,  0.10000000000E+001
  0.18244743722E+008,  0.21542209961E+007,  0.19000000000E+002,  0.00000000000E+000,  0.10000000000E+001
  0.18244893722E+008,  0.21555871828E+007,  0.19000000000E+002,  0.00000000000E+000,  0.10000000000E+001
  0.18245043722E+008,  0.21569502704E+007,  0.19000000000E+002,  0.00000000000E+000,  0.10000000000E+001
  0.18245193722E+008,  0.21583102589E+007,  0.19000000000E+002,  0.00000000000E+000,  0.10000000000E+001
  0.18245343722E+008,  0.21596671487E+007,  0.19000000000E+002,  0.00000000000E+000,  0.10000000000E+001
  0.18245493722E+008,  0.21610209402E+007,  0.19000000000E+002,  0.00000000000E+000,  0.10000000000E+001
  0.18245643722E+008,  0.21623716336E+007,  0.19000000000E+002,  0.00000000000E+000,  0.10000000000E+001
  0.18245793722E+008,  0.21637192296E+007,  0.19000000000E+002,  0.00000000000E+000,  0.10000000000E+001
  0.18245943722E+008,  0.21650637285E+007,  0.19000000000E+002,  0.00000000000E+000,  0.10000000000E+001
  0.18246093722E+008,  0.21664051310E+007,  0.19000000000E+002,  0.00000000000E+000,  0.10000000000E+001
  0.18246243722E+008,  0.21677434376E+007,  0.19000000000E+002,  0.00000000000E+000,  0.10000000000E+001
  0.18246393722E+008,  0.21690786491E+007,  0.19000000000E+002,  0.00000000000E+000,  0.10000000000E+001
  0.18246543722E+008,  0.21704107662E+007,  0.19000000000E+002,  0.00000000000E+000,  0.10000000000E+001
  0.18246693722E+008,  0.21717397896E+007,  0.19000000000E+002,  0.00000000000E+000,  0.10000000000E+001
  0.18246843722E+008,  0.21730657202E+007,  0.19000000000E+002,  0.00000000000E+000,  0.10000000000E+001
  0.18246993722E+008,  0.21743885589E+007,  0.19000000000E+002,  0.00000000000E+000,  0.10000000000E+001
  0.18247143722E+008,  0.21757083067E+007,  0.19000000000E+002,  0.00000000000E+000,  0.10000000000E+001
  0.18247293722E+008,  0.21770249644E+007,  0.19000000000E+002,  0.00000000000E+000,  0.10000000000E+001
  0.18247443722E+008,  0.21783385331E+007,  0.19000000000E+002,  0.00000000000E+000,  0.10000000000E+001
  0.18247593722E+008,  0.21796490141E+007,  0.19000000000E+002,  0.00000000000E+000,  0.10000000000E+001
  0.18247743722E+008,  0.21809564083E+007,  0.19000000000E+002,  0.00000000000E+000,  0.10000000000E+001
  0.18247893722E+008,  0.21822607170E+007,  0.19000000000E+002,  0.00000000000E+000,  0.10000000000E+001
  0.18248043722E+008,  0.21835619414E+007,  0.19000000000E+002,  0.00000000000E+000,  0.10000000000E+001
  0.18248193722E+008,  0.21848600828E+007,  0.19000000000E+002,  0.00000000000E+000,  0.10000000000E+001
  0.18248343722E+008,  0.21861551426E+007,  0.19000000000E+002,  0.00000000000E+000,  0.10000000000E+001
  0.18248493722E+008,  0.21874471222E+007,  0.19000000000E+002,  0.00000000000E+000,  0.10000000000E+001
  0.18248643722E+008,  0.21887360230E+007,  0.19000000000E+002,  0.00000000000E+000,  0.10000000000E+001
  0.18248793722E+008,  0.21900218464E+007,  0.19000000000E+002,  0.00000000000E+000,  0.10000000000E+001
  0.18248943722E+008,  0.21913045941E+007,  0.19000000000E+002,  0.00000000000E+000,  0.10000000000E+001
  0.18249093722E+008,  0.21925842676E+007,  0.19000000000E+002,  0.00000000000E+000,  0.10000000000E+001
  0.18249243722E+008,  0.21938608685E+007,  0.19000000000E+002,  0.00000000000E+000,  0.10000000000E+001
  0.18249393722E+008,  0.21951343986E+007,  0.19000000000E+002,  0.00000000000E+000,  0.10000000000E+001
  0.18249543722E+008,  0.21964048595E+007,  0.19000000000E+002,  0.00000000000E+000,  0.10000000000E+001
  0.18249693722E+008,  0.21976722531E+007,  0.19000000000E+002,  0.00000000000E+000,  0.10000000000E+001
  0.18249843722E+008,  0.21989365810E+007,  0.19000000000E+002,  0.00000000000E+000,  0.10000000000E+001
  0.18249993722E+008,  0.22001978453E+007,  0.19000000000E+002,  0.00000000000E+000,  0.10000000000E+001
  0.18250143722E+008,  0.22014560478E+007,  0.19000000000E+002,  0.00000000000E+000,  0.10000000000E+001
  0.18250293722E+008,  0.22027111904E+007,  0.19000000000E+002,  0.00000000000E+000,  0.10000000000E+001
  0.18250443722E+008,  0.22039632753E+007,  0.19000000000E+002,  0.00000000000E+000,  0.10000000000E+001
  0.18250593722E+008,  0.22052123043E+007,  0.19000000000E+002,  0.00000000000E+000,  0.10000000000E+001
  0.18250743722E+008,  0.22064582796E+007,  0.19000000000E+002,  0.00000000000E+000,  0.10000000000E+001
  0.18250893722E+008,  0.22077012033E+007,  0.19000000000E+002,  0.00000000000E+000,  0.10000000000E+001
  0.18251043722E+008,  0.22089410776E+007,  0.19000000000E+002,  0.00000000000E+000,  0.10000000000E+001
  0.18251193722E+008,  0.22101779047E+007,  0.19000000000E+002,  0.00000000000E+000,  0.10000000000E+001
  0.18251343722E+008,  0.22114116869E+007,  0.19000000000E+002,  0.00000000000E+000,  0.10000000000E+001
  0.18251493722E+008,  0.22126424264E+007,  0.19000000000E+002,  0.00000000000E+000,  0.10000000000E+001
  0.18251643722E+008,  0.22138701256E+007,  0.19000000000E+002,  0.00000000000E+000,  0.10000000000E+001
  0.18251793722E+008,  0.22150947869E+007,  0.19000000000E+002,  0.00000000000E+000,  0.10000000000E+001
  0.18251943722E+008,  0.22163164127E+007,  0.19000000000E+002,  0.00000000000E+000,  0.10000000000E+001
  0.18252093722E+008,  0.22175350055E+007,  0.19000000000E+002,  0.00000000000E+000,  0.10000000000E+001
  0.18252243722E+008,  0.22187505678E+007,  0.19000000000E+002,  0.00000000000E+000,  0.10000000000E+001
  0.18252393722E+008,  0.22199631021E+007,  0.19000000000E+002,  0.00000000000E+000,  0.10000000000E+001
  0.18252543722E+008,  0.22211726110E+007,  0.19000000000E+002,  0.00000000000E+000,  0.10000000000E+001
  0.18252693722E+008,  0.22223790971E+007,  0.19000000000E+002,  0.00000000000E+000,  0.10000000000E+001
  0.18252843722E+008,  0.22235825631E+007,  0.19000000000E+002,  0.00000000000E+000,  0.10000000000E+001
  0.18252993722E+008,  0.22247830117E+007,  0.19000000000E+002,  0.00000000000E+000,  0.10000000000E+001
  0.18253143722E+008,  0.22259804456E+007,  0.19000000000E+002,  0.00000000000E+000,  0.10000000000E+001
  0.18253293722E+008,  0.22271748677E+007,  0.19000000000E+002,  0.00000000000E+000,  0.10000000000E+001
  0.18253443722E+008,  0.22283662807E+007,  0.19000000000E+002,  0.00000000000E+000,  0.10000000000E+001
  0.18253593722E+008,  0.22295546875E+007,  0.19000000000E+002,  0.00000000000E+000,  0.10000000000E+001
  0.18253743722E+008,  0.22307400909E+007,  0.19000000000E+002,  0.00000000000E+000,  0.10000000000E+001
  0.18253893722E+008,  0.22319224940E+007,  0.19000000000E+002,  0.00000000000E+000,  0.10000000000E+001
  0.18254043722E+008,  0.22331018997E+007,  0.19000000000E+002,  0.00000000000E+000,  0.10000000000E+001
  0.18254193722E+008,  0.22342783109E+007,  0.19000000000E+002,  0.00000000000E+000,  0.10000000000E+001
  0.18254343722E+008,  0.22354517307E+007,  0.19000000000E+002,  0.00000000000E+000,  0.10000000000E+001
  0.18254493722E+008,  0.22366221623E+007,  0.19000000000E+002,  0.00000000000E+000,  0.10000000000E+001
  0.18254643722E+008,  0.22377896086E+007,  0.19000000000E+002,  0.00000000000E+000,  0.10000000000E+001
  0.18254793722E+008,  0.22389540729E+007,  0.19000000000E+002,  0.00000000000E+000,  0.10000000000E+001
  0.18254943722E+008,  0.22401155583E+007,  0.19000000000E+002,  0.00000000000E+000,  0.10000000000E+001
  0.18255093722E+008,  0.22412740680E+007,  0.19000000000E+002,  0.00000000000E+000,  0.10000000000E+001
  0.18255243722E+008,  0.22424296053E+007,  0.19000000000E+002,  0.00000000000E+000,  0.10000000000E+001
  0.18255393722E+008,  0.22435821735E+007,  0.19000000000E+002,  0.00000000000E+000,  0.10000000000E+001
  0.18255543722E+008,  0.22447317758E+007,  0.19000000000E+002,  0.00000000000E+000,  0.10000000000E+001
  0.18255693722E+008,  0.22458784157E+007,  0.19000000000E+002,  0.00000000000E+000,  0.10000000000E+001
