"           TIME(S)","              PRES","              TEMP","             SAT_G","             SAT_L"
  0.17593600000E+008,  0.20943098083E+007,  0.19000000000E+002,  0.00000000000E+000,  0.10000000000E+001
  0.17601100000E+008,  0.20733116410E+007,  0.19000000000E+002,  0.00000000000E+000,  0.10000000000E+001
  0.17616100000E+008,  0.20465272939E+007,  0.19000000000E+002,  0.00000000000E+000,  0.10000000000E+001
  0.17631100000E+008,  0.20295801792E+007,  0.19000000000E+002,  0.00000000000E+000,  0.10000000000E+001
  0.17646100000E+008,  0.20189341365E+007,  0.19000000000E+002,  0.00000000000E+000,  0.10000000000E+001
  0.17661100000E+008,  0.20122639800E+007,  0.19000000000E+002,  0.00000000000E+000,  0.10000000000E+001
  0.17676100000E+008,  0.20080899708E+007,  0.19000000000E+002,  0.00000000000E+000,  0.10000000000E+001
  0.17691100000E+008,  0.20054796632E+007,  0.19000000000E+002,  0.00000000000E+000,  0.10000000000E+001
  0.17706100000E+008,  0.20038478417E+007,  0.19000000000E+002,  0.00000000000E+000,  0.10000000000E+001
  0.17721100000E+008,  0.20028279327E+007,  0.19000000000E+002,  0.00000000000E+000,  0.10000000000E+001
  0.17736100000E+008,  0.20021905580E+007,  0.19000000000E+002,  0.00000000000E+000,  0.10000000000E+001
  0.17751100000E+008,  0.20017922728E+007,  0.19000000000E+002,  0.00000000000E+000,  0.10000000000E+001
  0.17766100000E+008,  0.20015434026E+007,  0.19000000000E+002,  0.00000000000E+000,  0.10000000000E+001
  0.17781100000E+008,  0.20013878997E+007,  0.19000000000E+002,  0.00000000000E+000,  0.10000000000E+001
  0.17796100000E+008,  0.20012907377E+007,  0.19000000000E+002,  0.00000000000E+000,  0.10000000000E+001
  0.17811100000E+008,  0.20012300298E+007,  0.19000000000E+002,  0.00000000000E+000,  0.10000000000E+001
  0.17826100000E+008,  0.20011920983E+007,  0.19000000000E+002,  0.00000000000E+000,  0.10000000000E+001
  0.17841100000E+008,  0.20011683984E+007,  0.19000000000E+002,  0.00000000000E+000,  0.10000000000E+001
  0.17856100000E+008,  0.20011535905E+007,  0.19000000000E+002,  0.00000000000E+000,  0.10000000000E+001
  0.17871100000E+008,  0.20011951866E+007,  0.19000000000E+002,  0.00000000000E+000,  0.10000000000E+001
  0.17886100000E+008,  0.20012250947E+007,  0.19000000000E+002,  0.00000000000E+000,  0.10000000000E+001
  0.17901100000E+008,  0.20012431973E+007,  0.19000000000E+002,  0.00000000000E+000,  0.10000000000E+001
  0.17916100000E+008,  0.20012740761E+007,  0.19000000000E+002,  0.00000000000E+000,  0.10000000000E+001
  0.17931100000E+008,  0.20013215707E+007,  0.19000000000E+002,  0.00000000000E+000,  0.10000000000E+001
  0.17946100000E+008,  0.20013497015E+007,  0.19000000000E+002,  0.00000000000E+000,  0.10000000000E+001
  0.17961100000E+008,  0.20013651198E+007,  0.19000000000E+002,  0.00000000000E+000,  0.10000000000E+001
  0.17976100000E+008,  0.20013720926E+007,  0.19000000000E+002,  0.00000000000E+000,  0.10000000000E+001
  0.17991100000E+008,  0.20013744642E+007,  0.19000000000E+002,  0.00000000000E+000,  0.10000000000E+001
  0.18006100000E+008,  0.20013741745E+007,  0.19000000000E+002,  0.00000000000E+000,  0.10000000000E+001
  0.18021100000E+008,  0.20013727934E+007,  0.19000000000E+002,  0.00000000000E+000,  0.10000000000E+001
  0.18036100000E+008,  0.20013712158E+007,  0.19000000000E+002,  0.00000000000E+000,  0.10000000000E+001
  0.18051100000E+008,  0.20013687154E+007,  0.19000000000E+002,  0.00000000000E+000,  0.10000000000E+001
  0.18066100000E+008,  0.20013656984E+007,  0.19000000000E+002,  0.00000000000E+000,  0.10000000000E+001
  0.18081100000E+008,  0.20014066540E+007,  0.19000000000E+002,  0.00000000000E+000,  0.10000000000E+001
  0.18096100000E+008,  0.20014400668E+007,  0.19000000000E+002,  0.00000000000E+000,  0.10000000000E+001
  0.18111100000E+008,  0.20014578739E+007,  0.19000000000E+002,  0.00000000000E+000,  0.10000000000E+001
  0.18126100000E+008,  0.20014854248E+007,  0.19000000000E+002,  0.00000000000E+000,  0.10000000000E+001
  0.18141100000E+008,  0.20015479738E+007,  0.19000000000E+002,  0.00000000000E+000,  0.10000000000E+001
  0.18156100000E+008,  0.20015819102E+007,  0.19000000000E+002,  0.00000000000E+000,  0.10000000000E+001
  0.18171100000E+008,  0.20015974993E+007,  0.19000000000E+002,  0.00000000000E+000,  0.10000000000E+001
  0.18186100000E+008,  0.20016039927E+007,  0.19000000000E+002,  0.00000000000E+000,  0.10000000000E+001
  0.18201100000E+008,  0.20016038642E+007,  0.19000000000E+002,  0.00000000000E+000,  0.10000000000E+001
  0.18216100000E+008,  0.20015993090E+007,  0.19000000000E+002,  0.00000000000E+000,  0.10000000000E+001
  0.18231100000E+008,  0.20015929942E+007,  0.19000000000E+002,  0.00000000000E+000,  0.10000000000E+001
  0.18246100000E+008,  0.20015875516E+007,  0.19000000000E+002,  0.00000000000E+000,  0.10000000000E+001
  0.18261100000E+008,  0.20016538571E+007,  0.19000000000E+002,  0.00000000000E+000,  0.10000000000E+001
  0.18276100000E+008,  0.20020100706E+007,  0.19000000000E+002,  0.00000000000E+000,  0.10000000000E+001
  0.18291100000E+008,  0.20022820107E+007,  0.19000000000E+002,  0.00000000000E+000,  0.10000000000E+001
  0.18306100000E+008,  0.20024835075E+007,  0.19000000000E+002,  0.00000000000E+000,  0.10000000000E+001
  0.18321100000E+008,  0.20026348663E+007,  0.19000000000E+002,  0.00000000000E+000,  0.10000000000E+001
  0.18336100000E+008,  0.20027556089E+007,  0.19000000000E+002,  0.00000000000E+000,  0.10000000000E+001
  0.18351100000E+008,  0.20028637687E+007,  0.19000000000E+002,  0.00000000000E+000,  0.10000000000E+001
  0.18366100000E+008,  0.20029565980E+007,  0.19000000000E+002,  0.00000000000E+000,  0.10000000000E+001
  0.18381100000E+008,  0.20030391912E+007,  0.19000000000E+002,  0.00000000000E+000,  0.10000000000E+001
  0.18396100000E+008,  0.20031278973E+007,  0.19000000000E+002,  0.00000000000E+000,  0.10000000000E+001
  0.18411100000E+008,  0.20032169029E+007,  0.19000000000E+002,  0.00000000000E+000,  0.10000000000E+001
  0.18426100000E+008,  0.20032984140E+007,  0.19000000000E+002,  0.00000000000E+000,  0.10000000000E+001
  0.18441100000E+008,  0.20033759974E+007,  0.19000000000E+002,  0.00000000000E+000,  0.10000000000E+001
  0.18456100000E+008,  0.20034639696E+007,  0.19000000000E+002,  0.00000000000E+000,  0.10000000000E+001
  0.18471100000E+008,  0.20035457032E+007,  0.19000000000E+002,  0.00000000000E+000,  0.10000000000E+001
  0.18486100000E+008,  0.20036224908E+007,  0.19000000000E+002,  0.00000000000E+000,  0.10000000000E+001
  0.18501100000E+008,  0.20037055921E+007,  0.19000000000E+002,  0.00000000000E+000,  0.10000000000E+001
  0.18516100000E+008,  0.20037918258E+007,  0.19000000000E+002,  0.00000000000E+000,  0.10000000000E+001
  0.18531100000E+008,  0.20038724949E+007,  0.19000000000E+002,  0.00000000000E+000,  0.10000000000E+001
  0.18546100000E+008,  0.20039495442E+007,  0.19000000000E+002,  0.00000000000E+000,  0.10000000000E+001
  0.18561100000E+008,  0.20040463488E+007,  0.19000000000E+002,  0.00000000000E+000,  0.10000000000E+001
  0.18576100000E+008,  0.20041355997E+007,  0.19000000000E+002,  0.00000000000E+000,  0.10000000000E+001
  0.18591100000E+008,  0.20042183513E+007,  0.19000000000E+002,  0.00000000000E+000,  0.10000000000E+001
  0.18606100000E+008,  0.20043024386E+007,  0.19000000000E+002,  0.00000000000E+000,  0.10000000000E+001
  0.18621100000E+008,  0.20043880452E+007,  0.19000000000E+002,  0.00000000000E+000,  0.10000000000E+001
  0.18636100000E+008,  0.20044689311E+007,  0.19000000000E+002,  0.00000000000E+000,  0.10000000000E+001
  0.18651100000E+008,  0.20045461843E+007,  0.19000000000E+002,  0.00000000000E+000,  0.10000000000E+001
  0.18666100000E+008,  0.20046570530E+007,  0.19000000000E+002,  0.00000000000E+000,  0.10000000000E+001
  0.18681100000E+008,  0.20047591184E+007,  0.19000000000E+002,  0.00000000000E+000,  0.10000000000E+001
  0.18696100000E+008,  0.20048515496E+007,  0.19000000000E+002,  0.00000000000E+000,  0.10000000000E+001
  0.18698900000E+008,  0.20048702688E+007,  0.19000000000E+002,  0.00000000000E+000,  0.10000000000E+001
  0.18713900000E+008,  0.20049666661E+007,  0.19000000000E+002,  0.00000000000E+000,  0.10000000000E+001
  0.18728900000E+008,  0.20050630901E+007,  0.19000000000E+002,  0.00000000000E+000,  0.10000000000E+001
  0.18743900000E+008,  0.20051566688E+007,  0.19000000000E+002,  0.00000000000E+000,  0.10000000000E+001
  0.18758900000E+008,  0.20052507830E+007,  0.19000000000E+002,  0.00000000000E+000,  0.10000000000E+001
  0.18773900000E+008,  0.20053596682E+007,  0.19000000000E+002,  0.00000000000E+000,  0.10000000000E+001
  0.18788900000E+008,  0.20054592832E+007,  0.19000000000E+002,  0.00000000000E+000,  0.10000000000E+001
  0.18803900000E+008,  0.20055509337E+007,  0.19000000000E+002,  0.00000000000E+000,  0.10000000000E+001
  0.18818900000E+008,  0.20056527904E+007,  0.19000000000E+002,  0.00000000000E+000,  0.10000000000E+001
  0.18833900000E+008,  0.20057600145E+007,  0.19000000000E+002,  0.00000000000E+000,  0.10000000000E+001
  0.18848900000E+008,  0.20058583956E+007,  0.19000000000E+002,  0.00000000000E+000,  0.10000000000E+001
  0.18863900000E+008,  0.20059505781E+007,  0.19000000000E+002,  0.00000000000E+000,  0.10000000000E+001
  0.18878900000E+008,  0.20060731309E+007,  0.19000000000E+002,  0.00000000000E+000,  0.10000000000E+001
  0.18893900000E+008,  0.20061846075E+007,  0.19000000000E+002,  0.00000000000E+000,  0.10000000000E+001
  0.18908900000E+008,  0.20062854466E+007,  0.19000000000E+002,  0.00000000000E+000,  0.10000000000E+001
  0.18923900000E+008,  0.20063978757E+007,  0.19000000000E+002,  0.00000000000E+000,  0.10000000000E+001
  0.18938900000E+008,  0.20065211051E+007,  0.19000000000E+002,  0.00000000000E+000,  0.10000000000E+001
  0.18953900000E+008,  0.20066324295E+007,  0.19000000000E+002,  0.00000000000E+000,  0.10000000000E+001
  0.18968900000E+008,  0.20067336964E+007,  0.19000000000E+002,  0.00000000000E+000,  0.10000000000E+001
  0.18983900000E+008,  0.20068743017E+007,  0.19000000000E+002,  0.00000000000E+000,  0.10000000000E+001
  0.18998900000E+008,  0.20070028399E+007,  0.19000000000E+002,  0.00000000000E+000,  0.10000000000E+001
  0.19013900000E+008,  0.20071170337E+007,  0.19000000000E+002,  0.00000000000E+000,  0.10000000000E+001
  0.19028900000E+008,  0.20072334652E+007,  0.19000000000E+002,  0.00000000000E+000,  0.10000000000E+001
  0.19043900000E+008,  0.20073570052E+007,  0.19000000000E+002,  0.00000000000E+000,  0.10000000000E+001
  0.19058900000E+008,  0.20074695825E+007,  0.19000000000E+002,  0.00000000000E+000,  0.10000000000E+001
  0.19073900000E+008,  0.20075728794E+007,  0.19000000000E+002,  0.00000000000E+000,  0.10000000000E+001
  0.19088900000E+008,  0.20077181846E+007,  0.19000000000E+002,  0.00000000000E+000,  0.10000000000E+001
  0.19103900000E+008,  0.20078552736E+007,  0.19000000000E+002,  0.00000000000E+000,  0.10000000000E+001
  0.19118900000E+008,  0.20079769997E+007,  0.19000000000E+002,  0.00000000000E+000,  0.10000000000E+001
  0.19133900000E+008,  0.20081020766E+007,  0.19000000000E+002,  0.00000000000E+000,  0.10000000000E+001
  0.19148900000E+008,  0.20082424473E+007,  0.19000000000E+002,  0.00000000000E+000,  0.10000000000E+001
  0.19163900000E+008,  0.20083690815E+007,  0.19000000000E+002,  0.00000000000E+000,  0.10000000000E+001
  0.19178900000E+008,  0.20084833219E+007,  0.19000000000E+002,  0.00000000000E+000,  0.10000000000E+001
  0.19193900000E+008,  0.20086386568E+007,  0.19000000000E+002,  0.00000000000E+000,  0.10000000000E+001
  0.19208900000E+008,  0.20087890898E+007,  0.19000000000E+002,  0.00000000000E+000,  0.10000000000E+001
  0.19223900000E+008,  0.20089219775E+007,  0.19000000000E+002,  0.00000000000E+000,  0.10000000000E+001
  0.19238900000E+008,  0.20090523457E+007,  0.19000000000E+002,  0.00000000000E+000,  0.10000000000E+001
  0.19253900000E+008,  0.20091968609E+007,  0.19000000000E+002,  0.00000000000E+000,  0.10000000000E+001
  0.19268900000E+008,  0.20093276463E+007,  0.19000000000E+002,  0.00000000000E+000,  0.10000000000E+001
  0.19283900000E+008,  0.20094458723E+007,  0.19000000000E+002,  0.00000000000E+000,  0.10000000000E+001
  0.19298900000E+008,  0.20096130898E+007,  0.19000000000E+002,  0.00000000000E+000,  0.10000000000E+001
  0.19313900000E+008,  0.20097814863E+007,  0.19000000000E+002,  0.00000000000E+000,  0.10000000000E+001
  0.19328900000E+008,  0.20099292339E+007,  0.19000000000E+002,  0.00000000000E+000,  0.10000000000E+001
  0.19343900000E+008,  0.20100764437E+007,  0.19000000000E+002,  0.00000000000E+000,  0.10000000000E+001
  0.19358900000E+008,  0.20102618083E+007,  0.19000000000E+002,  0.00000000000E+000,  0.10000000000E+001
  0.19373900000E+008,  0.20104264315E+007,  0.19000000000E+002,  0.00000000000E+000,  0.10000000000E+001
  0.19388900000E+008,  0.20105700576E+007,  0.19000000000E+002,  0.00000000000E+000,  0.10000000000E+001
  0.19403900000E+008,  0.20088467583E+007,  0.19000000000E+002,  0.00000000000E+000,  0.10000000000E+001
  0.19418900000E+008,  0.20066372478E+007,  0.19000000000E+002,  0.00000000000E+000,  0.10000000000E+001
  0.19433900000E+008,  0.20049805506E+007,  0.19000000000E+002,  0.00000000000E+000,  0.10000000000E+001
  0.19448900000E+008,  0.20038195088E+007,  0.19000000000E+002,  0.00000000000E+000,  0.10000000000E+001
  0.19463900000E+008,  0.20029580199E+007,  0.19000000000E+002,  0.00000000000E+000,  0.10000000000E+001
  0.19478900000E+008,  0.20023647079E+007,  0.19000000000E+002,  0.00000000000E+000,  0.10000000000E+001
  0.19493900000E+008,  0.20019625674E+007,  0.19000000000E+002,  0.00000000000E+000,  0.10000000000E+001
  0.19508900000E+008,  0.20017411036E+007,  0.19000000000E+002,  0.00000000000E+000,  0.10000000000E+001
  0.19523900000E+008,  0.20016269616E+007,  0.19000000000E+002,  0.00000000000E+000,  0.10000000000E+001
  0.19538900000E+008,  0.20015556695E+007,  0.19000000000E+002,  0.00000000000E+000,  0.10000000000E+001
  0.19553900000E+008,  0.20014998287E+007,  0.19000000000E+002,  0.00000000000E+000,  0.10000000000E+001
  0.19568900000E+008,  0.20013923335E+007,  0.19000000000E+002,  0.00000000000E+000,  0.10000000000E+001
  0.19583900000E+008,  0.20013088338E+007,  0.19000000000E+002,  0.00000000000E+000,  0.10000000000E+001
  0.19598900000E+008,  0.20012506505E+007,  0.19000000000E+002,  0.00000000000E+000,  0.10000000000E+001
  0.19613900000E+008,  0.20012223159E+007,  0.19000000000E+002,  0.00000000000E+000,  0.10000000000E+001
  0.19628900000E+008,  0.20012130566E+007,  0.19000000000E+002,  0.00000000000E+000,  0.10000000000E+001
  0.19643900000E+008,  0.20012083879E+007,  0.19000000000E+002,  0.00000000000E+000,  0.10000000000E+001
  0.19658900000E+008,  0.20012106799E+007,  0.19000000000E+002,  0.00000000000E+000,  0.10000000000E+001
  0.19673900000E+008,  0.20013048261E+007,  0.19000000000E+002,  0.00000000000E+000,  0.10000000000E+001
  0.19688900000E+008,  0.20013829553E+007,  0.19000000000E+002,  0.00000000000E+000,  0.10000000000E+001
  0.19703900000E+008,  0.20014381818E+007,  0.19000000000E+002,  0.00000000000E+000,  0.10000000000E+001
  0.19718900000E+008,  0.20014154093E+007,  0.19000000000E+002,  0.00000000000E+000,  0.10000000000E+001
  0.19733900000E+008,  0.20013347458E+007,  0.19000000000E+002,  0.00000000000E+000,  0.10000000000E+001
  0.19748900000E+008,  0.20012699204E+007,  0.19000000000E+002,  0.00000000000E+000,  0.10000000000E+001
  0.19763900000E+008,  0.20012244080E+007,  0.19000000000E+002,  0.00000000000E+000,  0.10000000000E+001
  0.19778900000E+008,  0.20012029648E+007,  0.19000000000E+002,  0.00000000000E+000,  0.10000000000E+001
  0.19793900000E+008,  0.20011900857E+007,  0.19000000000E+002,  0.00000000000E+000,  0.10000000000E+001
  0.19805800000E+008,  0.20011829161E+007,  0.19000000000E+002,  0.00000000000E+000,  0.10000000000E+001
  0.19820800000E+008,  0.20011744859E+007,  0.19000000000E+002,  0.00000000000E+000,  0.10000000000E+001
  0.19835800000E+008,  0.20011611235E+007,  0.19000000000E+002,  0.00000000000E+000,  0.10000000000E+001
  0.19850800000E+008,  0.20011508957E+007,  0.19000000000E+002,  0.00000000000E+000,  0.10000000000E+001
  0.19865800000E+008,  0.20011437897E+007,  0.19000000000E+002,  0.00000000000E+000,  0.10000000000E+001
  0.19880800000E+008,  0.20012018808E+007,  0.19000000000E+002,  0.00000000000E+000,  0.10000000000E+001
  0.19895800000E+008,  0.20012754670E+007,  0.19000000000E+002,  0.00000000000E+000,  0.10000000000E+001
  0.19910800000E+008,  0.20013306772E+007,  0.19000000000E+002,  0.00000000000E+000,  0.10000000000E+001
  0.19925800000E+008,  0.20013707220E+007,  0.19000000000E+002,  0.00000000000E+000,  0.10000000000E+001
  0.19940800000E+008,  0.20014061439E+007,  0.19000000000E+002,  0.00000000000E+000,  0.10000000000E+001
  0.19955800000E+008,  0.20014314098E+007,  0.19000000000E+002,  0.00000000000E+000,  0.10000000000E+001
  0.19970800000E+008,  0.20014487183E+007,  0.19000000000E+002,  0.00000000000E+000,  0.10000000000E+001
  0.19985800000E+008,  0.20013969234E+007,  0.19000000000E+002,  0.00000000000E+000,  0.10000000000E+001
  0.20000800000E+008,  0.20013182377E+007,  0.19000000000E+002,  0.00000000000E+000,  0.10000000000E+001
  0.20015800000E+008,  0.20012581143E+007,  0.19000000000E+002,  0.00000000000E+000,  0.10000000000E+001
  0.20030800000E+008,  0.20012163382E+007,  0.19000000000E+002,  0.00000000000E+000,  0.10000000000E+001
  0.20045800000E+008,  0.20011879383E+007,  0.19000000000E+002,  0.00000000000E+000,  0.10000000000E+001
  0.20060800000E+008,  0.20011687417E+007,  0.19000000000E+002,  0.00000000000E+000,  0.10000000000E+001
  0.20075800000E+008,  0.20011557857E+007,  0.19000000000E+002,  0.00000000000E+000,  0.10000000000E+001
  0.20090800000E+008,  0.20011932457E+007,  0.19000000000E+002,  0.00000000000E+000,  0.10000000000E+001
  0.20105800000E+008,  0.20012574968E+007,  0.19000000000E+002,  0.00000000000E+000,  0.10000000000E+001
  0.20120800000E+008,  0.20013071151E+007,  0.19000000000E+002,  0.00000000000E+000,  0.10000000000E+001
  0.20135800000E+008,  0.20013370152E+007,  0.19000000000E+002,  0.00000000000E+000,  0.10000000000E+001
  0.20150800000E+008,  0.20012834224E+007,  0.19000000000E+002,  0.00000000000E+000,  0.10000000000E+001
  0.20165800000E+008,  0.20012355900E+007,  0.19000000000E+002,  0.00000000000E+000,  0.10000000000E+001
  0.20180800000E+008,  0.20012013222E+007,  0.19000000000E+002,  0.00000000000E+000,  0.10000000000E+001
  0.20195800000E+008,  0.20011778451E+007,  0.19000000000E+002,  0.00000000000E+000,  0.10000000000E+001
  0.20210800000E+008,  0.20011619420E+007,  0.19000000000E+002,  0.00000000000E+000,  0.10000000000E+001
  0.20225800000E+008,  0.20011512021E+007,  0.19000000000E+002,  0.00000000000E+000,  0.10000000000E+001
  0.20240800000E+008,  0.20011439549E+007,  0.19000000000E+002,  0.00000000000E+000,  0.10000000000E+001
  0.20255800000E+008,  0.20011390658E+007,  0.19000000000E+002,  0.00000000000E+000,  0.10000000000E+001
  0.20270800000E+008,  0.20011357676E+007,  0.19000000000E+002,  0.00000000000E+000,  0.10000000000E+001
  0.20285800000E+008,  0.20011335428E+007,  0.19000000000E+002,  0.00000000000E+000,  0.10000000000E+001
  0.20300800000E+008,  0.20011638943E+007,  0.19000000000E+002,  0.00000000000E+000,  0.10000000000E+001
  0.20315800000E+008,  0.20012258210E+007,  0.19000000000E+002,  0.00000000000E+000,  0.10000000000E+001
  0.20330800000E+008,  0.20012742367E+007,  0.19000000000E+002,  0.00000000000E+000,  0.10000000000E+001
  0.20345800000E+008,  0.20013080572E+007,  0.19000000000E+002,  0.00000000000E+000,  0.10000000000E+001
  0.20360800000E+008,  0.20012673576E+007,  0.19000000000E+002,  0.00000000000E+000,  0.10000000000E+001
  0.20375800000E+008,  0.20012252923E+007,  0.19000000000E+002,  0.00000000000E+000,  0.10000000000E+001
  0.20390800000E+008,  0.20011944700E+007,  0.19000000000E+002,  0.00000000000E+000,  0.10000000000E+001
