"           TIME(S)","              PRES","              TEMP","             SAT_G","             SAT_L"
  0.18228740000E+008,  0.20000289151E+007,  0.19000000000E+002,  0.00000000000E+000,  0.10000000000E+001
  0.18228890000E+008,  0.20001069122E+007,  0.19000000000E+002,  0.00000000000E+000,  0.10000000000E+001
  0.18229040000E+008,  0.20001543420E+007,  0.19000000000E+002,  0.00000000000E+000,  0.10000000000E+001
  0.18229190000E+008,  0.20001883333E+007,  0.19000000000E+002,  0.00000000000E+000,  0.10000000000E+001
  0.18229340000E+008,  0.20002148827E+007,  0.19000000000E+002,  0.00000000000E+000,  0.10000000000E+001
  0.18229490000E+008,  0.20002363037E+007,  0.19000000000E+002,  0.00000000000E+000,  0.10000000000E+001
  0.18229640000E+008,  0.20002538818E+007,  0.19000000000E+002,  0.00000000000E+000,  0.10000000000E+001
  0.18229790000E+008,  0.20002685119E+007,  0.19000000000E+002,  0.00000000000E+000,  0.10000000000E+001
  0.18229940000E+008,  0.20002808660E+007,  0.19000000000E+002,  0.00000000000E+000,  0.10000000000E+001
  0.18230090000E+008,  0.20002914593E+007,  0.19000000000E+002,  0.00000000000E+000,  0.10000000000E+001
  0.18230240000E+008,  0.20003006895E+007,  0.19000000000E+002,  0.00000000000E+000,  0.10000000000E+001
  0.18230390000E+008,  0.20003088634E+007,  0.19000000000E+002,  0.00000000000E+000,  0.10000000000E+001
  0.18230540000E+008,  0.20003162187E+007,  0.19000000000E+002,  0.00000000000E+000,  0.10000000000E+001
  0.18230690000E+008,  0.20003229391E+007,  0.19000000000E+002,  0.00000000000E+000,  0.10000000000E+001
  0.18230840000E+008,  0.20003291666E+007,  0.19000000000E+002,  0.00000000000E+000,  0.10000000000E+001
  0.18230990000E+008,  0.20003350124E+007,  0.19000000000E+002,  0.00000000000E+000,  0.10000000000E+001
  0.18231140000E+008,  0.20003405610E+007,  0.19000000000E+002,  0.00000000000E+000,  0.10000000000E+001
  0.18231290000E+008,  0.20003458795E+007,  0.19000000000E+002,  0.00000000000E+000,  0.10000000000E+001
  0.18231440000E+008,  0.20003510185E+007,  0.19000000000E+002,  0.00000000000E+000,  0.10000000000E+001
  0.18231590000E+008,  0.20003560184E+007,  0.19000000000E+002,  0.00000000000E+000,  0.10000000000E+001
  0.18231740000E+008,  0.20003609096E+007,  0.19000000000E+002,  0.00000000000E+000,  0.10000000000E+001
  0.18231890000E+008,  0.20003657163E+007,  0.19000000000E+002,  0.00000000000E+000,  0.10000000000E+001
  0.18232040000E+008,  0.20003704572E+007,  0.19000000000E+002,  0.00000000000E+000,  0.10000000000E+001
  0.18232190000E+008,  0.20003751464E+007,  0.19000000000E+002,  0.00000000000E+000,  0.10000000000E+001
  0.18232340000E+008,  0.20003797953E+007,  0.19000000000E+002,  0.00000000000E+000,  0.10000000000E+001
  0.18232490000E+008,  0.20003844126E+007,  0.19000000000E+002,  0.00000000000E+000,  0.10000000000E+001
  0.18232640000E+008,  0.20003890048E+007,  0.19000000000E+002,  0.00000000000E+000,  0.10000000000E+001
  0.18232790000E+008,  0.20003935772E+007,  0.19000000000E+002,  0.00000000000E+000,  0.10000000000E+001
  0.18232940000E+008,  0.20003981342E+007,  0.19000000000E+002,  0.00000000000E+000,  0.10000000000E+001
  0.18233090000E+008,  0.20004026784E+007,  0.19000000000E+002,  0.00000000000E+000,  0.10000000000E+001
  0.18233240000E+008,  0.20004072124E+007,  0.19000000000E+002,  0.00000000000E+000,  0.10000000000E+001
  0.18233390000E+008,  0.20004117385E+007,  0.19000000000E+002,  0.00000000000E+000,  0.10000000000E+001
  0.18233540000E+008,  0.20004162578E+007,  0.19000000000E+002,  0.00000000000E+000,  0.10000000000E+001
  0.18233690000E+008,  0.20004207716E+007,  0.19000000000E+002,  0.00000000000E+000,  0.10000000000E+001
  0.18233840000E+008,  0.20004252805E+007,  0.19000000000E+002,  0.00000000000E+000,  0.10000000000E+001
  0.18233990000E+008,  0.20004297858E+007,  0.19000000000E+002,  0.00000000000E+000,  0.10000000000E+001
  0.18234140000E+008,  0.20004342879E+007,  0.19000000000E+002,  0.00000000000E+000,  0.10000000000E+001
  0.18234290000E+008,  0.20004387869E+007,  0.19000000000E+002,  0.00000000000E+000,  0.10000000000E+001
  0.18234440000E+008,  0.20004432833E+007,  0.19000000000E+002,  0.00000000000E+000,  0.10000000000E+001
  0.18234590000E+008,  0.20004477772E+007,  0.19000000000E+002,  0.00000000000E+000,  0.10000000000E+001
  0.18234740000E+008,  0.20004522690E+007,  0.19000000000E+002,  0.00000000000E+000,  0.10000000000E+001
  0.18234890000E+008,  0.20004567584E+007,  0.19000000000E+002,  0.00000000000E+000,  0.10000000000E+001
  0.18235040000E+008,  0.20004612457E+007,  0.19000000000E+002,  0.00000000000E+000,  0.10000000000E+001
  0.18235190000E+008,  0.20004657311E+007,  0.19000000000E+002,  0.00000000000E+000,  0.10000000000E+001
  0.18235340000E+008,  0.20004702148E+007,  0.19000000000E+002,  0.00000000000E+000,  0.10000000000E+001
  0.18235490000E+008,  0.20004746963E+007,  0.19000000000E+002,  0.00000000000E+000,  0.10000000000E+001
  0.18235640000E+008,  0.20004792570E+007,  0.19000000000E+002,  0.00000000000E+000,  0.10000000000E+001
  0.18235715000E+008,  0.20004815044E+007,  0.19000000000E+002,  0.00000000000E+000,  0.10000000000E+001
  0.18235865000E+008,  0.20004858964E+007,  0.19000000000E+002,  0.00000000000E+000,  0.10000000000E+001
  0.18236015000E+008,  0.20004903150E+007,  0.19000000000E+002,  0.00000000000E+000,  0.10000000000E+001
  0.18236165000E+008,  0.20004947575E+007,  0.19000000000E+002,  0.00000000000E+000,  0.10000000000E+001
  0.18236315000E+008,  0.20004992110E+007,  0.19000000000E+002,  0.00000000000E+000,  0.10000000000E+001
  0.18236465000E+008,  0.20005036690E+007,  0.19000000000E+002,  0.00000000000E+000,  0.10000000000E+001
  0.18236615000E+008,  0.20005081291E+007,  0.19000000000E+002,  0.00000000000E+000,  0.10000000000E+001
  0.18236765000E+008,  0.20005125901E+007,  0.19000000000E+002,  0.00000000000E+000,  0.10000000000E+001
  0.18236915000E+008,  0.20005170515E+007,  0.19000000000E+002,  0.00000000000E+000,  0.10000000000E+001
  0.18237065000E+008,  0.20005215125E+007,  0.19000000000E+002,  0.00000000000E+000,  0.10000000000E+001
  0.18237215000E+008,  0.20005259729E+007,  0.19000000000E+002,  0.00000000000E+000,  0.10000000000E+001
  0.18237365000E+008,  0.20005304325E+007,  0.19000000000E+002,  0.00000000000E+000,  0.10000000000E+001
  0.18237515000E+008,  0.20005348912E+007,  0.19000000000E+002,  0.00000000000E+000,  0.10000000000E+001
  0.18237665000E+008,  0.20005393485E+007,  0.19000000000E+002,  0.00000000000E+000,  0.10000000000E+001
  0.18237815000E+008,  0.20005438045E+007,  0.19000000000E+002,  0.00000000000E+000,  0.10000000000E+001
  0.18237965000E+008,  0.20005482591E+007,  0.19000000000E+002,  0.00000000000E+000,  0.10000000000E+001
  0.18238115000E+008,  0.20005527125E+007,  0.19000000000E+002,  0.00000000000E+000,  0.10000000000E+001
  0.18238265000E+008,  0.20005571640E+007,  0.19000000000E+002,  0.00000000000E+000,  0.10000000000E+001
  0.18238415000E+008,  0.20005616140E+007,  0.19000000000E+002,  0.00000000000E+000,  0.10000000000E+001
  0.18238565000E+008,  0.20005660627E+007,  0.19000000000E+002,  0.00000000000E+000,  0.10000000000E+001
  0.18238715000E+008,  0.20005705095E+007,  0.19000000000E+002,  0.00000000000E+000,  0.10000000000E+001
  0.18238865000E+008,  0.20005749550E+007,  0.19000000000E+002,  0.00000000000E+000,  0.10000000000E+001
  0.18239015000E+008,  0.20005793988E+007,  0.19000000000E+002,  0.00000000000E+000,  0.10000000000E+001
  0.18239165000E+008,  0.20005838409E+007,  0.19000000000E+002,  0.00000000000E+000,  0.10000000000E+001
  0.18239315000E+008,  0.20005882815E+007,  0.19000000000E+002,  0.00000000000E+000,  0.10000000000E+001
  0.18239465000E+008,  0.20005927205E+007,  0.19000000000E+002,  0.00000000000E+000,  0.10000000000E+001
  0.18239615000E+008,  0.20005971577E+007,  0.19000000000E+002,  0.00000000000E+000,  0.10000000000E+001
  0.18239765000E+008,  0.20006015931E+007,  0.19000000000E+002,  0.00000000000E+000,  0.10000000000E+001
  0.18239915000E+008,  0.20006060271E+007,  0.19000000000E+002,  0.00000000000E+000,  0.10000000000E+001
  0.18240065000E+008,  0.20006104592E+007,  0.19000000000E+002,  0.00000000000E+000,  0.10000000000E+001
  0.18240215000E+008,  0.20006148898E+007,  0.19000000000E+002,  0.00000000000E+000,  0.10000000000E+001
  0.18240365000E+008,  0.20006193186E+007,  0.19000000000E+002,  0.00000000000E+000,  0.10000000000E+001
  0.18240515000E+008,  0.20006237457E+007,  0.19000000000E+002,  0.00000000000E+000,  0.10000000000E+001
  0.18240665000E+008,  0.20006281713E+007,  0.19000000000E+002,  0.00000000000E+000,  0.10000000000E+001
  0.18240815000E+008,  0.20006325954E+007,  0.19000000000E+002,  0.00000000000E+000,  0.10000000000E+001
  0.18240965000E+008,  0.20006370180E+007,  0.19000000000E+002,  0.00000000000E+000,  0.10000000000E+001
  0.18241115000E+008,  0.20006414390E+007,  0.19000000000E+002,  0.00000000000E+000,  0.10000000000E+001
  0.18241265000E+008,  0.20006458584E+007,  0.19000000000E+002,  0.00000000000E+000,  0.10000000000E+001
  0.18241415000E+008,  0.20006502761E+007,  0.19000000000E+002,  0.00000000000E+000,  0.10000000000E+001
  0.18241565000E+008,  0.20006546924E+007,  0.19000000000E+002,  0.00000000000E+000,  0.10000000000E+001
  0.18241715000E+008,  0.20006591068E+007,  0.19000000000E+002,  0.00000000000E+000,  0.10000000000E+001
  0.18241865000E+008,  0.20006635194E+007,  0.19000000000E+002,  0.00000000000E+000,  0.10000000000E+001
  0.18242015000E+008,  0.20006679303E+007,  0.19000000000E+002,  0.00000000000E+000,  0.10000000000E+001
  0.18242165000E+008,  0.20006723396E+007,  0.19000000000E+002,  0.00000000000E+000,  0.10000000000E+001
  0.18242315000E+008,  0.20006767472E+007,  0.19000000000E+002,  0.00000000000E+000,  0.10000000000E+001
  0.18242465000E+008,  0.20006811529E+007,  0.19000000000E+002,  0.00000000000E+000,  0.10000000000E+001
  0.18242615000E+008,  0.20006855569E+007,  0.19000000000E+002,  0.00000000000E+000,  0.10000000000E+001
  0.18242765000E+008,  0.20006899592E+007,  0.19000000000E+002,  0.00000000000E+000,  0.10000000000E+001
  0.18242915000E+008,  0.20006943599E+007,  0.19000000000E+002,  0.00000000000E+000,  0.10000000000E+001
  0.18243065000E+008,  0.20006987589E+007,  0.19000000000E+002,  0.00000000000E+000,  0.10000000000E+001
  0.18243215000E+008,  0.20007031559E+007,  0.19000000000E+002,  0.00000000000E+000,  0.10000000000E+001
  0.18243365000E+008,  0.20007075512E+007,  0.19000000000E+002,  0.00000000000E+000,  0.10000000000E+001
  0.18243515000E+008,  0.20007119446E+007,  0.19000000000E+002,  0.00000000000E+000,  0.10000000000E+001
  0.18243665000E+008,  0.20007163352E+007,  0.19000000000E+002,  0.00000000000E+000,  0.10000000000E+001
  0.18243815000E+008,  0.20007207236E+007,  0.19000000000E+002,  0.00000000000E+000,  0.10000000000E+001
  0.18243965000E+008,  0.20007251092E+007,  0.19000000000E+002,  0.00000000000E+000,  0.10000000000E+001
  0.18244115000E+008,  0.20007294926E+007,  0.19000000000E+002,  0.00000000000E+000,  0.10000000000E+001
  0.18244265000E+008,  0.20007338738E+007,  0.19000000000E+002,  0.00000000000E+000,  0.10000000000E+001
  0.18244415000E+008,  0.20007382531E+007,  0.19000000000E+002,  0.00000000000E+000,  0.10000000000E+001
  0.18244565000E+008,  0.20007426304E+007,  0.19000000000E+002,  0.00000000000E+000,  0.10000000000E+001
  0.18244715000E+008,  0.20007470058E+007,  0.19000000000E+002,  0.00000000000E+000,  0.10000000000E+001
  0.18244865000E+008,  0.20007513792E+007,  0.19000000000E+002,  0.00000000000E+000,  0.10000000000E+001
  0.18245015000E+008,  0.20007557512E+007,  0.19000000000E+002,  0.00000000000E+000,  0.10000000000E+001
  0.18245165000E+008,  0.20007601206E+007,  0.19000000000E+002,  0.00000000000E+000,  0.10000000000E+001
  0.18245315000E+008,  0.20007644869E+007,  0.19000000000E+002,  0.00000000000E+000,  0.10000000000E+001
  0.18245465000E+008,  0.20007688510E+007,  0.19000000000E+002,  0.00000000000E+000,  0.10000000000E+001
  0.18245615000E+008,  0.20007732130E+007,  0.19000000000E+002,  0.00000000000E+000,  0.10000000000E+001
  0.18245765000E+008,  0.20007775729E+007,  0.19000000000E+002,  0.00000000000E+000,  0.10000000000E+001
  0.18245915000E+008,  0.20007819311E+007,  0.19000000000E+002,  0.00000000000E+000,  0.10000000000E+001
  0.18246065000E+008,  0.20007862877E+007,  0.19000000000E+002,  0.00000000000E+000,  0.10000000000E+001
  0.18246215000E+008,  0.20007906426E+007,  0.19000000000E+002,  0.00000000000E+000,  0.10000000000E+001
  0.18246365000E+008,  0.20007949961E+007,  0.19000000000E+002,  0.00000000000E+000,  0.10000000000E+001
  0.18246515000E+008,  0.20007993481E+007,  0.19000000000E+002,  0.00000000000E+000,  0.10000000000E+001
  0.18246665000E+008,  0.20008036987E+007,  0.19000000000E+002,  0.00000000000E+000,  0.10000000000E+001
  0.18246815000E+008,  0.20008080479E+007,  0.19000000000E+002,  0.00000000000E+000,  0.10000000000E+001
  0.18246965000E+008,  0.20008123954E+007,  0.19000000000E+002,  0.00000000000E+000,  0.10000000000E+001
  0.18247115000E+008,  0.20008167412E+007,  0.19000000000E+002,  0.00000000000E+000,  0.10000000000E+001
  0.18247265000E+008,  0.20008210853E+007,  0.19000000000E+002,  0.00000000000E+000,  0.10000000000E+001
  0.18247415000E+008,  0.20008254276E+007,  0.19000000000E+002,  0.00000000000E+000,  0.10000000000E+001
  0.18247565000E+008,  0.20008297681E+007,  0.19000000000E+002,  0.00000000000E+000,  0.10000000000E+001
  0.18247715000E+008,  0.20008341064E+007,  0.19000000000E+002,  0.00000000000E+000,  0.10000000000E+001
  0.18247865000E+008,  0.20008384427E+007,  0.19000000000E+002,  0.00000000000E+000,  0.10000000000E+001
  0.18248015000E+008,  0.20008427770E+007,  0.19000000000E+002,  0.00000000000E+000,  0.10000000000E+001
  0.18248165000E+008,  0.20008471096E+007,  0.19000000000E+002,  0.00000000000E+000,  0.10000000000E+001
  0.18248315000E+008,  0.20008514400E+007,  0.19000000000E+002,  0.00000000000E+000,  0.10000000000E+001
  0.18248465000E+008,  0.20008557687E+007,  0.19000000000E+002,  0.00000000000E+000,  0.10000000000E+001
  0.18248615000E+008,  0.20008600957E+007,  0.19000000000E+002,  0.00000000000E+000,  0.10000000000E+001
  0.18248765000E+008,  0.20008644207E+007,  0.19000000000E+002,  0.00000000000E+000,  0.10000000000E+001
  0.18248915000E+008,  0.20008687440E+007,  0.19000000000E+002,  0.00000000000E+000,  0.10000000000E+001
  0.18249065000E+008,  0.20008730653E+007,  0.19000000000E+002,  0.00000000000E+000,  0.10000000000E+001
  0.18249215000E+008,  0.20008773846E+007,  0.19000000000E+002,  0.00000000000E+000,  0.10000000000E+001
  0.18249365000E+008,  0.20008817021E+007,  0.19000000000E+002,  0.00000000000E+000,  0.10000000000E+001
  0.18249515000E+008,  0.20008860175E+007,  0.19000000000E+002,  0.00000000000E+000,  0.10000000000E+001
  0.18249665000E+008,  0.20008903311E+007,  0.19000000000E+002,  0.00000000000E+000,  0.10000000000E+001
  0.18249815000E+008,  0.20008946423E+007,  0.19000000000E+002,  0.00000000000E+000,  0.10000000000E+001
  0.18249965000E+008,  0.20008989515E+007,  0.19000000000E+002,  0.00000000000E+000,  0.10000000000E+001
  0.18250115000E+008,  0.20009032585E+007,  0.19000000000E+002,  0.00000000000E+000,  0.10000000000E+001
  0.18250265000E+008,  0.20009075634E+007,  0.19000000000E+002,  0.00000000000E+000,  0.10000000000E+001
  0.18250415000E+008,  0.20009118664E+007,  0.19000000000E+002,  0.00000000000E+000,  0.10000000000E+001
  0.18250565000E+008,  0.20009162646E+007,  0.19000000000E+002,  0.00000000000E+000,  0.10000000000E+001
  0.18250640001E+008,  0.20009184103E+007,  0.19000000000E+002,  0.00000000000E+000,  0.10000000000E+001
  0.18250790001E+008,  0.20009226372E+007,  0.19000000000E+002,  0.00000000000E+000,  0.10000000000E+001
  0.18250940001E+008,  0.20009269455E+007,  0.19000000000E+002,  0.00000000000E+000,  0.10000000000E+001
  0.18251015001E+008,  0.20009290844E+007,  0.19000000000E+002,  0.00000000000E+000,  0.10000000000E+001
  0.18251165001E+008,  0.20009332970E+007,  0.19000000000E+002,  0.00000000000E+000,  0.10000000000E+001
  0.18251315001E+008,  0.20009375236E+007,  0.19000000000E+002,  0.00000000000E+000,  0.10000000000E+001
  0.18251465001E+008,  0.20009417692E+007,  0.19000000000E+002,  0.00000000000E+000,  0.10000000000E+001
  0.18251615001E+008,  0.20009460266E+007,  0.19000000000E+002,  0.00000000000E+000,  0.10000000000E+001
  0.18251765001E+008,  0.20009503182E+007,  0.19000000000E+002,  0.00000000000E+000,  0.10000000000E+001
  0.18251840002E+008,  0.20009525486E+007,  0.19000000000E+002,  0.00000000000E+000,  0.10000000000E+001
  0.18251990002E+008,  0.20009567684E+007,  0.19000000000E+002,  0.00000000000E+000,  0.10000000000E+001
  0.18252140002E+008,  0.20009609630E+007,  0.19000000000E+002,  0.00000000000E+000,  0.10000000000E+001
  0.18252290002E+008,  0.20009651791E+007,  0.19000000000E+002,  0.00000000000E+000,  0.10000000000E+001
  0.18252440002E+008,  0.20009694133E+007,  0.19000000000E+002,  0.00000000000E+000,  0.10000000000E+001
  0.18252590002E+008,  0.20009736582E+007,  0.19000000000E+002,  0.00000000000E+000,  0.10000000000E+001
  0.18252740002E+008,  0.20009779092E+007,  0.19000000000E+002,  0.00000000000E+000,  0.10000000000E+001
  0.18252890002E+008,  0.20009821634E+007,  0.19000000000E+002,  0.00000000000E+000,  0.10000000000E+001
  0.18253040002E+008,  0.20009864168E+007,  0.19000000000E+002,  0.00000000000E+000,  0.10000000000E+001
  0.18253190002E+008,  0.20009906688E+007,  0.19000000000E+002,  0.00000000000E+000,  0.10000000000E+001
  0.18253340002E+008,  0.20009949196E+007,  0.19000000000E+002,  0.00000000000E+000,  0.10000000000E+001
  0.18253490002E+008,  0.20009991671E+007,  0.19000000000E+002,  0.00000000000E+000,  0.10000000000E+001
  0.18253640002E+008,  0.20010034123E+007,  0.19000000000E+002,  0.00000000000E+000,  0.10000000000E+001
  0.18253790002E+008,  0.20010076538E+007,  0.19000000000E+002,  0.00000000000E+000,  0.10000000000E+001
  0.18253940002E+008,  0.20010118923E+007,  0.19000000000E+002,  0.00000000000E+000,  0.10000000000E+001
  0.18254090002E+008,  0.20010161281E+007,  0.19000000000E+002,  0.00000000000E+000,  0.10000000000E+001
  0.18254240002E+008,  0.20010203603E+007,  0.19000000000E+002,  0.00000000000E+000,  0.10000000000E+001
  0.18254390002E+008,  0.20010245868E+007,  0.19000000000E+002,  0.00000000000E+000,  0.10000000000E+001
  0.18254540002E+008,  0.20010288088E+007,  0.19000000000E+002,  0.00000000000E+000,  0.10000000000E+001
  0.18254690002E+008,  0.20010330273E+007,  0.19000000000E+002,  0.00000000000E+000,  0.10000000000E+001
  0.18254840002E+008,  0.20010372425E+007,  0.19000000000E+002,  0.00000000000E+000,  0.10000000000E+001
  0.18254990002E+008,  0.20010414549E+007,  0.19000000000E+002,  0.00000000000E+000,  0.10000000000E+001
  0.18255140002E+008,  0.20010456645E+007,  0.19000000000E+002,  0.00000000000E+000,  0.10000000000E+001
  0.18255290002E+008,  0.20010498714E+007,  0.19000000000E+002,  0.00000000000E+000,  0.10000000000E+001
  0.18255440002E+008,  0.20010540758E+007,  0.19000000000E+002,  0.00000000000E+000,  0.10000000000E+001
  0.18255590002E+008,  0.20010582778E+007,  0.19000000000E+002,  0.00000000000E+000,  0.10000000000E+001
  0.18255740002E+008,  0.20010624773E+007,  0.19000000000E+002,  0.00000000000E+000,  0.10000000000E+001
  0.18255890002E+008,  0.20010666745E+007,  0.19000000000E+002,  0.00000000000E+000,  0.10000000000E+001
  0.18256040002E+008,  0.20010708694E+007,  0.19000000000E+002,  0.00000000000E+000,  0.10000000000E+001
  0.18256190002E+008,  0.20010750620E+007,  0.19000000000E+002,  0.00000000000E+000,  0.10000000000E+001
  0.18256340002E+008,  0.20010792523E+007,  0.19000000000E+002,  0.00000000000E+000,  0.10000000000E+001
  0.18256490002E+008,  0.20010834403E+007,  0.19000000000E+002,  0.00000000000E+000,  0.10000000000E+001
  0.18256640002E+008,  0.20010876226E+007,  0.19000000000E+002,  0.00000000000E+000,  0.10000000000E+001
