"           TIME(S)","              PRES","              TEMP","             SAT_G","             SAT_L"
  0.19073486328E-005,  0.20000000000E+007,  0.19000000000E+002,  0.00000000000E+000,  0.10000000000E+001
  0.11444091797E-004,  0.20000000000E+007,  0.19000000000E+002,  0.00000000000E+000,  0.10000000000E+001
  0.59127807617E-004,  0.20000000000E+007,  0.19000000000E+002,  0.00000000000E+000,  0.10000000000E+001
  0.29754638672E-003,  0.20000000000E+007,  0.19000000000E+002,  0.00000000000E+000,  0.10000000000E+001
  0.14896392822E-002,  0.20000000000E+007,  0.19000000000E+002,  0.00000000000E+000,  0.10000000000E+001
  0.74501037598E-002,  0.20000000000E+007,  0.19000000000E+002,  0.00000000000E+000,  0.10000000000E+001
  0.37252426147E-001,  0.20000000000E+007,  0.19000000000E+002,  0.00000000000E+000,  0.10000000000E+001
  0.18626403809E+000,  0.20000000000E+007,  0.19000000000E+002,  0.00000000000E+000,  0.10000000000E+001
  0.93132209778E+000,  0.19999999921E+007,  0.19000000000E+002,  0.00000000000E+000,  0.10000000000E+001
  0.29313220978E+001,  0.19999813417E+007,  0.19000000000E+002,  0.00000000000E+000,  0.10000000000E+001
  0.49313220978E+001,  0.19998868870E+007,  0.19000000000E+002,  0.00000000000E+000,  0.10000000000E+001
  0.69313220978E+001,  0.19996165927E+007,  0.19000000000E+002,  0.00000000000E+000,  0.10000000000E+001
  0.71813220978E+001,  0.19995798525E+007,  0.19000000000E+002,  0.00000000000E+000,  0.10000000000E+001
  0.84313220978E+001,  0.19992911371E+007,  0.19000000000E+002,  0.00000000000E+000,  0.10000000000E+001
  0.85094471647E+001,  0.19992726745E+007,  0.19000000000E+002,  0.00000000000E+000,  0.10000000000E+001
  0.89000724996E+001,  0.19991689057E+007,  0.19000000000E+002,  0.00000000000E+000,  0.10000000000E+001
  0.90953853672E+001,  0.19991140285E+007,  0.19000000000E+002,  0.00000000000E+000,  0.10000000000E+001
  0.91930419052E+001,  0.19990858255E+007,  0.19000000000E+002,  0.00000000000E+000,  0.10000000000E+001
  0.96813245951E+001,  0.19989235876E+007,  0.19000000000E+002,  0.00000000000E+000,  0.10000000000E+001
  0.11681324595E+002,  0.19977650425E+007,  0.19000000000E+002,  0.00000000000E+000,  0.10000000000E+001
  0.13681324595E+002,  0.19960046562E+007,  0.19000000000E+002,  0.00000000000E+000,  0.10000000000E+001
  0.15681324595E+002,  0.19935761258E+007,  0.19000000000E+002,  0.00000000000E+000,  0.10000000000E+001
  0.17681324595E+002,  0.19904553182E+007,  0.19000000000E+002,  0.00000000000E+000,  0.10000000000E+001
  0.19681324595E+002,  0.19866536940E+007,  0.19000000000E+002,  0.00000000000E+000,  0.10000000000E+001
  0.21681324595E+002,  0.19822089317E+007,  0.19000000000E+002,  0.00000000000E+000,  0.10000000000E+001
  0.23681324595E+002,  0.19771760536E+007,  0.19000000000E+002,  0.00000000000E+000,  0.10000000000E+001
  0.25681324595E+002,  0.19716203925E+007,  0.19000000000E+002,  0.00000000000E+000,  0.10000000000E+001
  0.26681324936E+002,  0.19687205003E+007,  0.19000000000E+002,  0.00000000000E+000,  0.10000000000E+001
  0.28681324936E+002,  0.19625043174E+007,  0.19000000000E+002,  0.00000000000E+000,  0.10000000000E+001
  0.30681324936E+002,  0.19559432813E+007,  0.19000000000E+002,  0.00000000000E+000,  0.10000000000E+001
  0.32681324936E+002,  0.19491059988E+007,  0.19000000000E+002,  0.00000000000E+000,  0.10000000000E+001
  0.34681324936E+002,  0.19420562311E+007,  0.19000000000E+002,  0.00000000000E+000,  0.10000000000E+001
  0.36681324936E+002,  0.19348515833E+007,  0.19000000000E+002,  0.00000000000E+000,  0.10000000000E+001
  0.38681324936E+002,  0.19275428445E+007,  0.19000000000E+002,  0.00000000000E+000,  0.10000000000E+001
  0.40681324936E+002,  0.19201739641E+007,  0.19000000000E+002,  0.00000000000E+000,  0.10000000000E+001
  0.42681324936E+002,  0.19127825351E+007,  0.19000000000E+002,  0.00000000000E+000,  0.10000000000E+001
  0.44681324936E+002,  0.19054005669E+007,  0.19000000000E+002,  0.00000000000E+000,  0.10000000000E+001
  0.46681324936E+002,  0.18980552538E+007,  0.19000000000E+002,  0.00000000000E+000,  0.10000000000E+001
  0.48681324936E+002,  0.18907695970E+007,  0.19000000000E+002,  0.00000000000E+000,  0.10000000000E+001
  0.50681324936E+002,  0.18835628484E+007,  0.19000000000E+002,  0.00000000000E+000,  0.10000000000E+001
  0.52681324936E+002,  0.18764508149E+007,  0.19000000000E+002,  0.00000000000E+000,  0.10000000000E+001
  0.54681324936E+002,  0.18694460900E+007,  0.19000000000E+002,  0.00000000000E+000,  0.10000000000E+001
  0.56681324936E+002,  0.18625582805E+007,  0.19000000000E+002,  0.00000000000E+000,  0.10000000000E+001
  0.58681324936E+002,  0.18557942518E+007,  0.19000000000E+002,  0.00000000000E+000,  0.10000000000E+001
  0.58931324936E+002,  0.18549507001E+007,  0.19000000000E+002,  0.00000000000E+000,  0.10000000000E+001
  0.60181324936E+002,  0.18507828007E+007,  0.19000000000E+002,  0.00000000000E+000,  0.10000000000E+001
  0.62181324936E+002,  0.18442444602E+007,  0.19000000000E+002,  0.00000000000E+000,  0.10000000000E+001
  0.63181325727E+002,  0.18410080720E+007,  0.19000000000E+002,  0.00000000000E+000,  0.10000000000E+001
  0.63681326790E+002,  0.18393980880E+007,  0.19000000000E+002,  0.00000000000E+000,  0.10000000000E+001
  0.65681326790E+002,  0.18330888047E+007,  0.19000000000E+002,  0.00000000000E+000,  0.10000000000E+001
  0.67681326790E+002,  0.18269082376E+007,  0.19000000000E+002,  0.00000000000E+000,  0.10000000000E+001
  0.69681326790E+002,  0.18208536817E+007,  0.19000000000E+002,  0.00000000000E+000,  0.10000000000E+001
  0.71681326790E+002,  0.18149221312E+007,  0.19000000000E+002,  0.00000000000E+000,  0.10000000000E+001
  0.73681326790E+002,  0.18091105421E+007,  0.19000000000E+002,  0.00000000000E+000,  0.10000000000E+001
  0.74681326989E+002,  0.18062343674E+007,  0.19000000000E+002,  0.00000000000E+000,  0.10000000000E+001
  0.75181327102E+002,  0.18048036381E+007,  0.19000000000E+002,  0.00000000000E+000,  0.10000000000E+001
  0.75431327279E+002,  0.18040901067E+007,  0.19000000000E+002,  0.00000000000E+000,  0.10000000000E+001
  0.76681328164E+002,  0.18005675488E+007,  0.19000000000E+002,  0.00000000000E+000,  0.10000000000E+001
  0.78681328164E+002,  0.17950441907E+007,  0.19000000000E+002,  0.00000000000E+000,  0.10000000000E+001
  0.80681328164E+002,  0.17896312089E+007,  0.19000000000E+002,  0.00000000000E+000,  0.10000000000E+001
  0.82681328164E+002,  0.17843266825E+007,  0.19000000000E+002,  0.00000000000E+000,  0.10000000000E+001
  0.84681328164E+002,  0.17791290674E+007,  0.19000000000E+002,  0.00000000000E+000,  0.10000000000E+001
  0.86681328164E+002,  0.17740370226E+007,  0.19000000000E+002,  0.00000000000E+000,  0.10000000000E+001
  0.88681328164E+002,  0.17690491966E+007,  0.19000000000E+002,  0.00000000000E+000,  0.10000000000E+001
  0.90681328164E+002,  0.17641640334E+007,  0.19000000000E+002,  0.00000000000E+000,  0.10000000000E+001
  0.92681328164E+002,  0.17593796550E+007,  0.19000000000E+002,  0.00000000000E+000,  0.10000000000E+001
  0.94681328164E+002,  0.17546938306E+007,  0.19000000000E+002,  0.00000000000E+000,  0.10000000000E+001
  0.96681328164E+002,  0.17501040021E+007,  0.19000000000E+002,  0.00000000000E+000,  0.10000000000E+001
  0.98681328164E+002,  0.17456073378E+007,  0.19000000000E+002,  0.00000000000E+000,  0.10000000000E+001
  0.10068132816E+003,  0.17412007989E+007,  0.19000000000E+002,  0.00000000000E+000,  0.10000000000E+001
  0.10268132816E+003,  0.17368812140E+007,  0.19000000000E+002,  0.00000000000E+000,  0.10000000000E+001
  0.10468132816E+003,  0.17326453586E+007,  0.19000000000E+002,  0.00000000000E+000,  0.10000000000E+001
  0.10568132874E+003,  0.17305479627E+007,  0.19000000000E+002,  0.00000000000E+000,  0.10000000000E+001
  0.10618132920E+003,  0.17295043472E+007,  0.19000000000E+002,  0.00000000000E+000,  0.10000000000E+001
  0.10818132920E+003,  0.17254081209E+007,  0.19000000000E+002,  0.00000000000E+000,  0.10000000000E+001
  0.11018132920E+003,  0.17213874194E+007,  0.19000000000E+002,  0.00000000000E+000,  0.10000000000E+001
  0.11218132920E+003,  0.17174400017E+007,  0.19000000000E+002,  0.00000000000E+000,  0.10000000000E+001
  0.11318132939E+003,  0.17154843699E+007,  0.19000000000E+002,  0.00000000000E+000,  0.10000000000E+001
  0.11518132939E+003,  0.17116439127E+007,  0.19000000000E+002,  0.00000000000E+000,  0.10000000000E+001
  0.11718132939E+003,  0.17078731484E+007,  0.19000000000E+002,  0.00000000000E+000,  0.10000000000E+001
  0.11818133014E+003,  0.17060050687E+007,  0.19000000000E+002,  0.00000000000E+000,  0.10000000000E+001
  0.12018133014E+003,  0.17023372136E+007,  0.19000000000E+002,  0.00000000000E+000,  0.10000000000E+001
  0.12218133014E+003,  0.16987367320E+007,  0.19000000000E+002,  0.00000000000E+000,  0.10000000000E+001
  0.12418133014E+003,  0.16952025774E+007,  0.19000000000E+002,  0.00000000000E+000,  0.10000000000E+001
  0.12618133014E+003,  0.16917335635E+007,  0.19000000000E+002,  0.00000000000E+000,  0.10000000000E+001
  0.12818133014E+003,  0.16883283568E+007,  0.19000000000E+002,  0.00000000000E+000,  0.10000000000E+001
  0.12918133064E+003,  0.16866415311E+007,  0.19000000000E+002,  0.00000000000E+000,  0.10000000000E+001
  0.13118133064E+003,  0.16833294432E+007,  0.19000000000E+002,  0.00000000000E+000,  0.10000000000E+001
  0.13318133064E+003,  0.16800773018E+007,  0.19000000000E+002,  0.00000000000E+000,  0.10000000000E+001
  0.13418133084E+003,  0.16784660138E+007,  0.19000000000E+002,  0.00000000000E+000,  0.10000000000E+001
  0.13618133084E+003,  0.16753008911E+007,  0.19000000000E+002,  0.00000000000E+000,  0.10000000000E+001
  0.13818133084E+003,  0.16721915729E+007,  0.19000000000E+002,  0.00000000000E+000,  0.10000000000E+001
  0.14018133084E+003,  0.16691364114E+007,  0.19000000000E+002,  0.00000000000E+000,  0.10000000000E+001
  0.14218133084E+003,  0.16661337469E+007,  0.19000000000E+002,  0.00000000000E+000,  0.10000000000E+001
  0.14418133084E+003,  0.16631818888E+007,  0.19000000000E+002,  0.00000000000E+000,  0.10000000000E+001
  0.14618133084E+003,  0.16602791067E+007,  0.19000000000E+002,  0.00000000000E+000,  0.10000000000E+001
  0.14818133084E+003,  0.16574237139E+007,  0.19000000000E+002,  0.00000000000E+000,  0.10000000000E+001
  0.15018133084E+003,  0.16546141800E+007,  0.19000000000E+002,  0.00000000000E+000,  0.10000000000E+001
  0.15218133084E+003,  0.16518491712E+007,  0.19000000000E+002,  0.00000000000E+000,  0.10000000000E+001
  0.15418133084E+003,  0.16491274954E+007,  0.19000000000E+002,  0.00000000000E+000,  0.10000000000E+001
  0.15618133084E+003,  0.16464480542E+007,  0.19000000000E+002,  0.00000000000E+000,  0.10000000000E+001
  0.15818133084E+003,  0.16438098414E+007,  0.19000000000E+002,  0.00000000000E+000,  0.10000000000E+001
  0.15918133181E+003,  0.16425009231E+007,  0.19000000000E+002,  0.00000000000E+000,  0.10000000000E+001
  0.15968133290E+003,  0.16418489959E+007,  0.19000000000E+002,  0.00000000000E+000,  0.10000000000E+001
  0.15993133377E+003,  0.16415236633E+007,  0.19000000000E+002,  0.00000000000E+000,  0.10000000000E+001
  0.16118133814E+003,  0.16399125752E+007,  0.19000000000E+002,  0.00000000000E+000,  0.10000000000E+001
  0.16318133814E+003,  0.16373739838E+007,  0.19000000000E+002,  0.00000000000E+000,  0.10000000000E+001
  0.16418133817E+003,  0.16361143910E+007,  0.19000000000E+002,  0.00000000000E+000,  0.10000000000E+001
  0.16468133853E+003,  0.16354870099E+007,  0.19000000000E+002,  0.00000000000E+000,  0.10000000000E+001
  0.16668133853E+003,  0.16330157323E+007,  0.19000000000E+002,  0.00000000000E+000,  0.10000000000E+001
  0.16868133853E+003,  0.16305826049E+007,  0.19000000000E+002,  0.00000000000E+000,  0.10000000000E+001
  0.17068133853E+003,  0.16281877184E+007,  0.19000000000E+002,  0.00000000000E+000,  0.10000000000E+001
  0.17268133853E+003,  0.16258311481E+007,  0.19000000000E+002,  0.00000000000E+000,  0.10000000000E+001
  0.17468133853E+003,  0.16235127468E+007,  0.19000000000E+002,  0.00000000000E+000,  0.10000000000E+001
  0.17668133853E+003,  0.16212320152E+007,  0.19000000000E+002,  0.00000000000E+000,  0.10000000000E+001
  0.17868133853E+003,  0.16189880792E+007,  0.19000000000E+002,  0.00000000000E+000,  0.10000000000E+001
  0.18068133853E+003,  0.16167797754E+007,  0.19000000000E+002,  0.00000000000E+000,  0.10000000000E+001
  0.18168133867E+003,  0.16156843738E+007,  0.19000000000E+002,  0.00000000000E+000,  0.10000000000E+001
  0.18218133912E+003,  0.16151388397E+007,  0.19000000000E+002,  0.00000000000E+000,  0.10000000000E+001
  0.18418133912E+003,  0.16129901679E+007,  0.19000000000E+002,  0.00000000000E+000,  0.10000000000E+001
  0.18618133912E+003,  0.16108740472E+007,  0.19000000000E+002,  0.00000000000E+000,  0.10000000000E+001
  0.18818133912E+003,  0.16087898547E+007,  0.19000000000E+002,  0.00000000000E+000,  0.10000000000E+001
  0.18918134006E+003,  0.16077556788E+007,  0.19000000000E+002,  0.00000000000E+000,  0.10000000000E+001
  0.19118134006E+003,  0.16057186514E+007,  0.19000000000E+002,  0.00000000000E+000,  0.10000000000E+001
  0.19318134006E+003,  0.16037126150E+007,  0.19000000000E+002,  0.00000000000E+000,  0.10000000000E+001
  0.19518134006E+003,  0.16017371652E+007,  0.19000000000E+002,  0.00000000000E+000,  0.10000000000E+001
  0.19718134006E+003,  0.15997917823E+007,  0.19000000000E+002,  0.00000000000E+000,  0.10000000000E+001
  0.19818134017E+003,  0.15988265356E+007,  0.19000000000E+002,  0.00000000000E+000,  0.10000000000E+001
  0.20018134017E+003,  0.15969251515E+007,  0.19000000000E+002,  0.00000000000E+000,  0.10000000000E+001
  0.20118134053E+003,  0.15959816514E+007,  0.19000000000E+002,  0.00000000000E+000,  0.10000000000E+001
  0.20318134053E+003,  0.15941227447E+007,  0.19000000000E+002,  0.00000000000E+000,  0.10000000000E+001
  0.20518134053E+003,  0.15922913171E+007,  0.19000000000E+002,  0.00000000000E+000,  0.10000000000E+001
  0.20718134053E+003,  0.15904868058E+007,  0.19000000000E+002,  0.00000000000E+000,  0.10000000000E+001
  0.20918134053E+003,  0.15887086738E+007,  0.19000000000E+002,  0.00000000000E+000,  0.10000000000E+001
  0.21118134053E+003,  0.15869563839E+007,  0.19000000000E+002,  0.00000000000E+000,  0.10000000000E+001
  0.21318134053E+003,  0.15852294035E+007,  0.19000000000E+002,  0.00000000000E+000,  0.10000000000E+001
  0.21418134081E+003,  0.15843721759E+007,  0.19000000000E+002,  0.00000000000E+000,  0.10000000000E+001
  0.21618134081E+003,  0.15826823433E+007,  0.19000000000E+002,  0.00000000000E+000,  0.10000000000E+001
  0.21818134081E+003,  0.15810168740E+007,  0.19000000000E+002,  0.00000000000E+000,  0.10000000000E+001
  0.22018134081E+003,  0.15793756746E+007,  0.19000000000E+002,  0.00000000000E+000,  0.10000000000E+001
  0.22218134081E+003,  0.15777587609E+007,  0.19000000000E+002,  0.00000000000E+000,  0.10000000000E+001
  0.22418134081E+003,  0.15761662124E+007,  0.19000000000E+002,  0.00000000000E+000,  0.10000000000E+001
  0.22618134081E+003,  0.15745981415E+007,  0.19000000000E+002,  0.00000000000E+000,  0.10000000000E+001
  0.22818134081E+003,  0.15730546530E+007,  0.19000000000E+002,  0.00000000000E+000,  0.10000000000E+001
  0.23018134081E+003,  0.15715357998E+007,  0.19000000000E+002,  0.00000000000E+000,  0.10000000000E+001
  0.23218134081E+003,  0.15700415626E+007,  0.19000000000E+002,  0.00000000000E+000,  0.10000000000E+001
  0.23418134081E+003,  0.15685718646E+007,  0.19000000000E+002,  0.00000000000E+000,  0.10000000000E+001
  0.23618134081E+003,  0.15671266085E+007,  0.19000000000E+002,  0.00000000000E+000,  0.10000000000E+001
  0.23818134081E+003,  0.15657057042E+007,  0.19000000000E+002,  0.00000000000E+000,  0.10000000000E+001
  0.24018134081E+003,  0.15643090724E+007,  0.19000000000E+002,  0.00000000000E+000,  0.10000000000E+001
  0.24218134081E+003,  0.15629366321E+007,  0.19000000000E+002,  0.00000000000E+000,  0.10000000000E+001
  0.24318134246E+003,  0.15622564488E+007,  0.19000000000E+002,  0.00000000000E+000,  0.10000000000E+001
  0.24518134246E+003,  0.15609201800E+007,  0.19000000000E+002,  0.00000000000E+000,  0.10000000000E+001
  0.24718134246E+003,  0.15596080217E+007,  0.19000000000E+002,  0.00000000000E+000,  0.10000000000E+001
  0.24918134246E+003,  0.15583200692E+007,  0.19000000000E+002,  0.00000000000E+000,  0.10000000000E+001
  0.25118134246E+003,  0.15570564736E+007,  0.19000000000E+002,  0.00000000000E+000,  0.10000000000E+001
  0.25218134464E+003,  0.15564307851E+007,  0.19000000000E+002,  0.00000000000E+000,  0.10000000000E+001
  0.25418134464E+003,  0.15552039938E+007,  0.19000000000E+002,  0.00000000000E+000,  0.10000000000E+001
  0.25518134652E+003,  0.15545967580E+007,  0.19000000000E+002,  0.00000000000E+000,  0.10000000000E+001
  0.25568134882E+003,  0.15542946810E+007,  0.19000000000E+002,  0.00000000000E+000,  0.10000000000E+001
  0.25768134882E+003,  0.15531110552E+007,  0.19000000000E+002,  0.00000000000E+000,  0.10000000000E+001
  0.25868135080E+003,  0.15525254061E+007,  0.19000000000E+002,  0.00000000000E+000,  0.10000000000E+001
  0.26068135080E+003,  0.15513786467E+007,  0.19000000000E+002,  0.00000000000E+000,  0.10000000000E+001
  0.26268135080E+003,  0.15502562423E+007,  0.19000000000E+002,  0.00000000000E+000,  0.10000000000E+001
  0.26468135080E+003,  0.15491579706E+007,  0.19000000000E+002,  0.00000000000E+000,  0.10000000000E+001
  0.26668135080E+003,  0.15480835859E+007,  0.19000000000E+002,  0.00000000000E+000,  0.10000000000E+001
  0.26868135080E+003,  0.15470328279E+007,  0.19000000000E+002,  0.00000000000E+000,  0.10000000000E+001
  0.27068135080E+003,  0.15460054259E+007,  0.19000000000E+002,  0.00000000000E+000,  0.10000000000E+001
  0.27268135080E+003,  0.15450011121E+007,  0.19000000000E+002,  0.00000000000E+000,  0.10000000000E+001
  0.27468135080E+003,  0.15440196478E+007,  0.19000000000E+002,  0.00000000000E+000,  0.10000000000E+001
  0.27668135080E+003,  0.15430608457E+007,  0.19000000000E+002,  0.00000000000E+000,  0.10000000000E+001
  0.27868135080E+003,  0.15421245655E+007,  0.19000000000E+002,  0.00000000000E+000,  0.10000000000E+001
  0.28068135080E+003,  0.15412106868E+007,  0.19000000000E+002,  0.00000000000E+000,  0.10000000000E+001
  0.28168135301E+003,  0.15407593322E+007,  0.19000000000E+002,  0.00000000000E+000,  0.10000000000E+001
  0.28368135301E+003,  0.15398788208E+007,  0.19000000000E+002,  0.00000000000E+000,  0.10000000000E+001
  0.28568135301E+003,  0.15390203185E+007,  0.19000000000E+002,  0.00000000000E+000,  0.10000000000E+001
  0.28768135301E+003,  0.15381836052E+007,  0.19000000000E+002,  0.00000000000E+000,  0.10000000000E+001
  0.28968135301E+003,  0.15373684439E+007,  0.19000000000E+002,  0.00000000000E+000,  0.10000000000E+001
  0.29168135301E+003,  0.15365745913E+007,  0.19000000000E+002,  0.00000000000E+000,  0.10000000000E+001
  0.29368135301E+003,  0.15358017987E+007,  0.19000000000E+002,  0.00000000000E+000,  0.10000000000E+001
  0.29568135301E+003,  0.15350498095E+007,  0.19000000000E+002,  0.00000000000E+000,  0.10000000000E+001
  0.29768135301E+003,  0.15343183546E+007,  0.19000000000E+002,  0.00000000000E+000,  0.10000000000E+001
  0.29968135301E+003,  0.15336071520E+007,  0.19000000000E+002,  0.00000000000E+000,  0.10000000000E+001
  0.30168135301E+003,  0.15329159078E+007,  0.19000000000E+002,  0.00000000000E+000,  0.10000000000E+001
  0.30268135595E+003,  0.15325752369E+007,  0.19000000000E+002,  0.00000000000E+000,  0.10000000000E+001
  0.30468135595E+003,  0.15319134026E+007,  0.19000000000E+002,  0.00000000000E+000,  0.10000000000E+001
  0.30668135595E+003,  0.15312707772E+007,  0.19000000000E+002,  0.00000000000E+000,  0.10000000000E+001
  0.30868135595E+003,  0.15306470792E+007,  0.19000000000E+002,  0.00000000000E+000,  0.10000000000E+001
  0.31068135595E+003,  0.15300420455E+007,  0.19000000000E+002,  0.00000000000E+000,  0.10000000000E+001
