"           TIME(S)","              PRES","              TEMP","             SAT_G","             SAT_L"
  0.18228740000E+008,  0.20000410983E+007,  0.19000000000E+002,  0.00000000000E+000,  0.10000000000E+001
  0.18228890000E+008,  0.20002599258E+007,  0.19000000000E+002,  0.00000000000E+000,  0.10000000000E+001
  0.18229040000E+008,  0.20004873740E+007,  0.19000000000E+002,  0.00000000000E+000,  0.10000000000E+001
  0.18229190000E+008,  0.20007222174E+007,  0.19000000000E+002,  0.00000000000E+000,  0.10000000000E+001
  0.18229340000E+008,  0.20009631429E+007,  0.19000000000E+002,  0.00000000000E+000,  0.10000000000E+001
  0.18229490000E+008,  0.20012079486E+007,  0.19000000000E+002,  0.00000000000E+000,  0.10000000000E+001
  0.18229640000E+008,  0.20014513064E+007,  0.19000000000E+002,  0.00000000000E+000,  0.10000000000E+001
  0.18229715000E+008,  0.20015704062E+007,  0.19000000000E+002,  0.00000000000E+000,  0.10000000000E+001
  0.18229865000E+008,  0.20018059645E+007,  0.19000000000E+002,  0.00000000000E+000,  0.10000000000E+001
  0.18230015000E+008,  0.20020430268E+007,  0.19000000000E+002,  0.00000000000E+000,  0.10000000000E+001
  0.18230165000E+008,  0.20022821816E+007,  0.19000000000E+002,  0.00000000000E+000,  0.10000000000E+001
  0.18230315000E+008,  0.20025226610E+007,  0.19000000000E+002,  0.00000000000E+000,  0.10000000000E+001
  0.18230465000E+008,  0.20027635101E+007,  0.19000000000E+002,  0.00000000000E+000,  0.10000000000E+001
  0.18230615000E+008,  0.20030078106E+007,  0.19000000000E+002,  0.00000000000E+000,  0.10000000000E+001
  0.18230690001E+008,  0.20031324471E+007,  0.19000000000E+002,  0.00000000000E+000,  0.10000000000E+001
  0.18230727501E+008,  0.20031955376E+007,  0.19000000000E+002,  0.00000000000E+000,  0.10000000000E+001
  0.18230877501E+008,  0.20034558390E+007,  0.19000000000E+002,  0.00000000000E+000,  0.10000000000E+001
  0.18231027501E+008,  0.20037196728E+007,  0.19000000000E+002,  0.00000000000E+000,  0.10000000000E+001
  0.18231102502E+008,  0.20038516023E+007,  0.19000000000E+002,  0.00000000000E+000,  0.10000000000E+001
  0.18231140002E+008,  0.20039171495E+007,  0.19000000000E+002,  0.00000000000E+000,  0.10000000000E+001
  0.18231158752E+008,  0.20039498000E+007,  0.19000000000E+002,  0.00000000000E+000,  0.10000000000E+001
  0.18231168128E+008,  0.20039661233E+007,  0.19000000000E+002,  0.00000000000E+000,  0.10000000000E+001
  0.18231215004E+008,  0.20040467076E+007,  0.19000000000E+002,  0.00000000000E+000,  0.10000000000E+001
  0.18231365004E+008,  0.20042985358E+007,  0.19000000000E+002,  0.00000000000E+000,  0.10000000000E+001
  0.18231440004E+008,  0.20044233388E+007,  0.19000000000E+002,  0.00000000000E+000,  0.10000000000E+001
  0.18231477505E+008,  0.20044856027E+007,  0.19000000000E+002,  0.00000000000E+000,  0.10000000000E+001
  0.18231496255E+008,  0.20045167174E+007,  0.19000000000E+002,  0.00000000000E+000,  0.10000000000E+001
  0.18231505630E+008,  0.20045322733E+007,  0.19000000000E+002,  0.00000000000E+000,  0.10000000000E+001
  0.18231552506E+008,  0.20046101100E+007,  0.19000000000E+002,  0.00000000000E+000,  0.10000000000E+001
  0.18231702506E+008,  0.20048601596E+007,  0.19000000000E+002,  0.00000000000E+000,  0.10000000000E+001
  0.18231777507E+008,  0.20049852260E+007,  0.19000000000E+002,  0.00000000000E+000,  0.10000000000E+001
  0.18231927507E+008,  0.20052363503E+007,  0.19000000000E+002,  0.00000000000E+000,  0.10000000000E+001
  0.18232002507E+008,  0.20053622019E+007,  0.19000000000E+002,  0.00000000000E+000,  0.10000000000E+001
  0.18232040008E+008,  0.20054252668E+007,  0.19000000000E+002,  0.00000000000E+000,  0.10000000000E+001
  0.18232058758E+008,  0.20054567809E+007,  0.19000000000E+002,  0.00000000000E+000,  0.10000000000E+001
  0.18232068133E+008,  0.20054725299E+007,  0.19000000000E+002,  0.00000000000E+000,  0.10000000000E+001
  0.18232072821E+008,  0.20054804016E+007,  0.19000000000E+002,  0.00000000000E+000,  0.10000000000E+001
  0.18232096259E+008,  0.20055195010E+007,  0.19000000000E+002,  0.00000000000E+000,  0.10000000000E+001
  0.18232107978E+008,  0.20055389772E+007,  0.19000000000E+002,  0.00000000000E+000,  0.10000000000E+001
  0.18232113838E+008,  0.20055486965E+007,  0.19000000000E+002,  0.00000000000E+000,  0.10000000000E+001
  0.18232143136E+008,  0.20055966028E+007,  0.19000000000E+002,  0.00000000000E+000,  0.10000000000E+001
  0.18232157785E+008,  0.20056203432E+007,  0.19000000000E+002,  0.00000000000E+000,  0.10000000000E+001
  0.18232231031E+008,  0.20057326328E+007,  0.19000000000E+002,  0.00000000000E+000,  0.10000000000E+001
  0.18232381031E+008,  0.20059413701E+007,  0.19000000000E+002,  0.00000000000E+000,  0.10000000000E+001
  0.18232456032E+008,  0.20060397908E+007,  0.19000000000E+002,  0.00000000000E+000,  0.10000000000E+001
  0.18232493532E+008,  0.20060872546E+007,  0.19000000000E+002,  0.00000000000E+000,  0.10000000000E+001
  0.18232512282E+008,  0.20061105241E+007,  0.19000000000E+002,  0.00000000000E+000,  0.10000000000E+001
  0.18232606034E+008,  0.20062166263E+007,  0.19000000000E+002,  0.00000000000E+000,  0.10000000000E+001
  0.18232756034E+008,  0.20063660666E+007,  0.19000000000E+002,  0.00000000000E+000,  0.10000000000E+001
  0.18232906034E+008,  0.20064990158E+007,  0.19000000000E+002,  0.00000000000E+000,  0.10000000000E+001
  0.18233056034E+008,  0.20066200950E+007,  0.19000000000E+002,  0.00000000000E+000,  0.10000000000E+001
  0.18233206034E+008,  0.20067338220E+007,  0.19000000000E+002,  0.00000000000E+000,  0.10000000000E+001
  0.18233356034E+008,  0.20068441187E+007,  0.19000000000E+002,  0.00000000000E+000,  0.10000000000E+001
  0.18233506034E+008,  0.20069541838E+007,  0.19000000000E+002,  0.00000000000E+000,  0.10000000000E+001
  0.18233656034E+008,  0.20070665071E+007,  0.19000000000E+002,  0.00000000000E+000,  0.10000000000E+001
  0.18233806034E+008,  0.20071829444E+007,  0.19000000000E+002,  0.00000000000E+000,  0.10000000000E+001
  0.18233956034E+008,  0.20073048151E+007,  0.19000000000E+002,  0.00000000000E+000,  0.10000000000E+001
  0.18234106034E+008,  0.20074330015E+007,  0.19000000000E+002,  0.00000000000E+000,  0.10000000000E+001
  0.18234256034E+008,  0.20075680400E+007,  0.19000000000E+002,  0.00000000000E+000,  0.10000000000E+001
  0.18234406034E+008,  0.20077102007E+007,  0.19000000000E+002,  0.00000000000E+000,  0.10000000000E+001
  0.18234556034E+008,  0.20078595539E+007,  0.19000000000E+002,  0.00000000000E+000,  0.10000000000E+001
  0.18234706034E+008,  0.20080160235E+007,  0.19000000000E+002,  0.00000000000E+000,  0.10000000000E+001
  0.18234856034E+008,  0.20081794306E+007,  0.19000000000E+002,  0.00000000000E+000,  0.10000000000E+001
  0.18235006034E+008,  0.20083495264E+007,  0.19000000000E+002,  0.00000000000E+000,  0.10000000000E+001
  0.18235156034E+008,  0.20085260180E+007,  0.19000000000E+002,  0.00000000000E+000,  0.10000000000E+001
  0.18235306034E+008,  0.20087085874E+007,  0.19000000000E+002,  0.00000000000E+000,  0.10000000000E+001
  0.18235456034E+008,  0.20088969053E+007,  0.19000000000E+002,  0.00000000000E+000,  0.10000000000E+001
  0.18235606034E+008,  0.20090906421E+007,  0.19000000000E+002,  0.00000000000E+000,  0.10000000000E+001
  0.18235756034E+008,  0.20092894749E+007,  0.19000000000E+002,  0.00000000000E+000,  0.10000000000E+001
  0.18235906034E+008,  0.20094930922E+007,  0.19000000000E+002,  0.00000000000E+000,  0.10000000000E+001
  0.18236056034E+008,  0.20097011977E+007,  0.19000000000E+002,  0.00000000000E+000,  0.10000000000E+001
  0.18236206034E+008,  0.20099135121E+007,  0.19000000000E+002,  0.00000000000E+000,  0.10000000000E+001
  0.18236356034E+008,  0.20101297738E+007,  0.19000000000E+002,  0.00000000000E+000,  0.10000000000E+001
  0.18236506034E+008,  0.20103497397E+007,  0.19000000000E+002,  0.00000000000E+000,  0.10000000000E+001
  0.18236656034E+008,  0.20105731844E+007,  0.19000000000E+002,  0.00000000000E+000,  0.10000000000E+001
  0.18236806034E+008,  0.20107999003E+007,  0.19000000000E+002,  0.00000000000E+000,  0.10000000000E+001
  0.18236956034E+008,  0.20110296960E+007,  0.19000000000E+002,  0.00000000000E+000,  0.10000000000E+001
  0.18237106034E+008,  0.20112623962E+007,  0.19000000000E+002,  0.00000000000E+000,  0.10000000000E+001
  0.18237256034E+008,  0.20114978398E+007,  0.19000000000E+002,  0.00000000000E+000,  0.10000000000E+001
  0.18237406034E+008,  0.20117358797E+007,  0.19000000000E+002,  0.00000000000E+000,  0.10000000000E+001
  0.18237556034E+008,  0.20119763808E+007,  0.19000000000E+002,  0.00000000000E+000,  0.10000000000E+001
  0.18237706034E+008,  0.20122192199E+007,  0.19000000000E+002,  0.00000000000E+000,  0.10000000000E+001
  0.18237856034E+008,  0.20124642839E+007,  0.19000000000E+002,  0.00000000000E+000,  0.10000000000E+001
  0.18238006034E+008,  0.20127114695E+007,  0.19000000000E+002,  0.00000000000E+000,  0.10000000000E+001
  0.18238156034E+008,  0.20129606817E+007,  0.19000000000E+002,  0.00000000000E+000,  0.10000000000E+001
  0.18238306034E+008,  0.20132118336E+007,  0.19000000000E+002,  0.00000000000E+000,  0.10000000000E+001
  0.18238456034E+008,  0.20134648452E+007,  0.19000000000E+002,  0.00000000000E+000,  0.10000000000E+001
  0.18238606034E+008,  0.20137196428E+007,  0.19000000000E+002,  0.00000000000E+000,  0.10000000000E+001
  0.18238756034E+008,  0.20139761587E+007,  0.19000000000E+002,  0.00000000000E+000,  0.10000000000E+001
  0.18238906034E+008,  0.20142343301E+007,  0.19000000000E+002,  0.00000000000E+000,  0.10000000000E+001
  0.18239056034E+008,  0.20144940989E+007,  0.19000000000E+002,  0.00000000000E+000,  0.10000000000E+001
  0.18239206034E+008,  0.20147554114E+007,  0.19000000000E+002,  0.00000000000E+000,  0.10000000000E+001
  0.18239356034E+008,  0.20150182174E+007,  0.19000000000E+002,  0.00000000000E+000,  0.10000000000E+001
  0.18239506034E+008,  0.20152824703E+007,  0.19000000000E+002,  0.00000000000E+000,  0.10000000000E+001
  0.18239656034E+008,  0.20155481265E+007,  0.19000000000E+002,  0.00000000000E+000,  0.10000000000E+001
  0.18239806034E+008,  0.20158151449E+007,  0.19000000000E+002,  0.00000000000E+000,  0.10000000000E+001
  0.18239956034E+008,  0.20160834874E+007,  0.19000000000E+002,  0.00000000000E+000,  0.10000000000E+001
  0.18240106034E+008,  0.20163531178E+007,  0.19000000000E+002,  0.00000000000E+000,  0.10000000000E+001
  0.18240256034E+008,  0.20166240019E+007,  0.19000000000E+002,  0.00000000000E+000,  0.10000000000E+001
  0.18240406034E+008,  0.20168961076E+007,  0.19000000000E+002,  0.00000000000E+000,  0.10000000000E+001
  0.18240556034E+008,  0.20171694042E+007,  0.19000000000E+002,  0.00000000000E+000,  0.10000000000E+001
  0.18240706034E+008,  0.20174438627E+007,  0.19000000000E+002,  0.00000000000E+000,  0.10000000000E+001
  0.18240856034E+008,  0.20177194554E+007,  0.19000000000E+002,  0.00000000000E+000,  0.10000000000E+001
  0.18241006034E+008,  0.20179961560E+007,  0.19000000000E+002,  0.00000000000E+000,  0.10000000000E+001
  0.18241156034E+008,  0.20182739392E+007,  0.19000000000E+002,  0.00000000000E+000,  0.10000000000E+001
  0.18241306034E+008,  0.20185527808E+007,  0.19000000000E+002,  0.00000000000E+000,  0.10000000000E+001
  0.18241456034E+008,  0.20188326575E+007,  0.19000000000E+002,  0.00000000000E+000,  0.10000000000E+001
  0.18241606034E+008,  0.20191135470E+007,  0.19000000000E+002,  0.00000000000E+000,  0.10000000000E+001
  0.18241756034E+008,  0.20193954280E+007,  0.19000000000E+002,  0.00000000000E+000,  0.10000000000E+001
  0.18241906034E+008,  0.20196782795E+007,  0.19000000000E+002,  0.00000000000E+000,  0.10000000000E+001
  0.18242056034E+008,  0.20199620816E+007,  0.19000000000E+002,  0.00000000000E+000,  0.10000000000E+001
  0.18242206034E+008,  0.20202468149E+007,  0.19000000000E+002,  0.00000000000E+000,  0.10000000000E+001
  0.18242356034E+008,  0.20205324608E+007,  0.19000000000E+002,  0.00000000000E+000,  0.10000000000E+001
  0.18242506034E+008,  0.20208190009E+007,  0.19000000000E+002,  0.00000000000E+000,  0.10000000000E+001
  0.18242656034E+008,  0.20211064176E+007,  0.19000000000E+002,  0.00000000000E+000,  0.10000000000E+001
  0.18242806034E+008,  0.20213946939E+007,  0.19000000000E+002,  0.00000000000E+000,  0.10000000000E+001
  0.18242956034E+008,  0.20216838131E+007,  0.19000000000E+002,  0.00000000000E+000,  0.10000000000E+001
  0.18243106034E+008,  0.20219737589E+007,  0.19000000000E+002,  0.00000000000E+000,  0.10000000000E+001
  0.18243256034E+008,  0.20222645156E+007,  0.19000000000E+002,  0.00000000000E+000,  0.10000000000E+001
  0.18243406034E+008,  0.20225560678E+007,  0.19000000000E+002,  0.00000000000E+000,  0.10000000000E+001
  0.18243556034E+008,  0.20228484005E+007,  0.19000000000E+002,  0.00000000000E+000,  0.10000000000E+001
  0.18243706034E+008,  0.20231414991E+007,  0.19000000000E+002,  0.00000000000E+000,  0.10000000000E+001
  0.18243856034E+008,  0.20234353492E+007,  0.19000000000E+002,  0.00000000000E+000,  0.10000000000E+001
  0.18244006034E+008,  0.20237299370E+007,  0.19000000000E+002,  0.00000000000E+000,  0.10000000000E+001
  0.18244156034E+008,  0.20240252488E+007,  0.19000000000E+002,  0.00000000000E+000,  0.10000000000E+001
  0.18244306034E+008,  0.20243212712E+007,  0.19000000000E+002,  0.00000000000E+000,  0.10000000000E+001
  0.18244456034E+008,  0.20246179913E+007,  0.19000000000E+002,  0.00000000000E+000,  0.10000000000E+001
  0.18244606034E+008,  0.20249153963E+007,  0.19000000000E+002,  0.00000000000E+000,  0.10000000000E+001
  0.18244756034E+008,  0.20252134737E+007,  0.19000000000E+002,  0.00000000000E+000,  0.10000000000E+001
  0.18244906034E+008,  0.20255122112E+007,  0.19000000000E+002,  0.00000000000E+000,  0.10000000000E+001
  0.18245056034E+008,  0.20258115970E+007,  0.19000000000E+002,  0.00000000000E+000,  0.10000000000E+001
  0.18245206034E+008,  0.20261116192E+007,  0.19000000000E+002,  0.00000000000E+000,  0.10000000000E+001
  0.18245356034E+008,  0.20264122665E+007,  0.19000000000E+002,  0.00000000000E+000,  0.10000000000E+001
  0.18245506034E+008,  0.20267135275E+007,  0.19000000000E+002,  0.00000000000E+000,  0.10000000000E+001
  0.18245656034E+008,  0.20270153913E+007,  0.19000000000E+002,  0.00000000000E+000,  0.10000000000E+001
  0.18245806034E+008,  0.20273178469E+007,  0.19000000000E+002,  0.00000000000E+000,  0.10000000000E+001
  0.18245956034E+008,  0.20276208839E+007,  0.19000000000E+002,  0.00000000000E+000,  0.10000000000E+001
  0.18246106034E+008,  0.20279244918E+007,  0.19000000000E+002,  0.00000000000E+000,  0.10000000000E+001
  0.18246256034E+008,  0.20282286605E+007,  0.19000000000E+002,  0.00000000000E+000,  0.10000000000E+001
  0.18246406034E+008,  0.20285333798E+007,  0.19000000000E+002,  0.00000000000E+000,  0.10000000000E+001
  0.18246556034E+008,  0.20288386401E+007,  0.19000000000E+002,  0.00000000000E+000,  0.10000000000E+001
  0.18246706034E+008,  0.20291444316E+007,  0.19000000000E+002,  0.00000000000E+000,  0.10000000000E+001
  0.18246856034E+008,  0.20294507450E+007,  0.19000000000E+002,  0.00000000000E+000,  0.10000000000E+001
  0.18247006034E+008,  0.20297575709E+007,  0.19000000000E+002,  0.00000000000E+000,  0.10000000000E+001
  0.18247156034E+008,  0.20300649003E+007,  0.19000000000E+002,  0.00000000000E+000,  0.10000000000E+001
  0.18247306034E+008,  0.20303727242E+007,  0.19000000000E+002,  0.00000000000E+000,  0.10000000000E+001
  0.18247456034E+008,  0.20306810339E+007,  0.19000000000E+002,  0.00000000000E+000,  0.10000000000E+001
  0.18247606034E+008,  0.20309898207E+007,  0.19000000000E+002,  0.00000000000E+000,  0.10000000000E+001
  0.18247756034E+008,  0.20312990762E+007,  0.19000000000E+002,  0.00000000000E+000,  0.10000000000E+001
  0.18247906034E+008,  0.20316087921E+007,  0.19000000000E+002,  0.00000000000E+000,  0.10000000000E+001
  0.18248056034E+008,  0.20319189603E+007,  0.19000000000E+002,  0.00000000000E+000,  0.10000000000E+001
  0.18248206034E+008,  0.20322295728E+007,  0.19000000000E+002,  0.00000000000E+000,  0.10000000000E+001
  0.18248356034E+008,  0.20325406216E+007,  0.19000000000E+002,  0.00000000000E+000,  0.10000000000E+001
  0.18248506034E+008,  0.20328520991E+007,  0.19000000000E+002,  0.00000000000E+000,  0.10000000000E+001
  0.18248656034E+008,  0.20331639978E+007,  0.19000000000E+002,  0.00000000000E+000,  0.10000000000E+001
  0.18248806034E+008,  0.20334763101E+007,  0.19000000000E+002,  0.00000000000E+000,  0.10000000000E+001
  0.18248956034E+008,  0.20337890289E+007,  0.19000000000E+002,  0.00000000000E+000,  0.10000000000E+001
  0.18249106034E+008,  0.20341021468E+007,  0.19000000000E+002,  0.00000000000E+000,  0.10000000000E+001
  0.18249256034E+008,  0.20344156568E+007,  0.19000000000E+002,  0.00000000000E+000,  0.10000000000E+001
  0.18249406034E+008,  0.20347295521E+007,  0.19000000000E+002,  0.00000000000E+000,  0.10000000000E+001
  0.18249556034E+008,  0.20350438258E+007,  0.19000000000E+002,  0.00000000000E+000,  0.10000000000E+001
  0.18249706034E+008,  0.20353584712E+007,  0.19000000000E+002,  0.00000000000E+000,  0.10000000000E+001
  0.18249856034E+008,  0.20356734818E+007,  0.19000000000E+002,  0.00000000000E+000,  0.10000000000E+001
  0.18250006034E+008,  0.20359888512E+007,  0.19000000000E+002,  0.00000000000E+000,  0.10000000000E+001
  0.18250156034E+008,  0.20363045729E+007,  0.19000000000E+002,  0.00000000000E+000,  0.10000000000E+001
  0.18250306034E+008,  0.20366206408E+007,  0.19000000000E+002,  0.00000000000E+000,  0.10000000000E+001
  0.18250456034E+008,  0.20369370488E+007,  0.19000000000E+002,  0.00000000000E+000,  0.10000000000E+001
  0.18250606034E+008,  0.20372537909E+007,  0.19000000000E+002,  0.00000000000E+000,  0.10000000000E+001
  0.18250756034E+008,  0.20375708611E+007,  0.19000000000E+002,  0.00000000000E+000,  0.10000000000E+001
  0.18250906034E+008,  0.20378882537E+007,  0.19000000000E+002,  0.00000000000E+000,  0.10000000000E+001
  0.18251056034E+008,  0.20382059630E+007,  0.19000000000E+002,  0.00000000000E+000,  0.10000000000E+001
  0.18251206034E+008,  0.20385239833E+007,  0.19000000000E+002,  0.00000000000E+000,  0.10000000000E+001
  0.18251356034E+008,  0.20388423092E+007,  0.19000000000E+002,  0.00000000000E+000,  0.10000000000E+001
  0.18251506034E+008,  0.20391609354E+007,  0.19000000000E+002,  0.00000000000E+000,  0.10000000000E+001
  0.18251656034E+008,  0.20394798563E+007,  0.19000000000E+002,  0.00000000000E+000,  0.10000000000E+001
  0.18251806034E+008,  0.20397990670E+007,  0.19000000000E+002,  0.00000000000E+000,  0.10000000000E+001
  0.18251956034E+008,  0.20401185622E+007,  0.19000000000E+002,  0.00000000000E+000,  0.10000000000E+001
  0.18252106034E+008,  0.20404383369E+007,  0.19000000000E+002,  0.00000000000E+000,  0.10000000000E+001
  0.18252256034E+008,  0.20407583862E+007,  0.19000000000E+002,  0.00000000000E+000,  0.10000000000E+001
  0.18252406034E+008,  0.20410787052E+007,  0.19000000000E+002,  0.00000000000E+000,  0.10000000000E+001
  0.18252556034E+008,  0.20413992891E+007,  0.19000000000E+002,  0.00000000000E+000,  0.10000000000E+001
  0.18252706034E+008,  0.20417201332E+007,  0.19000000000E+002,  0.00000000000E+000,  0.10000000000E+001
  0.18252856034E+008,  0.20420412330E+007,  0.19000000000E+002,  0.00000000000E+000,  0.10000000000E+001
  0.18253006034E+008,  0.20423625839E+007,  0.19000000000E+002,  0.00000000000E+000,  0.10000000000E+001
  0.18253156034E+008,  0.20426841814E+007,  0.19000000000E+002,  0.00000000000E+000,  0.10000000000E+001
  0.18253306034E+008,  0.20430060212E+007,  0.19000000000E+002,  0.00000000000E+000,  0.10000000000E+001
  0.18253456034E+008,  0.20433280989E+007,  0.19000000000E+002,  0.00000000000E+000,  0.10000000000E+001
  0.18253606034E+008,  0.20436504104E+007,  0.19000000000E+002,  0.00000000000E+000,  0.10000000000E+001
  0.18253756034E+008,  0.20439729515E+007,  0.19000000000E+002,  0.00000000000E+000,  0.10000000000E+001
