"           TIME(S)","              PRES","              TEMP","             SAT_G","             SAT_L"
  0.50000000000E+000,  0.19999983174E+007,  0.19000000000E+002,  0.00000000000E+000,  0.10000000000E+001
  0.25000000000E+001,  0.19999883582E+007,  0.19000000000E+002,  0.00000000000E+000,  0.10000000000E+001
  0.45000000000E+001,  0.19999791561E+007,  0.19000000000E+002,  0.00000000000E+000,  0.10000000000E+001
  0.65000000000E+001,  0.19999712382E+007,  0.19000000000E+002,  0.00000000000E+000,  0.10000000000E+001
  0.85000000000E+001,  0.19999644508E+007,  0.19000000000E+002,  0.00000000000E+000,  0.10000000000E+001
  0.10500000000E+002,  0.19999586027E+007,  0.19000000000E+002,  0.00000000000E+000,  0.10000000000E+001
  0.12500000000E+002,  0.19999535032E+007,  0.19000000000E+002,  0.00000000000E+000,  0.10000000000E+001
  0.14500000000E+002,  0.19999490186E+007,  0.19000000000E+002,  0.00000000000E+000,  0.10000000000E+001
  0.16500000000E+002,  0.19999450584E+007,  0.19000000000E+002,  0.00000000000E+000,  0.10000000000E+001
  0.18500000000E+002,  0.19999415542E+007,  0.19000000000E+002,  0.00000000000E+000,  0.10000000000E+001
  0.20500000000E+002,  0.19999384510E+007,  0.19000000000E+002,  0.00000000000E+000,  0.10000000000E+001
  0.22500000000E+002,  0.19999357040E+007,  0.19000000000E+002,  0.00000000000E+000,  0.10000000000E+001
  0.24500000000E+002,  0.19999332760E+007,  0.19000000000E+002,  0.00000000000E+000,  0.10000000000E+001
  0.26500000000E+002,  0.19999311357E+007,  0.19000000000E+002,  0.00000000000E+000,  0.10000000000E+001
  0.28500000000E+002,  0.19999292568E+007,  0.19000000000E+002,  0.00000000000E+000,  0.10000000000E+001
  0.30500000000E+002,  0.19999276178E+007,  0.19000000000E+002,  0.00000000000E+000,  0.10000000000E+001
  0.32500000000E+002,  0.19999261970E+007,  0.19000000000E+002,  0.00000000000E+000,  0.10000000000E+001
  0.34500000000E+002,  0.19999249789E+007,  0.19000000000E+002,  0.00000000000E+000,  0.10000000000E+001
  0.36500000000E+002,  0.19999239468E+007,  0.19000000000E+002,  0.00000000000E+000,  0.10000000000E+001
  0.38500000000E+002,  0.19999230888E+007,  0.19000000000E+002,  0.00000000000E+000,  0.10000000000E+001
  0.40500000000E+002,  0.19999223907E+007,  0.19000000000E+002,  0.00000000000E+000,  0.10000000000E+001
  0.42500000000E+002,  0.19999218434E+007,  0.19000000000E+002,  0.00000000000E+000,  0.10000000000E+001
  0.44500000000E+002,  0.19999214344E+007,  0.19000000000E+002,  0.00000000000E+000,  0.10000000000E+001
  0.46500000000E+002,  0.19999211571E+007,  0.19000000000E+002,  0.00000000000E+000,  0.10000000000E+001
  0.48500000000E+002,  0.19999209991E+007,  0.19000000000E+002,  0.00000000000E+000,  0.10000000000E+001
  0.50500000000E+002,  0.19999209650E+007,  0.19000000000E+002,  0.00000000000E+000,  0.10000000000E+001
  0.52500000000E+002,  0.19999210151E+007,  0.19000000000E+002,  0.00000000000E+000,  0.10000000000E+001
  0.54500000000E+002,  0.19999211686E+007,  0.19000000000E+002,  0.00000000000E+000,  0.10000000000E+001
  0.56500000000E+002,  0.19999214171E+007,  0.19000000000E+002,  0.00000000000E+000,  0.10000000000E+001
  0.58500000000E+002,  0.19999217502E+007,  0.19000000000E+002,  0.00000000000E+000,  0.10000000000E+001
  0.60500000000E+002,  0.19999221630E+007,  0.19000000000E+002,  0.00000000000E+000,  0.10000000000E+001
  0.62500000000E+002,  0.19999226485E+007,  0.19000000000E+002,  0.00000000000E+000,  0.10000000000E+001
  0.64500000000E+002,  0.19999232022E+007,  0.19000000000E+002,  0.00000000000E+000,  0.10000000000E+001
  0.66500000000E+002,  0.19999238182E+007,  0.19000000000E+002,  0.00000000000E+000,  0.10000000000E+001
  0.68500000000E+002,  0.19999244922E+007,  0.19000000000E+002,  0.00000000000E+000,  0.10000000000E+001
  0.70500000000E+002,  0.19999252202E+007,  0.19000000000E+002,  0.00000000000E+000,  0.10000000000E+001
  0.72500000000E+002,  0.19999259972E+007,  0.19000000000E+002,  0.00000000000E+000,  0.10000000000E+001
  0.74500000000E+002,  0.19999268197E+007,  0.19000000000E+002,  0.00000000000E+000,  0.10000000000E+001
  0.76500000000E+002,  0.19999276842E+007,  0.19000000000E+002,  0.00000000000E+000,  0.10000000000E+001
  0.78500000000E+002,  0.19999285867E+007,  0.19000000000E+002,  0.00000000000E+000,  0.10000000000E+001
  0.80500000000E+002,  0.19999295242E+007,  0.19000000000E+002,  0.00000000000E+000,  0.10000000000E+001
  0.82500000000E+002,  0.19999304940E+007,  0.19000000000E+002,  0.00000000000E+000,  0.10000000000E+001
  0.84500000000E+002,  0.19999314927E+007,  0.19000000000E+002,  0.00000000000E+000,  0.10000000000E+001
  0.86500000000E+002,  0.19999325178E+007,  0.19000000000E+002,  0.00000000000E+000,  0.10000000000E+001
  0.88500000000E+002,  0.19999335673E+007,  0.19000000000E+002,  0.00000000000E+000,  0.10000000000E+001
  0.90500000000E+002,  0.19999346382E+007,  0.19000000000E+002,  0.00000000000E+000,  0.10000000000E+001
  0.92500000000E+002,  0.19999357287E+007,  0.19000000000E+002,  0.00000000000E+000,  0.10000000000E+001
  0.94500000000E+002,  0.19999368370E+007,  0.19000000000E+002,  0.00000000000E+000,  0.10000000000E+001
  0.96500000000E+002,  0.19999379607E+007,  0.19000000000E+002,  0.00000000000E+000,  0.10000000000E+001
  0.98500000000E+002,  0.19999390983E+007,  0.19000000000E+002,  0.00000000000E+000,  0.10000000000E+001
  0.10050000000E+003,  0.19999402484E+007,  0.19000000000E+002,  0.00000000000E+000,  0.10000000000E+001
  0.10250000000E+003,  0.19999414092E+007,  0.19000000000E+002,  0.00000000000E+000,  0.10000000000E+001
  0.10450000000E+003,  0.19999425792E+007,  0.19000000000E+002,  0.00000000000E+000,  0.10000000000E+001
  0.10650000000E+003,  0.19999437577E+007,  0.19000000000E+002,  0.00000000000E+000,  0.10000000000E+001
  0.10850000000E+003,  0.19999449429E+007,  0.19000000000E+002,  0.00000000000E+000,  0.10000000000E+001
  0.11050000000E+003,  0.19999461338E+007,  0.19000000000E+002,  0.00000000000E+000,  0.10000000000E+001
  0.11250000000E+003,  0.19999473298E+007,  0.19000000000E+002,  0.00000000000E+000,  0.10000000000E+001
  0.11450000000E+003,  0.19999485294E+007,  0.19000000000E+002,  0.00000000000E+000,  0.10000000000E+001
  0.11650000000E+003,  0.19999497319E+007,  0.19000000000E+002,  0.00000000000E+000,  0.10000000000E+001
  0.11850000000E+003,  0.19999509368E+007,  0.19000000000E+002,  0.00000000000E+000,  0.10000000000E+001
  0.12050000000E+003,  0.19999521429E+007,  0.19000000000E+002,  0.00000000000E+000,  0.10000000000E+001
  0.12250000000E+003,  0.19999533497E+007,  0.19000000000E+002,  0.00000000000E+000,  0.10000000000E+001
  0.12450000000E+003,  0.19999545569E+007,  0.19000000000E+002,  0.00000000000E+000,  0.10000000000E+001
  0.12650000000E+003,  0.19999557633E+007,  0.19000000000E+002,  0.00000000000E+000,  0.10000000000E+001
  0.12850000000E+003,  0.19999569688E+007,  0.19000000000E+002,  0.00000000000E+000,  0.10000000000E+001
  0.13050000000E+003,  0.19999581730E+007,  0.19000000000E+002,  0.00000000000E+000,  0.10000000000E+001
  0.13250000000E+003,  0.19999593750E+007,  0.19000000000E+002,  0.00000000000E+000,  0.10000000000E+001
  0.13450000000E+003,  0.19999605747E+007,  0.19000000000E+002,  0.00000000000E+000,  0.10000000000E+001
  0.13650000000E+003,  0.19999617720E+007,  0.19000000000E+002,  0.00000000000E+000,  0.10000000000E+001
  0.13850000000E+003,  0.19999629660E+007,  0.19000000000E+002,  0.00000000000E+000,  0.10000000000E+001
  0.14050000000E+003,  0.19999641567E+007,  0.19000000000E+002,  0.00000000000E+000,  0.10000000000E+001
  0.14250000000E+003,  0.19999653440E+007,  0.19000000000E+002,  0.00000000000E+000,  0.10000000000E+001
  0.14450000000E+003,  0.19999665272E+007,  0.19000000000E+002,  0.00000000000E+000,  0.10000000000E+001
  0.14650000000E+003,  0.19999677064E+007,  0.19000000000E+002,  0.00000000000E+000,  0.10000000000E+001
  0.14850000000E+003,  0.19999688815E+007,  0.19000000000E+002,  0.00000000000E+000,  0.10000000000E+001
  0.15050000000E+003,  0.19999700520E+007,  0.19000000000E+002,  0.00000000000E+000,  0.10000000000E+001
  0.15250000000E+003,  0.19999712179E+007,  0.19000000000E+002,  0.00000000000E+000,  0.10000000000E+001
  0.15450000000E+003,  0.19999723793E+007,  0.19000000000E+002,  0.00000000000E+000,  0.10000000000E+001
  0.15650000000E+003,  0.19999735356E+007,  0.19000000000E+002,  0.00000000000E+000,  0.10000000000E+001
  0.15850000000E+003,  0.19999746870E+007,  0.19000000000E+002,  0.00000000000E+000,  0.10000000000E+001
  0.16050000000E+003,  0.19999758335E+007,  0.19000000000E+002,  0.00000000000E+000,  0.10000000000E+001
  0.16250000000E+003,  0.19999769747E+007,  0.19000000000E+002,  0.00000000000E+000,  0.10000000000E+001
  0.16450000000E+003,  0.19999781107E+007,  0.19000000000E+002,  0.00000000000E+000,  0.10000000000E+001
  0.16650000000E+003,  0.19999792417E+007,  0.19000000000E+002,  0.00000000000E+000,  0.10000000000E+001
  0.16850000000E+003,  0.19999803671E+007,  0.19000000000E+002,  0.00000000000E+000,  0.10000000000E+001
  0.17050000000E+003,  0.19999814873E+007,  0.19000000000E+002,  0.00000000000E+000,  0.10000000000E+001
  0.17250000000E+003,  0.19999826023E+007,  0.19000000000E+002,  0.00000000000E+000,  0.10000000000E+001
  0.17450000000E+003,  0.19999837118E+007,  0.19000000000E+002,  0.00000000000E+000,  0.10000000000E+001
  0.17650000000E+003,  0.19999848158E+007,  0.19000000000E+002,  0.00000000000E+000,  0.10000000000E+001
  0.17850000000E+003,  0.19999859148E+007,  0.19000000000E+002,  0.00000000000E+000,  0.10000000000E+001
  0.18050000000E+003,  0.19999870081E+007,  0.19000000000E+002,  0.00000000000E+000,  0.10000000000E+001
  0.18250000000E+003,  0.19999880961E+007,  0.19000000000E+002,  0.00000000000E+000,  0.10000000000E+001
  0.18450000000E+003,  0.19999891789E+007,  0.19000000000E+002,  0.00000000000E+000,  0.10000000000E+001
  0.18650000000E+003,  0.19999902563E+007,  0.19000000000E+002,  0.00000000000E+000,  0.10000000000E+001
  0.18850000000E+003,  0.19999913283E+007,  0.19000000000E+002,  0.00000000000E+000,  0.10000000000E+001
  0.19050000000E+003,  0.19999923952E+007,  0.19000000000E+002,  0.00000000000E+000,  0.10000000000E+001
  0.19250000000E+003,  0.19999934567E+007,  0.19000000000E+002,  0.00000000000E+000,  0.10000000000E+001
  0.19450000000E+003,  0.19999945130E+007,  0.19000000000E+002,  0.00000000000E+000,  0.10000000000E+001
  0.19650000000E+003,  0.19999955643E+007,  0.19000000000E+002,  0.00000000000E+000,  0.10000000000E+001
  0.19850000000E+003,  0.19999966103E+007,  0.19000000000E+002,  0.00000000000E+000,  0.10000000000E+001
  0.20050000000E+003,  0.19999976511E+007,  0.19000000000E+002,  0.00000000000E+000,  0.10000000000E+001
  0.20250000000E+003,  0.19999986872E+007,  0.19000000000E+002,  0.00000000000E+000,  0.10000000000E+001
  0.20450000000E+003,  0.19999997180E+007,  0.19000000000E+002,  0.00000000000E+000,  0.10000000000E+001
  0.20650000000E+003,  0.20000007439E+007,  0.19000000000E+002,  0.00000000000E+000,  0.10000000000E+001
  0.20850000000E+003,  0.20000017650E+007,  0.19000000000E+002,  0.00000000000E+000,  0.10000000000E+001
  0.21050000000E+003,  0.20000027812E+007,  0.19000000000E+002,  0.00000000000E+000,  0.10000000000E+001
  0.21250000000E+003,  0.20000037925E+007,  0.19000000000E+002,  0.00000000000E+000,  0.10000000000E+001
  0.21450000000E+003,  0.20000047992E+007,  0.19000000000E+002,  0.00000000000E+000,  0.10000000000E+001
  0.21650000000E+003,  0.20000058011E+007,  0.19000000000E+002,  0.00000000000E+000,  0.10000000000E+001
  0.21850000000E+003,  0.20000067983E+007,  0.19000000000E+002,  0.00000000000E+000,  0.10000000000E+001
  0.22050000000E+003,  0.20000077911E+007,  0.19000000000E+002,  0.00000000000E+000,  0.10000000000E+001
  0.22250000000E+003,  0.20000087792E+007,  0.19000000000E+002,  0.00000000000E+000,  0.10000000000E+001
  0.22450000000E+003,  0.20000097627E+007,  0.19000000000E+002,  0.00000000000E+000,  0.10000000000E+001
  0.22650000000E+003,  0.20000107421E+007,  0.19000000000E+002,  0.00000000000E+000,  0.10000000000E+001
  0.22850000000E+003,  0.20000117168E+007,  0.19000000000E+002,  0.00000000000E+000,  0.10000000000E+001
  0.23050000000E+003,  0.20000126873E+007,  0.19000000000E+002,  0.00000000000E+000,  0.10000000000E+001
  0.23250000000E+003,  0.20000136536E+007,  0.19000000000E+002,  0.00000000000E+000,  0.10000000000E+001
  0.23450000000E+003,  0.20000146156E+007,  0.19000000000E+002,  0.00000000000E+000,  0.10000000000E+001
  0.23650000000E+003,  0.20000155734E+007,  0.19000000000E+002,  0.00000000000E+000,  0.10000000000E+001
  0.23850000000E+003,  0.20000165273E+007,  0.19000000000E+002,  0.00000000000E+000,  0.10000000000E+001
  0.24050000000E+003,  0.20000174769E+007,  0.19000000000E+002,  0.00000000000E+000,  0.10000000000E+001
  0.24250000000E+003,  0.20000184225E+007,  0.19000000000E+002,  0.00000000000E+000,  0.10000000000E+001
  0.24450000000E+003,  0.20000193644E+007,  0.19000000000E+002,  0.00000000000E+000,  0.10000000000E+001
  0.24650000000E+003,  0.20000203022E+007,  0.19000000000E+002,  0.00000000000E+000,  0.10000000000E+001
  0.24850000000E+003,  0.20000212361E+007,  0.19000000000E+002,  0.00000000000E+000,  0.10000000000E+001
  0.25050000000E+003,  0.20000221664E+007,  0.19000000000E+002,  0.00000000000E+000,  0.10000000000E+001
  0.25250000000E+003,  0.20000230928E+007,  0.19000000000E+002,  0.00000000000E+000,  0.10000000000E+001
  0.25450000000E+003,  0.20000240155E+007,  0.19000000000E+002,  0.00000000000E+000,  0.10000000000E+001
  0.25650000000E+003,  0.20000249347E+007,  0.19000000000E+002,  0.00000000000E+000,  0.10000000000E+001
  0.25850000000E+003,  0.20000258502E+007,  0.19000000000E+002,  0.00000000000E+000,  0.10000000000E+001
  0.26050000000E+003,  0.20000267621E+007,  0.19000000000E+002,  0.00000000000E+000,  0.10000000000E+001
  0.26250000000E+003,  0.20000276706E+007,  0.19000000000E+002,  0.00000000000E+000,  0.10000000000E+001
  0.26450000000E+003,  0.20000285756E+007,  0.19000000000E+002,  0.00000000000E+000,  0.10000000000E+001
  0.26650000000E+003,  0.20000294771E+007,  0.19000000000E+002,  0.00000000000E+000,  0.10000000000E+001
  0.26850000000E+003,  0.20000303755E+007,  0.19000000000E+002,  0.00000000000E+000,  0.10000000000E+001
  0.27050000000E+003,  0.20000312703E+007,  0.19000000000E+002,  0.00000000000E+000,  0.10000000000E+001
  0.27250000000E+003,  0.20000321619E+007,  0.19000000000E+002,  0.00000000000E+000,  0.10000000000E+001
  0.27450000000E+003,  0.20000330504E+007,  0.19000000000E+002,  0.00000000000E+000,  0.10000000000E+001
  0.27650000000E+003,  0.20000339356E+007,  0.19000000000E+002,  0.00000000000E+000,  0.10000000000E+001
  0.27850000000E+003,  0.20000348176E+007,  0.19000000000E+002,  0.00000000000E+000,  0.10000000000E+001
  0.28050000000E+003,  0.20000356967E+007,  0.19000000000E+002,  0.00000000000E+000,  0.10000000000E+001
  0.28250000000E+003,  0.20000365726E+007,  0.19000000000E+002,  0.00000000000E+000,  0.10000000000E+001
  0.28450000000E+003,  0.20000374454E+007,  0.19000000000E+002,  0.00000000000E+000,  0.10000000000E+001
  0.28650000000E+003,  0.20000383154E+007,  0.19000000000E+002,  0.00000000000E+000,  0.10000000000E+001
  0.28850000000E+003,  0.20000391823E+007,  0.19000000000E+002,  0.00000000000E+000,  0.10000000000E+001
  0.29050000000E+003,  0.20000400463E+007,  0.19000000000E+002,  0.00000000000E+000,  0.10000000000E+001
  0.29250000000E+003,  0.20000409076E+007,  0.19000000000E+002,  0.00000000000E+000,  0.10000000000E+001
  0.29450000000E+003,  0.20000417659E+007,  0.19000000000E+002,  0.00000000000E+000,  0.10000000000E+001
  0.29650000000E+003,  0.20000426214E+007,  0.19000000000E+002,  0.00000000000E+000,  0.10000000000E+001
  0.29850000000E+003,  0.20000434743E+007,  0.19000000000E+002,  0.00000000000E+000,  0.10000000000E+001
  0.30050000000E+003,  0.20000443244E+007,  0.19000000000E+002,  0.00000000000E+000,  0.10000000000E+001
  0.30250000000E+003,  0.20000451717E+007,  0.19000000000E+002,  0.00000000000E+000,  0.10000000000E+001
  0.30450000000E+003,  0.20000460165E+007,  0.19000000000E+002,  0.00000000000E+000,  0.10000000000E+001
  0.30650000000E+003,  0.20000468586E+007,  0.19000000000E+002,  0.00000000000E+000,  0.10000000000E+001
  0.30850000000E+003,  0.20000476981E+007,  0.19000000000E+002,  0.00000000000E+000,  0.10000000000E+001
  0.31050000000E+003,  0.20000485352E+007,  0.19000000000E+002,  0.00000000000E+000,  0.10000000000E+001
  0.31250000000E+003,  0.20000493695E+007,  0.19000000000E+002,  0.00000000000E+000,  0.10000000000E+001
  0.31450000000E+003,  0.20000502014E+007,  0.19000000000E+002,  0.00000000000E+000,  0.10000000000E+001
  0.31650000000E+003,  0.20000510310E+007,  0.19000000000E+002,  0.00000000000E+000,  0.10000000000E+001
  0.31850000000E+003,  0.20000518580E+007,  0.19000000000E+002,  0.00000000000E+000,  0.10000000000E+001
  0.32050000000E+003,  0.20000526826E+007,  0.19000000000E+002,  0.00000000000E+000,  0.10000000000E+001
  0.32250000000E+003,  0.20000535050E+007,  0.19000000000E+002,  0.00000000000E+000,  0.10000000000E+001
  0.32450000000E+003,  0.20000543249E+007,  0.19000000000E+002,  0.00000000000E+000,  0.10000000000E+001
  0.32650000000E+003,  0.20000551424E+007,  0.19000000000E+002,  0.00000000000E+000,  0.10000000000E+001
  0.32850000000E+003,  0.20000559578E+007,  0.19000000000E+002,  0.00000000000E+000,  0.10000000000E+001
  0.33050000000E+003,  0.20000567708E+007,  0.19000000000E+002,  0.00000000000E+000,  0.10000000000E+001
  0.33250000000E+003,  0.20000575815E+007,  0.19000000000E+002,  0.00000000000E+000,  0.10000000000E+001
  0.33450000000E+003,  0.20000583902E+007,  0.19000000000E+002,  0.00000000000E+000,  0.10000000000E+001
  0.33650000000E+003,  0.20000591965E+007,  0.19000000000E+002,  0.00000000000E+000,  0.10000000000E+001
  0.33850000000E+003,  0.20000600007E+007,  0.19000000000E+002,  0.00000000000E+000,  0.10000000000E+001
  0.34050000000E+003,  0.20000608028E+007,  0.19000000000E+002,  0.00000000000E+000,  0.10000000000E+001
  0.34250000000E+003,  0.20000616027E+007,  0.19000000000E+002,  0.00000000000E+000,  0.10000000000E+001
  0.34450000000E+003,  0.20000624005E+007,  0.19000000000E+002,  0.00000000000E+000,  0.10000000000E+001
  0.34650000000E+003,  0.20000631964E+007,  0.19000000000E+002,  0.00000000000E+000,  0.10000000000E+001
  0.34850000000E+003,  0.20000639901E+007,  0.19000000000E+002,  0.00000000000E+000,  0.10000000000E+001
  0.35050000000E+003,  0.20000647817E+007,  0.19000000000E+002,  0.00000000000E+000,  0.10000000000E+001
  0.35250000000E+003,  0.20000655715E+007,  0.19000000000E+002,  0.00000000000E+000,  0.10000000000E+001
  0.35450000000E+003,  0.20000663592E+007,  0.19000000000E+002,  0.00000000000E+000,  0.10000000000E+001
  0.35650000000E+003,  0.20000671448E+007,  0.19000000000E+002,  0.00000000000E+000,  0.10000000000E+001
  0.35850000000E+003,  0.20000679288E+007,  0.19000000000E+002,  0.00000000000E+000,  0.10000000000E+001
  0.36050000000E+003,  0.20000687108E+007,  0.19000000000E+002,  0.00000000000E+000,  0.10000000000E+001
  0.36250000000E+003,  0.20000694907E+007,  0.19000000000E+002,  0.00000000000E+000,  0.10000000000E+001
  0.36450000000E+003,  0.20000702687E+007,  0.19000000000E+002,  0.00000000000E+000,  0.10000000000E+001
  0.36650000000E+003,  0.20000710449E+007,  0.19000000000E+002,  0.00000000000E+000,  0.10000000000E+001
  0.36850000000E+003,  0.20000718192E+007,  0.19000000000E+002,  0.00000000000E+000,  0.10000000000E+001
  0.37050000000E+003,  0.20000725916E+007,  0.19000000000E+002,  0.00000000000E+000,  0.10000000000E+001
  0.37250000000E+003,  0.20000733625E+007,  0.19000000000E+002,  0.00000000000E+000,  0.10000000000E+001
  0.37450000000E+003,  0.20000741315E+007,  0.19000000000E+002,  0.00000000000E+000,  0.10000000000E+001
  0.37650000000E+003,  0.20000748986E+007,  0.19000000000E+002,  0.00000000000E+000,  0.10000000000E+001
