"           TIME(S)","              PRES","              TEMP","             SAT_G","             SAT_L"
  0.18228740000E+008,  0.20000003797E+007,  0.19000000000E+002,  0.00000000000E+000,  0.10000000000E+001
  0.18228890000E+008,  0.20000418353E+007,  0.19000000000E+002,  0.00000000000E+000,  0.10000000000E+001
  0.18229040000E+008,  0.20001358465E+007,  0.19000000000E+002,  0.00000000000E+000,  0.10000000000E+001
  0.18229190000E+008,  0.20002780898E+007,  0.19000000000E+002,  0.00000000000E+000,  0.10000000000E+001
  0.18229340000E+008,  0.20004582614E+007,  0.19000000000E+002,  0.00000000000E+000,  0.10000000000E+001
  0.18229490000E+008,  0.20006673970E+007,  0.19000000000E+002,  0.00000000000E+000,  0.10000000000E+001
  0.18229565000E+008,  0.20007789377E+007,  0.19000000000E+002,  0.00000000000E+000,  0.10000000000E+001
  0.18229715000E+008,  0.20010306457E+007,  0.19000000000E+002,  0.00000000000E+000,  0.10000000000E+001
  0.18229790001E+008,  0.20011636992E+007,  0.19000000000E+002,  0.00000000000E+000,  0.10000000000E+001
  0.18229827501E+008,  0.20012320290E+007,  0.19000000000E+002,  0.00000000000E+000,  0.10000000000E+001
  0.18229846251E+008,  0.20012666454E+007,  0.19000000000E+002,  0.00000000000E+000,  0.10000000000E+001
  0.18229855627E+008,  0.20012840666E+007,  0.19000000000E+002,  0.00000000000E+000,  0.10000000000E+001
  0.18229902503E+008,  0.20013740215E+007,  0.19000000000E+002,  0.00000000000E+000,  0.10000000000E+001
  0.18229925941E+008,  0.20014197145E+007,  0.19000000000E+002,  0.00000000000E+000,  0.10000000000E+001
  0.18230043132E+008,  0.20016646267E+007,  0.19000000000E+002,  0.00000000000E+000,  0.10000000000E+001
  0.18230101728E+008,  0.20017910114E+007,  0.19000000000E+002,  0.00000000000E+000,  0.10000000000E+001
  0.18230131026E+008,  0.20018551700E+007,  0.19000000000E+002,  0.00000000000E+000,  0.10000000000E+001
  0.18230145675E+008,  0.20018874896E+007,  0.19000000000E+002,  0.00000000000E+000,  0.10000000000E+001
  0.18230218920E+008,  0.20020549894E+007,  0.19000000000E+002,  0.00000000000E+000,  0.10000000000E+001
  0.18230255543E+008,  0.20021402092E+007,  0.19000000000E+002,  0.00000000000E+000,  0.10000000000E+001
  0.18230273855E+008,  0.20021831864E+007,  0.19000000000E+002,  0.00000000000E+000,  0.10000000000E+001
  0.18230283011E+008,  0.20022047668E+007,  0.19000000000E+002,  0.00000000000E+000,  0.10000000000E+001
  0.18230328790E+008,  0.20023149278E+007,  0.19000000000E+002,  0.00000000000E+000,  0.10000000000E+001
  0.18230478790E+008,  0.20026956840E+007,  0.19000000000E+002,  0.00000000000E+000,  0.10000000000E+001
  0.18230628790E+008,  0.20030904718E+007,  0.19000000000E+002,  0.00000000000E+000,  0.10000000000E+001
  0.18230778790E+008,  0.20034945676E+007,  0.19000000000E+002,  0.00000000000E+000,  0.10000000000E+001
  0.18230928790E+008,  0.20039053298E+007,  0.19000000000E+002,  0.00000000000E+000,  0.10000000000E+001
  0.18231078790E+008,  0.20043220627E+007,  0.19000000000E+002,  0.00000000000E+000,  0.10000000000E+001
  0.18231228790E+008,  0.20047454503E+007,  0.19000000000E+002,  0.00000000000E+000,  0.10000000000E+001
  0.18231378790E+008,  0.20051769769E+007,  0.19000000000E+002,  0.00000000000E+000,  0.10000000000E+001
  0.18231528790E+008,  0.20056184856E+007,  0.19000000000E+002,  0.00000000000E+000,  0.10000000000E+001
  0.18231678790E+008,  0.20060718490E+007,  0.19000000000E+002,  0.00000000000E+000,  0.10000000000E+001
  0.18231828790E+008,  0.20065387552E+007,  0.19000000000E+002,  0.00000000000E+000,  0.10000000000E+001
  0.18231978790E+008,  0.20070206013E+007,  0.19000000000E+002,  0.00000000000E+000,  0.10000000000E+001
  0.18232128790E+008,  0.20075184651E+007,  0.19000000000E+002,  0.00000000000E+000,  0.10000000000E+001
  0.18232278790E+008,  0.20080331210E+007,  0.19000000000E+002,  0.00000000000E+000,  0.10000000000E+001
  0.18232428790E+008,  0.20085650773E+007,  0.19000000000E+002,  0.00000000000E+000,  0.10000000000E+001
  0.18232578790E+008,  0.20091146198E+007,  0.19000000000E+002,  0.00000000000E+000,  0.10000000000E+001
  0.18232728790E+008,  0.20096818554E+007,  0.19000000000E+002,  0.00000000000E+000,  0.10000000000E+001
  0.18232878790E+008,  0.20102667513E+007,  0.19000000000E+002,  0.00000000000E+000,  0.10000000000E+001
  0.18233028790E+008,  0.20108691686E+007,  0.19000000000E+002,  0.00000000000E+000,  0.10000000000E+001
  0.18233178790E+008,  0.20114888908E+007,  0.19000000000E+002,  0.00000000000E+000,  0.10000000000E+001
  0.18233328790E+008,  0.20121256462E+007,  0.19000000000E+002,  0.00000000000E+000,  0.10000000000E+001
  0.18233478790E+008,  0.20127791261E+007,  0.19000000000E+002,  0.00000000000E+000,  0.10000000000E+001
  0.18233628790E+008,  0.20134489986E+007,  0.19000000000E+002,  0.00000000000E+000,  0.10000000000E+001
  0.18233778790E+008,  0.20141349194E+007,  0.19000000000E+002,  0.00000000000E+000,  0.10000000000E+001
  0.18233928790E+008,  0.20148365393E+007,  0.19000000000E+002,  0.00000000000E+000,  0.10000000000E+001
  0.18234078790E+008,  0.20155535103E+007,  0.19000000000E+002,  0.00000000000E+000,  0.10000000000E+001
  0.18234228790E+008,  0.20162854889E+007,  0.19000000000E+002,  0.00000000000E+000,  0.10000000000E+001
  0.18234378790E+008,  0.20170321392E+007,  0.19000000000E+002,  0.00000000000E+000,  0.10000000000E+001
  0.18234528790E+008,  0.20177931344E+007,  0.19000000000E+002,  0.00000000000E+000,  0.10000000000E+001
  0.18234678790E+008,  0.20185681577E+007,  0.19000000000E+002,  0.00000000000E+000,  0.10000000000E+001
  0.18234828790E+008,  0.20193569028E+007,  0.19000000000E+002,  0.00000000000E+000,  0.10000000000E+001
  0.18234978790E+008,  0.20201590740E+007,  0.19000000000E+002,  0.00000000000E+000,  0.10000000000E+001
  0.18235128790E+008,  0.20209743856E+007,  0.19000000000E+002,  0.00000000000E+000,  0.10000000000E+001
  0.18235278790E+008,  0.20218025620E+007,  0.19000000000E+002,  0.00000000000E+000,  0.10000000000E+001
  0.18235428790E+008,  0.20226433373E+007,  0.19000000000E+002,  0.00000000000E+000,  0.10000000000E+001
  0.18235578790E+008,  0.20234964541E+007,  0.19000000000E+002,  0.00000000000E+000,  0.10000000000E+001
  0.18235728790E+008,  0.20243616638E+007,  0.19000000000E+002,  0.00000000000E+000,  0.10000000000E+001
  0.18235878790E+008,  0.20252387256E+007,  0.19000000000E+002,  0.00000000000E+000,  0.10000000000E+001
  0.18236028790E+008,  0.20261274059E+007,  0.19000000000E+002,  0.00000000000E+000,  0.10000000000E+001
  0.18236178790E+008,  0.20270274783E+007,  0.19000000000E+002,  0.00000000000E+000,  0.10000000000E+001
  0.18236328790E+008,  0.20279387228E+007,  0.19000000000E+002,  0.00000000000E+000,  0.10000000000E+001
  0.18236478790E+008,  0.20288609255E+007,  0.19000000000E+002,  0.00000000000E+000,  0.10000000000E+001
  0.18236628790E+008,  0.20297938780E+007,  0.19000000000E+002,  0.00000000000E+000,  0.10000000000E+001
  0.18236778790E+008,  0.20307373775E+007,  0.19000000000E+002,  0.00000000000E+000,  0.10000000000E+001
  0.18236928790E+008,  0.20316912262E+007,  0.19000000000E+002,  0.00000000000E+000,  0.10000000000E+001
  0.18237078790E+008,  0.20326552310E+007,  0.19000000000E+002,  0.00000000000E+000,  0.10000000000E+001
  0.18237228790E+008,  0.20336292033E+007,  0.19000000000E+002,  0.00000000000E+000,  0.10000000000E+001
  0.18237378790E+008,  0.20346129590E+007,  0.19000000000E+002,  0.00000000000E+000,  0.10000000000E+001
  0.18237528790E+008,  0.20356063178E+007,  0.19000000000E+002,  0.00000000000E+000,  0.10000000000E+001
  0.18237678790E+008,  0.20366091035E+007,  0.19000000000E+002,  0.00000000000E+000,  0.10000000000E+001
  0.18237828790E+008,  0.20376211436E+007,  0.19000000000E+002,  0.00000000000E+000,  0.10000000000E+001
  0.18237978790E+008,  0.20386422692E+007,  0.19000000000E+002,  0.00000000000E+000,  0.10000000000E+001
  0.18238128790E+008,  0.20396723147E+007,  0.19000000000E+002,  0.00000000000E+000,  0.10000000000E+001
  0.18238278790E+008,  0.20407111181E+007,  0.19000000000E+002,  0.00000000000E+000,  0.10000000000E+001
  0.18238428790E+008,  0.20417585204E+007,  0.19000000000E+002,  0.00000000000E+000,  0.10000000000E+001
  0.18238578790E+008,  0.20428143657E+007,  0.19000000000E+002,  0.00000000000E+000,  0.10000000000E+001
  0.18238728790E+008,  0.20438785011E+007,  0.19000000000E+002,  0.00000000000E+000,  0.10000000000E+001
  0.18238878790E+008,  0.20449507768E+007,  0.19000000000E+002,  0.00000000000E+000,  0.10000000000E+001
  0.18239028790E+008,  0.20460310455E+007,  0.19000000000E+002,  0.00000000000E+000,  0.10000000000E+001
  0.18239178790E+008,  0.20471191630E+007,  0.19000000000E+002,  0.00000000000E+000,  0.10000000000E+001
  0.18239328790E+008,  0.20482149875E+007,  0.19000000000E+002,  0.00000000000E+000,  0.10000000000E+001
  0.18239478790E+008,  0.20493183799E+007,  0.19000000000E+002,  0.00000000000E+000,  0.10000000000E+001
  0.18239628790E+008,  0.20504292038E+007,  0.19000000000E+002,  0.00000000000E+000,  0.10000000000E+001
  0.18239778790E+008,  0.20515473249E+007,  0.19000000000E+002,  0.00000000000E+000,  0.10000000000E+001
  0.18239928790E+008,  0.20526726116E+007,  0.19000000000E+002,  0.00000000000E+000,  0.10000000000E+001
  0.18240078790E+008,  0.20538049348E+007,  0.19000000000E+002,  0.00000000000E+000,  0.10000000000E+001
  0.18240228790E+008,  0.20549441672E+007,  0.19000000000E+002,  0.00000000000E+000,  0.10000000000E+001
  0.18240378790E+008,  0.20560901844E+007,  0.19000000000E+002,  0.00000000000E+000,  0.10000000000E+001
  0.18240528790E+008,  0.20572428637E+007,  0.19000000000E+002,  0.00000000000E+000,  0.10000000000E+001
  0.18240678790E+008,  0.20584020848E+007,  0.19000000000E+002,  0.00000000000E+000,  0.10000000000E+001
  0.18240828790E+008,  0.20595677294E+007,  0.19000000000E+002,  0.00000000000E+000,  0.10000000000E+001
  0.18240978790E+008,  0.20607396816E+007,  0.19000000000E+002,  0.00000000000E+000,  0.10000000000E+001
  0.18241128790E+008,  0.20619178271E+007,  0.19000000000E+002,  0.00000000000E+000,  0.10000000000E+001
  0.18241278790E+008,  0.20631020539E+007,  0.19000000000E+002,  0.00000000000E+000,  0.10000000000E+001
  0.18241428790E+008,  0.20642922517E+007,  0.19000000000E+002,  0.00000000000E+000,  0.10000000000E+001
  0.18241578790E+008,  0.20654883125E+007,  0.19000000000E+002,  0.00000000000E+000,  0.10000000000E+001
  0.18241728790E+008,  0.20666901299E+007,  0.19000000000E+002,  0.00000000000E+000,  0.10000000000E+001
  0.18241878790E+008,  0.20678975993E+007,  0.19000000000E+002,  0.00000000000E+000,  0.10000000000E+001
  0.18242028790E+008,  0.20691106182E+007,  0.19000000000E+002,  0.00000000000E+000,  0.10000000000E+001
  0.18242178790E+008,  0.20703290855E+007,  0.19000000000E+002,  0.00000000000E+000,  0.10000000000E+001
  0.18242328790E+008,  0.20715529023E+007,  0.19000000000E+002,  0.00000000000E+000,  0.10000000000E+001
  0.18242478790E+008,  0.20727819711E+007,  0.19000000000E+002,  0.00000000000E+000,  0.10000000000E+001
  0.18242628790E+008,  0.20740161961E+007,  0.19000000000E+002,  0.00000000000E+000,  0.10000000000E+001
  0.18242778790E+008,  0.20752554833E+007,  0.19000000000E+002,  0.00000000000E+000,  0.10000000000E+001
  0.18242928790E+008,  0.20764997401E+007,  0.19000000000E+002,  0.00000000000E+000,  0.10000000000E+001
  0.18243078790E+008,  0.20777488759E+007,  0.19000000000E+002,  0.00000000000E+000,  0.10000000000E+001
  0.18243228790E+008,  0.20790028012E+007,  0.19000000000E+002,  0.00000000000E+000,  0.10000000000E+001
  0.18243378790E+008,  0.20802614284E+007,  0.19000000000E+002,  0.00000000000E+000,  0.10000000000E+001
  0.18243528790E+008,  0.20815246711E+007,  0.19000000000E+002,  0.00000000000E+000,  0.10000000000E+001
  0.18243678790E+008,  0.20827924448E+007,  0.19000000000E+002,  0.00000000000E+000,  0.10000000000E+001
  0.18243828790E+008,  0.20840646660E+007,  0.19000000000E+002,  0.00000000000E+000,  0.10000000000E+001
  0.18243978790E+008,  0.20853412529E+007,  0.19000000000E+002,  0.00000000000E+000,  0.10000000000E+001
  0.18244128790E+008,  0.20866221251E+007,  0.19000000000E+002,  0.00000000000E+000,  0.10000000000E+001
  0.18244278790E+008,  0.20879072035E+007,  0.19000000000E+002,  0.00000000000E+000,  0.10000000000E+001
  0.18244428790E+008,  0.20891964105E+007,  0.19000000000E+002,  0.00000000000E+000,  0.10000000000E+001
  0.18244578790E+008,  0.20904896697E+007,  0.19000000000E+002,  0.00000000000E+000,  0.10000000000E+001
  0.18244728790E+008,  0.20917869060E+007,  0.19000000000E+002,  0.00000000000E+000,  0.10000000000E+001
  0.18244878790E+008,  0.20930880457E+007,  0.19000000000E+002,  0.00000000000E+000,  0.10000000000E+001
  0.18245028790E+008,  0.20943930163E+007,  0.19000000000E+002,  0.00000000000E+000,  0.10000000000E+001
  0.18245178790E+008,  0.20957017465E+007,  0.19000000000E+002,  0.00000000000E+000,  0.10000000000E+001
  0.18245328790E+008,  0.20970141665E+007,  0.19000000000E+002,  0.00000000000E+000,  0.10000000000E+001
  0.18245478790E+008,  0.20983302073E+007,  0.19000000000E+002,  0.00000000000E+000,  0.10000000000E+001
  0.18245628790E+008,  0.20996498013E+007,  0.19000000000E+002,  0.00000000000E+000,  0.10000000000E+001
  0.18245778790E+008,  0.21009728822E+007,  0.19000000000E+002,  0.00000000000E+000,  0.10000000000E+001
  0.18245928790E+008,  0.21022993844E+007,  0.19000000000E+002,  0.00000000000E+000,  0.10000000000E+001
  0.18246078790E+008,  0.21036292440E+007,  0.19000000000E+002,  0.00000000000E+000,  0.10000000000E+001
  0.18246228790E+008,  0.21049623977E+007,  0.19000000000E+002,  0.00000000000E+000,  0.10000000000E+001
  0.18246378790E+008,  0.21062987836E+007,  0.19000000000E+002,  0.00000000000E+000,  0.10000000000E+001
  0.18246528790E+008,  0.21076383407E+007,  0.19000000000E+002,  0.00000000000E+000,  0.10000000000E+001
  0.18246678790E+008,  0.21089810091E+007,  0.19000000000E+002,  0.00000000000E+000,  0.10000000000E+001
  0.18246828790E+008,  0.21103267300E+007,  0.19000000000E+002,  0.00000000000E+000,  0.10000000000E+001
  0.18246978790E+008,  0.21116754455E+007,  0.19000000000E+002,  0.00000000000E+000,  0.10000000000E+001
  0.18247128790E+008,  0.21130270987E+007,  0.19000000000E+002,  0.00000000000E+000,  0.10000000000E+001
  0.18247278790E+008,  0.21143816338E+007,  0.19000000000E+002,  0.00000000000E+000,  0.10000000000E+001
  0.18247428790E+008,  0.21157389959E+007,  0.19000000000E+002,  0.00000000000E+000,  0.10000000000E+001
  0.18247578790E+008,  0.21170991309E+007,  0.19000000000E+002,  0.00000000000E+000,  0.10000000000E+001
  0.18247728790E+008,  0.21184619858E+007,  0.19000000000E+002,  0.00000000000E+000,  0.10000000000E+001
  0.18247878790E+008,  0.21198275085E+007,  0.19000000000E+002,  0.00000000000E+000,  0.10000000000E+001
  0.18248028790E+008,  0.21211956476E+007,  0.19000000000E+002,  0.00000000000E+000,  0.10000000000E+001
  0.18248178790E+008,  0.21225663530E+007,  0.19000000000E+002,  0.00000000000E+000,  0.10000000000E+001
  0.18248328790E+008,  0.21239395749E+007,  0.19000000000E+002,  0.00000000000E+000,  0.10000000000E+001
  0.18248478790E+008,  0.21253152649E+007,  0.19000000000E+002,  0.00000000000E+000,  0.10000000000E+001
  0.18248628790E+008,  0.21266933751E+007,  0.19000000000E+002,  0.00000000000E+000,  0.10000000000E+001
  0.18248778790E+008,  0.21280738584E+007,  0.19000000000E+002,  0.00000000000E+000,  0.10000000000E+001
  0.18248928790E+008,  0.21294566687E+007,  0.19000000000E+002,  0.00000000000E+000,  0.10000000000E+001
  0.18249078790E+008,  0.21308417606E+007,  0.19000000000E+002,  0.00000000000E+000,  0.10000000000E+001
  0.18249228790E+008,  0.21322290894E+007,  0.19000000000E+002,  0.00000000000E+000,  0.10000000000E+001
  0.18249378790E+008,  0.21336186114E+007,  0.19000000000E+002,  0.00000000000E+000,  0.10000000000E+001
  0.18249528790E+008,  0.21350102834E+007,  0.19000000000E+002,  0.00000000000E+000,  0.10000000000E+001
  0.18249678790E+008,  0.21364040630E+007,  0.19000000000E+002,  0.00000000000E+000,  0.10000000000E+001
  0.18249828790E+008,  0.21377999087E+007,  0.19000000000E+002,  0.00000000000E+000,  0.10000000000E+001
  0.18249978790E+008,  0.21391977794E+007,  0.19000000000E+002,  0.00000000000E+000,  0.10000000000E+001
  0.18250128790E+008,  0.21405976351E+007,  0.19000000000E+002,  0.00000000000E+000,  0.10000000000E+001
  0.18250278790E+008,  0.21419994360E+007,  0.19000000000E+002,  0.00000000000E+000,  0.10000000000E+001
  0.18250428790E+008,  0.21434031435E+007,  0.19000000000E+002,  0.00000000000E+000,  0.10000000000E+001
  0.18250578790E+008,  0.21448087192E+007,  0.19000000000E+002,  0.00000000000E+000,  0.10000000000E+001
  0.18250728790E+008,  0.21462161258E+007,  0.19000000000E+002,  0.00000000000E+000,  0.10000000000E+001
  0.18250878790E+008,  0.21476253262E+007,  0.19000000000E+002,  0.00000000000E+000,  0.10000000000E+001
  0.18251028790E+008,  0.21490362842E+007,  0.19000000000E+002,  0.00000000000E+000,  0.10000000000E+001
  0.18251178790E+008,  0.21504489642E+007,  0.19000000000E+002,  0.00000000000E+000,  0.10000000000E+001
  0.18251328790E+008,  0.21518633312E+007,  0.19000000000E+002,  0.00000000000E+000,  0.10000000000E+001
  0.18251478790E+008,  0.21532793508E+007,  0.19000000000E+002,  0.00000000000E+000,  0.10000000000E+001
  0.18251628790E+008,  0.21546969890E+007,  0.19000000000E+002,  0.00000000000E+000,  0.10000000000E+001
  0.18251778790E+008,  0.21561162126E+007,  0.19000000000E+002,  0.00000000000E+000,  0.10000000000E+001
  0.18251928790E+008,  0.21575369890E+007,  0.19000000000E+002,  0.00000000000E+000,  0.10000000000E+001
  0.18252078790E+008,  0.21589592861E+007,  0.19000000000E+002,  0.00000000000E+000,  0.10000000000E+001
  0.18252228790E+008,  0.21603830721E+007,  0.19000000000E+002,  0.00000000000E+000,  0.10000000000E+001
  0.18252378790E+008,  0.21618083162E+007,  0.19000000000E+002,  0.00000000000E+000,  0.10000000000E+001
  0.18252528790E+008,  0.21632349878E+007,  0.19000000000E+002,  0.00000000000E+000,  0.10000000000E+001
  0.18252678790E+008,  0.21646630569E+007,  0.19000000000E+002,  0.00000000000E+000,  0.10000000000E+001
  0.18252828790E+008,  0.21660924940E+007,  0.19000000000E+002,  0.00000000000E+000,  0.10000000000E+001
  0.18252978790E+008,  0.21675232701E+007,  0.19000000000E+002,  0.00000000000E+000,  0.10000000000E+001
  0.18253128790E+008,  0.21689553569E+007,  0.19000000000E+002,  0.00000000000E+000,  0.10000000000E+001
  0.18253278790E+008,  0.21703887262E+007,  0.19000000000E+002,  0.00000000000E+000,  0.10000000000E+001
  0.18253428790E+008,  0.21718233506E+007,  0.19000000000E+002,  0.00000000000E+000,  0.10000000000E+001
  0.18253578790E+008,  0.21732592031E+007,  0.19000000000E+002,  0.00000000000E+000,  0.10000000000E+001
  0.18253728790E+008,  0.21746962570E+007,  0.19000000000E+002,  0.00000000000E+000,  0.10000000000E+001
  0.18253878790E+008,  0.21761344863E+007,  0.19000000000E+002,  0.00000000000E+000,  0.10000000000E+001
  0.18254028790E+008,  0.21775738652E+007,  0.19000000000E+002,  0.00000000000E+000,  0.10000000000E+001
  0.18254178790E+008,  0.21790143685E+007,  0.19000000000E+002,  0.00000000000E+000,  0.10000000000E+001
  0.18254328790E+008,  0.21804559715E+007,  0.19000000000E+002,  0.00000000000E+000,  0.10000000000E+001
  0.18254478790E+008,  0.21818986496E+007,  0.19000000000E+002,  0.00000000000E+000,  0.10000000000E+001
  0.18254628790E+008,  0.21833423790E+007,  0.19000000000E+002,  0.00000000000E+000,  0.10000000000E+001
  0.18254778790E+008,  0.21847871360E+007,  0.19000000000E+002,  0.00000000000E+000,  0.10000000000E+001
  0.18254928790E+008,  0.21862328976E+007,  0.19000000000E+002,  0.00000000000E+000,  0.10000000000E+001
  0.18255078790E+008,  0.21876796408E+007,  0.19000000000E+002,  0.00000000000E+000,  0.10000000000E+001
  0.18255228790E+008,  0.21891273435E+007,  0.19000000000E+002,  0.00000000000E+000,  0.10000000000E+001
