"           TIME(S)","              PRES","              TEMP","             SAT_G","             SAT_L"
  0.18228740000E+008,  0.20012664257E+007,  0.19000000000E+002,  0.10000000000E+001,  0.00000000000E+000
  0.18228890000E+008,  0.20021073091E+007,  0.19000000000E+002,  0.10000000000E+001,  0.00000000000E+000
  0.18229040000E+008,  0.20025965971E+007,  0.19000000000E+002,  0.10000000000E+001,  0.00000000000E+000
  0.18229190000E+008,  0.20030270040E+007,  0.19000000000E+002,  0.10000000000E+001,  0.00000000000E+000
  0.18229340000E+008,  0.20034384875E+007,  0.19000000000E+002,  0.10000000000E+001,  0.00000000000E+000
  0.18229490000E+008,  0.20038388850E+007,  0.19000000000E+002,  0.10000000000E+001,  0.00000000000E+000
  0.18229640000E+008,  0.20042397094E+007,  0.19000000000E+002,  0.10000000000E+001,  0.00000000000E+000
  0.18229715000E+008,  0.20044394044E+007,  0.19000000000E+002,  0.10000000000E+001,  0.00000000000E+000
  0.18229865000E+008,  0.20048210729E+007,  0.19000000000E+002,  0.10000000000E+001,  0.00000000000E+000
  0.18230015000E+008,  0.20051941525E+007,  0.19000000000E+002,  0.10000000000E+001,  0.00000000000E+000
  0.18230165000E+008,  0.20055600894E+007,  0.19000000000E+002,  0.10000000000E+001,  0.00000000000E+000
  0.18230315000E+008,  0.20059194584E+007,  0.19000000000E+002,  0.10000000000E+001,  0.00000000000E+000
  0.18230465000E+008,  0.20062726324E+007,  0.19000000000E+002,  0.10000000000E+001,  0.00000000000E+000
  0.18230615000E+008,  0.20066304952E+007,  0.19000000000E+002,  0.10000000000E+001,  0.00000000000E+000
  0.18230690001E+008,  0.20068157520E+007,  0.19000000000E+002,  0.10000000000E+001,  0.00000000000E+000
  0.18230727501E+008,  0.20069100383E+007,  0.19000000000E+002,  0.10000000000E+001,  0.00000000000E+000
  0.18230877501E+008,  0.20072939611E+007,  0.19000000000E+002,  0.10000000000E+001,  0.00000000000E+000
  0.18231027501E+008,  0.20076780672E+007,  0.19000000000E+002,  0.10000000000E+001,  0.00000000000E+000
  0.18231102502E+008,  0.20078753757E+007,  0.19000000000E+002,  0.10000000000E+001,  0.00000000000E+000
  0.18231140002E+008,  0.20079739605E+007,  0.19000000000E+002,  0.10000000000E+001,  0.00000000000E+000
  0.18231158752E+008,  0.20080236971E+007,  0.19000000000E+002,  0.10000000000E+001,  0.00000000000E+000
  0.18231168128E+008,  0.20080489887E+007,  0.19000000000E+002,  0.10000000000E+001,  0.00000000000E+000
  0.18231215004E+008,  0.20081737704E+007,  0.19000000000E+002,  0.10000000000E+001,  0.00000000000E+000
  0.18231365004E+008,  0.20085682397E+007,  0.19000000000E+002,  0.10000000000E+001,  0.00000000000E+000
  0.18231440004E+008,  0.20087660256E+007,  0.19000000000E+002,  0.10000000000E+001,  0.00000000000E+000
  0.18231477505E+008,  0.20088655055E+007,  0.19000000000E+002,  0.10000000000E+001,  0.00000000000E+000
  0.18231496255E+008,  0.20089154358E+007,  0.19000000000E+002,  0.10000000000E+001,  0.00000000000E+000
  0.18231505630E+008,  0.20089404570E+007,  0.19000000000E+002,  0.10000000000E+001,  0.00000000000E+000
  0.18231552506E+008,  0.20090663323E+007,  0.19000000000E+002,  0.10000000000E+001,  0.00000000000E+000
  0.18231702506E+008,  0.20094686435E+007,  0.19000000000E+002,  0.10000000000E+001,  0.00000000000E+000
  0.18231777507E+008,  0.20096691401E+007,  0.19000000000E+002,  0.10000000000E+001,  0.00000000000E+000
  0.18231927507E+008,  0.20100657030E+007,  0.19000000000E+002,  0.10000000000E+001,  0.00000000000E+000
  0.18232002507E+008,  0.20102680941E+007,  0.19000000000E+002,  0.10000000000E+001,  0.00000000000E+000
  0.18232040008E+008,  0.20103722024E+007,  0.19000000000E+002,  0.10000000000E+001,  0.00000000000E+000
  0.18232058758E+008,  0.20104250257E+007,  0.19000000000E+002,  0.10000000000E+001,  0.00000000000E+000
  0.18232068133E+008,  0.20104516745E+007,  0.19000000000E+002,  0.10000000000E+001,  0.00000000000E+000
  0.18232072821E+008,  0.20104650531E+007,  0.19000000000E+002,  0.10000000000E+001,  0.00000000000E+000
  0.18232096259E+008,  0.20105326460E+007,  0.19000000000E+002,  0.10000000000E+001,  0.00000000000E+000
  0.18232107978E+008,  0.20105667450E+007,  0.19000000000E+002,  0.10000000000E+001,  0.00000000000E+000
  0.18232113838E+008,  0.20105838762E+007,  0.19000000000E+002,  0.10000000000E+001,  0.00000000000E+000
  0.18232143136E+008,  0.20106707838E+007,  0.19000000000E+002,  0.10000000000E+001,  0.00000000000E+000
  0.18232157785E+008,  0.20107144062E+007,  0.19000000000E+002,  0.10000000000E+001,  0.00000000000E+000
  0.18232231031E+008,  0.20109312392E+007,  0.19000000000E+002,  0.10000000000E+001,  0.00000000000E+000
  0.18232381031E+008,  0.20113741824E+007,  0.19000000000E+002,  0.10000000000E+001,  0.00000000000E+000
  0.18232456032E+008,  0.20115996611E+007,  0.19000000000E+002,  0.10000000000E+001,  0.00000000000E+000
  0.18232493532E+008,  0.20117133222E+007,  0.19000000000E+002,  0.10000000000E+001,  0.00000000000E+000
  0.18232512282E+008,  0.20117703957E+007,  0.19000000000E+002,  0.10000000000E+001,  0.00000000000E+000
  0.18232606034E+008,  0.20120564271E+007,  0.19000000000E+002,  0.10000000000E+001,  0.00000000000E+000
  0.18232756034E+008,  0.20125140097E+007,  0.19000000000E+002,  0.10000000000E+001,  0.00000000000E+000
  0.18232906034E+008,  0.20129716417E+007,  0.19000000000E+002,  0.10000000000E+001,  0.00000000000E+000
  0.18233056034E+008,  0.20134293426E+007,  0.19000000000E+002,  0.10000000000E+001,  0.00000000000E+000
  0.18233206034E+008,  0.20138870861E+007,  0.19000000000E+002,  0.10000000000E+001,  0.00000000000E+000
  0.18233356034E+008,  0.20143448487E+007,  0.19000000000E+002,  0.10000000000E+001,  0.00000000000E+000
  0.18233506034E+008,  0.20148026162E+007,  0.19000000000E+002,  0.10000000000E+001,  0.00000000000E+000
  0.18233656034E+008,  0.20152603806E+007,  0.19000000000E+002,  0.10000000000E+001,  0.00000000000E+000
  0.18233806034E+008,  0.20157181374E+007,  0.19000000000E+002,  0.10000000000E+001,  0.00000000000E+000
  0.18233956034E+008,  0.20161758844E+007,  0.19000000000E+002,  0.10000000000E+001,  0.00000000000E+000
  0.18234106034E+008,  0.20166336199E+007,  0.19000000000E+002,  0.10000000000E+001,  0.00000000000E+000
  0.18234256034E+008,  0.20170913431E+007,  0.19000000000E+002,  0.10000000000E+001,  0.00000000000E+000
  0.18234406034E+008,  0.20175490533E+007,  0.19000000000E+002,  0.10000000000E+001,  0.00000000000E+000
  0.18234556034E+008,  0.20180067500E+007,  0.19000000000E+002,  0.10000000000E+001,  0.00000000000E+000
  0.18234706034E+008,  0.20184644330E+007,  0.19000000000E+002,  0.10000000000E+001,  0.00000000000E+000
  0.18234856034E+008,  0.20189221018E+007,  0.19000000000E+002,  0.10000000000E+001,  0.00000000000E+000
  0.18235006034E+008,  0.20193797564E+007,  0.19000000000E+002,  0.10000000000E+001,  0.00000000000E+000
  0.18235156034E+008,  0.20198373965E+007,  0.19000000000E+002,  0.10000000000E+001,  0.00000000000E+000
  0.18235306034E+008,  0.20202950219E+007,  0.19000000000E+002,  0.10000000000E+001,  0.00000000000E+000
  0.18235456034E+008,  0.20207526327E+007,  0.19000000000E+002,  0.10000000000E+001,  0.00000000000E+000
  0.18235606034E+008,  0.20212102286E+007,  0.19000000000E+002,  0.10000000000E+001,  0.00000000000E+000
  0.18235756034E+008,  0.20216678096E+007,  0.19000000000E+002,  0.10000000000E+001,  0.00000000000E+000
  0.18235906034E+008,  0.20221253758E+007,  0.19000000000E+002,  0.10000000000E+001,  0.00000000000E+000
  0.18236056034E+008,  0.20225829269E+007,  0.19000000000E+002,  0.10000000000E+001,  0.00000000000E+000
  0.18236206034E+008,  0.20230404632E+007,  0.19000000000E+002,  0.10000000000E+001,  0.00000000000E+000
  0.18236356034E+008,  0.20234979845E+007,  0.19000000000E+002,  0.10000000000E+001,  0.00000000000E+000
  0.18236506034E+008,  0.20239554909E+007,  0.19000000000E+002,  0.10000000000E+001,  0.00000000000E+000
  0.18236656034E+008,  0.20244129825E+007,  0.19000000000E+002,  0.10000000000E+001,  0.00000000000E+000
  0.18236806034E+008,  0.20248704591E+007,  0.19000000000E+002,  0.10000000000E+001,  0.00000000000E+000
  0.18236956034E+008,  0.20253279210E+007,  0.19000000000E+002,  0.10000000000E+001,  0.00000000000E+000
  0.18237106034E+008,  0.20257853681E+007,  0.19000000000E+002,  0.10000000000E+001,  0.00000000000E+000
  0.18237256034E+008,  0.20262428005E+007,  0.19000000000E+002,  0.10000000000E+001,  0.00000000000E+000
  0.18237406034E+008,  0.20267002182E+007,  0.19000000000E+002,  0.10000000000E+001,  0.00000000000E+000
  0.18237556034E+008,  0.20271576214E+007,  0.19000000000E+002,  0.10000000000E+001,  0.00000000000E+000
  0.18237706034E+008,  0.20276150100E+007,  0.19000000000E+002,  0.10000000000E+001,  0.00000000000E+000
  0.18237856034E+008,  0.20280723841E+007,  0.19000000000E+002,  0.10000000000E+001,  0.00000000000E+000
  0.18238006034E+008,  0.20285297439E+007,  0.19000000000E+002,  0.10000000000E+001,  0.00000000000E+000
  0.18238156034E+008,  0.20289870893E+007,  0.19000000000E+002,  0.10000000000E+001,  0.00000000000E+000
  0.18238306034E+008,  0.20294444204E+007,  0.19000000000E+002,  0.10000000000E+001,  0.00000000000E+000
  0.18238456034E+008,  0.20299017373E+007,  0.19000000000E+002,  0.10000000000E+001,  0.00000000000E+000
  0.18238606034E+008,  0.20303590401E+007,  0.19000000000E+002,  0.10000000000E+001,  0.00000000000E+000
  0.18238756034E+008,  0.20308163289E+007,  0.19000000000E+002,  0.10000000000E+001,  0.00000000000E+000
  0.18238906034E+008,  0.20312736036E+007,  0.19000000000E+002,  0.10000000000E+001,  0.00000000000E+000
  0.18239056034E+008,  0.20317308644E+007,  0.19000000000E+002,  0.10000000000E+001,  0.00000000000E+000
  0.18239206034E+008,  0.20321881114E+007,  0.19000000000E+002,  0.10000000000E+001,  0.00000000000E+000
  0.18239356034E+008,  0.20326453445E+007,  0.19000000000E+002,  0.10000000000E+001,  0.00000000000E+000
  0.18239506034E+008,  0.20331025639E+007,  0.19000000000E+002,  0.10000000000E+001,  0.00000000000E+000
  0.18239656034E+008,  0.20335597697E+007,  0.19000000000E+002,  0.10000000000E+001,  0.00000000000E+000
  0.18239806034E+008,  0.20340169618E+007,  0.19000000000E+002,  0.10000000000E+001,  0.00000000000E+000
  0.18239956034E+008,  0.20344741404E+007,  0.19000000000E+002,  0.10000000000E+001,  0.00000000000E+000
  0.18240106034E+008,  0.20349313056E+007,  0.19000000000E+002,  0.10000000000E+001,  0.00000000000E+000
  0.18240256034E+008,  0.20353884573E+007,  0.19000000000E+002,  0.10000000000E+001,  0.00000000000E+000
  0.18240406034E+008,  0.20358455956E+007,  0.19000000000E+002,  0.10000000000E+001,  0.00000000000E+000
  0.18240556034E+008,  0.20363027207E+007,  0.19000000000E+002,  0.10000000000E+001,  0.00000000000E+000
  0.18240706034E+008,  0.20367598326E+007,  0.19000000000E+002,  0.10000000000E+001,  0.00000000000E+000
  0.18240856034E+008,  0.20372169312E+007,  0.19000000000E+002,  0.10000000000E+001,  0.00000000000E+000
  0.18241006034E+008,  0.20376740168E+007,  0.19000000000E+002,  0.10000000000E+001,  0.00000000000E+000
  0.18241156034E+008,  0.20381310893E+007,  0.19000000000E+002,  0.10000000000E+001,  0.00000000000E+000
  0.18241306034E+008,  0.20385881488E+007,  0.19000000000E+002,  0.10000000000E+001,  0.00000000000E+000
  0.18241456034E+008,  0.20390451953E+007,  0.19000000000E+002,  0.10000000000E+001,  0.00000000000E+000
  0.18241606034E+008,  0.20395022289E+007,  0.19000000000E+002,  0.10000000000E+001,  0.00000000000E+000
  0.18241756034E+008,  0.20399592497E+007,  0.19000000000E+002,  0.10000000000E+001,  0.00000000000E+000
  0.18241906034E+008,  0.20404162578E+007,  0.19000000000E+002,  0.10000000000E+001,  0.00000000000E+000
  0.18242056034E+008,  0.20408732530E+007,  0.19000000000E+002,  0.10000000000E+001,  0.00000000000E+000
  0.18242206034E+008,  0.20413302356E+007,  0.19000000000E+002,  0.10000000000E+001,  0.00000000000E+000
  0.18242356034E+008,  0.20417872056E+007,  0.19000000000E+002,  0.10000000000E+001,  0.00000000000E+000
  0.18242506034E+008,  0.20422441629E+007,  0.19000000000E+002,  0.10000000000E+001,  0.00000000000E+000
  0.18242656034E+008,  0.20427011077E+007,  0.19000000000E+002,  0.10000000000E+001,  0.00000000000E+000
  0.18242806034E+008,  0.20431580400E+007,  0.19000000000E+002,  0.10000000000E+001,  0.00000000000E+000
  0.18242956034E+008,  0.20436149599E+007,  0.19000000000E+002,  0.10000000000E+001,  0.00000000000E+000
  0.18243106034E+008,  0.20440718673E+007,  0.19000000000E+002,  0.10000000000E+001,  0.00000000000E+000
  0.18243256034E+008,  0.20445287624E+007,  0.19000000000E+002,  0.10000000000E+001,  0.00000000000E+000
  0.18243406034E+008,  0.20449856452E+007,  0.19000000000E+002,  0.10000000000E+001,  0.00000000000E+000
  0.18243556034E+008,  0.20454425157E+007,  0.19000000000E+002,  0.10000000000E+001,  0.00000000000E+000
  0.18243706034E+008,  0.20458993740E+007,  0.19000000000E+002,  0.10000000000E+001,  0.00000000000E+000
  0.18243856034E+008,  0.20463562200E+007,  0.19000000000E+002,  0.10000000000E+001,  0.00000000000E+000
  0.18244006034E+008,  0.20468130540E+007,  0.19000000000E+002,  0.10000000000E+001,  0.00000000000E+000
  0.18244156034E+008,  0.20472698758E+007,  0.19000000000E+002,  0.10000000000E+001,  0.00000000000E+000
  0.18244306034E+008,  0.20477266855E+007,  0.19000000000E+002,  0.10000000000E+001,  0.00000000000E+000
  0.18244456034E+008,  0.20481834832E+007,  0.19000000000E+002,  0.10000000000E+001,  0.00000000000E+000
  0.18244606034E+008,  0.20486402689E+007,  0.19000000000E+002,  0.10000000000E+001,  0.00000000000E+000
  0.18244756034E+008,  0.20490970427E+007,  0.19000000000E+002,  0.10000000000E+001,  0.00000000000E+000
  0.18244906034E+008,  0.20495538045E+007,  0.19000000000E+002,  0.10000000000E+001,  0.00000000000E+000
  0.18245056034E+008,  0.20500105544E+007,  0.19000000000E+002,  0.10000000000E+001,  0.00000000000E+000
  0.18245206034E+008,  0.20504672925E+007,  0.19000000000E+002,  0.10000000000E+001,  0.00000000000E+000
  0.18245356034E+008,  0.20509240188E+007,  0.19000000000E+002,  0.10000000000E+001,  0.00000000000E+000
  0.18245506034E+008,  0.20513807333E+007,  0.19000000000E+002,  0.10000000000E+001,  0.00000000000E+000
  0.18245656034E+008,  0.20518374360E+007,  0.19000000000E+002,  0.10000000000E+001,  0.00000000000E+000
  0.18245806034E+008,  0.20522941270E+007,  0.19000000000E+002,  0.10000000000E+001,  0.00000000000E+000
  0.18245956034E+008,  0.20527508064E+007,  0.19000000000E+002,  0.10000000000E+001,  0.00000000000E+000
  0.18246106034E+008,  0.20532074740E+007,  0.19000000000E+002,  0.10000000000E+001,  0.00000000000E+000
  0.18246256034E+008,  0.20536641301E+007,  0.19000000000E+002,  0.10000000000E+001,  0.00000000000E+000
  0.18246406034E+008,  0.20541207745E+007,  0.19000000000E+002,  0.10000000000E+001,  0.00000000000E+000
  0.18246556034E+008,  0.20545774074E+007,  0.19000000000E+002,  0.10000000000E+001,  0.00000000000E+000
  0.18246706034E+008,  0.20550340287E+007,  0.19000000000E+002,  0.10000000000E+001,  0.00000000000E+000
  0.18246856034E+008,  0.20554906385E+007,  0.19000000000E+002,  0.10000000000E+001,  0.00000000000E+000
  0.18247006034E+008,  0.20559472369E+007,  0.19000000000E+002,  0.10000000000E+001,  0.00000000000E+000
  0.18247156034E+008,  0.20564038238E+007,  0.19000000000E+002,  0.10000000000E+001,  0.00000000000E+000
  0.18247306034E+008,  0.20568603992E+007,  0.19000000000E+002,  0.10000000000E+001,  0.00000000000E+000
  0.18247456034E+008,  0.20573169633E+007,  0.19000000000E+002,  0.10000000000E+001,  0.00000000000E+000
  0.18247606034E+008,  0.20577735160E+007,  0.19000000000E+002,  0.10000000000E+001,  0.00000000000E+000
  0.18247756034E+008,  0.20582300573E+007,  0.19000000000E+002,  0.10000000000E+001,  0.00000000000E+000
  0.18247906034E+008,  0.20586865873E+007,  0.19000000000E+002,  0.10000000000E+001,  0.00000000000E+000
  0.18248056034E+008,  0.20591431060E+007,  0.19000000000E+002,  0.10000000000E+001,  0.00000000000E+000
  0.18248206034E+008,  0.20595996134E+007,  0.19000000000E+002,  0.10000000000E+001,  0.00000000000E+000
  0.18248356034E+008,  0.20600561095E+007,  0.19000000000E+002,  0.10000000000E+001,  0.00000000000E+000
  0.18248506034E+008,  0.20605125944E+007,  0.19000000000E+002,  0.10000000000E+001,  0.00000000000E+000
  0.18248656034E+008,  0.20609690681E+007,  0.19000000000E+002,  0.10000000000E+001,  0.00000000000E+000
  0.18248806034E+008,  0.20614255306E+007,  0.19000000000E+002,  0.10000000000E+001,  0.00000000000E+000
  0.18248956034E+008,  0.20618819820E+007,  0.19000000000E+002,  0.10000000000E+001,  0.00000000000E+000
  0.18249106034E+008,  0.20623384222E+007,  0.19000000000E+002,  0.10000000000E+001,  0.00000000000E+000
  0.18249256034E+008,  0.20627948512E+007,  0.19000000000E+002,  0.10000000000E+001,  0.00000000000E+000
  0.18249406034E+008,  0.20632512692E+007,  0.19000000000E+002,  0.10000000000E+001,  0.00000000000E+000
  0.18249556034E+008,  0.20637076760E+007,  0.19000000000E+002,  0.10000000000E+001,  0.00000000000E+000
  0.18249706034E+008,  0.20641640718E+007,  0.19000000000E+002,  0.10000000000E+001,  0.00000000000E+000
  0.18249856034E+008,  0.20646204565E+007,  0.19000000000E+002,  0.10000000000E+001,  0.00000000000E+000
  0.18250006034E+008,  0.20650768302E+007,  0.19000000000E+002,  0.10000000000E+001,  0.00000000000E+000
  0.18250156034E+008,  0.20655331929E+007,  0.19000000000E+002,  0.10000000000E+001,  0.00000000000E+000
  0.18250306034E+008,  0.20659895445E+007,  0.19000000000E+002,  0.10000000000E+001,  0.00000000000E+000
  0.18250456034E+008,  0.20664458852E+007,  0.19000000000E+002,  0.10000000000E+001,  0.00000000000E+000
  0.18250606034E+008,  0.20669022150E+007,  0.19000000000E+002,  0.10000000000E+001,  0.00000000000E+000
  0.18250756034E+008,  0.20673585337E+007,  0.19000000000E+002,  0.10000000000E+001,  0.00000000000E+000
  0.18250906034E+008,  0.20678148416E+007,  0.19000000000E+002,  0.10000000000E+001,  0.00000000000E+000
  0.18251056034E+008,  0.20682711385E+007,  0.19000000000E+002,  0.10000000000E+001,  0.00000000000E+000
  0.18251206034E+008,  0.20687274245E+007,  0.19000000000E+002,  0.10000000000E+001,  0.00000000000E+000
  0.18251356034E+008,  0.20691836996E+007,  0.19000000000E+002,  0.10000000000E+001,  0.00000000000E+000
  0.18251506034E+008,  0.20696399638E+007,  0.19000000000E+002,  0.10000000000E+001,  0.00000000000E+000
  0.18251656034E+008,  0.20700962172E+007,  0.19000000000E+002,  0.10000000000E+001,  0.00000000000E+000
  0.18251806034E+008,  0.20705524597E+007,  0.19000000000E+002,  0.10000000000E+001,  0.00000000000E+000
  0.18251956034E+008,  0.20710086914E+007,  0.19000000000E+002,  0.10000000000E+001,  0.00000000000E+000
  0.18252106034E+008,  0.20714649123E+007,  0.19000000000E+002,  0.10000000000E+001,  0.00000000000E+000
  0.18252256034E+008,  0.20719211224E+007,  0.19000000000E+002,  0.10000000000E+001,  0.00000000000E+000
  0.18252406034E+008,  0.20723773216E+007,  0.19000000000E+002,  0.10000000000E+001,  0.00000000000E+000
  0.18252556034E+008,  0.20728335101E+007,  0.19000000000E+002,  0.10000000000E+001,  0.00000000000E+000
  0.18252706034E+008,  0.20732896878E+007,  0.19000000000E+002,  0.10000000000E+001,  0.00000000000E+000
  0.18252856034E+008,  0.20737458548E+007,  0.19000000000E+002,  0.10000000000E+001,  0.00000000000E+000
  0.18253006034E+008,  0.20742020110E+007,  0.19000000000E+002,  0.10000000000E+001,  0.00000000000E+000
  0.18253156034E+008,  0.20746581565E+007,  0.19000000000E+002,  0.10000000000E+001,  0.00000000000E+000
  0.18253306034E+008,  0.20751142912E+007,  0.19000000000E+002,  0.10000000000E+001,  0.00000000000E+000
  0.18253456034E+008,  0.20755704152E+007,  0.19000000000E+002,  0.10000000000E+001,  0.00000000000E+000
  0.18253606034E+008,  0.20760265285E+007,  0.19000000000E+002,  0.10000000000E+001,  0.00000000000E+000
  0.18253756034E+008,  0.20764826311E+007,  0.19000000000E+002,  0.10000000000E+001,  0.00000000000E+000
