"           TIME(S)","              PRES","              TEMP","             SAT_G","             SAT_L"
  0.18228740000E+008,  0.20001529039E+007,  0.19000000000E+002,  0.00000000000E+000,  0.10000000000E+001
  0.18228890000E+008,  0.20003441433E+007,  0.19000000000E+002,  0.00000000000E+000,  0.10000000000E+001
  0.18229040000E+008,  0.20004995916E+007,  0.19000000000E+002,  0.00000000000E+000,  0.10000000000E+001
  0.18229190000E+008,  0.20006571485E+007,  0.19000000000E+002,  0.00000000000E+000,  0.10000000000E+001
  0.18229340000E+008,  0.20008149259E+007,  0.19000000000E+002,  0.00000000000E+000,  0.10000000000E+001
  0.18229415000E+008,  0.20009055996E+007,  0.19000000000E+002,  0.00000000000E+000,  0.10000000000E+001
  0.18229452501E+008,  0.20009539596E+007,  0.19000000000E+002,  0.00000000000E+000,  0.10000000000E+001
  0.18229471251E+008,  0.20009790906E+007,  0.19000000000E+002,  0.00000000000E+000,  0.10000000000E+001
  0.18229480626E+008,  0.20009919112E+007,  0.19000000000E+002,  0.00000000000E+000,  0.10000000000E+001
  0.18229485314E+008,  0.20009983865E+007,  0.19000000000E+002,  0.00000000000E+000,  0.10000000000E+001
  0.18229487658E+008,  0.20010016405E+007,  0.19000000000E+002,  0.00000000000E+000,  0.10000000000E+001
  0.18229488829E+008,  0.20010032716E+007,  0.19000000000E+002,  0.00000000000E+000,  0.10000000000E+001
  0.18229494689E+008,  0.20010115224E+007,  0.19000000000E+002,  0.00000000000E+000,  0.10000000000E+001
  0.18229523987E+008,  0.20010525112E+007,  0.19000000000E+002,  0.00000000000E+000,  0.10000000000E+001
  0.18229670477E+008,  0.20012153701E+007,  0.19000000000E+002,  0.00000000000E+000,  0.10000000000E+001
  0.18229743722E+008,  0.20013582981E+007,  0.19000000000E+002,  0.00000000000E+000,  0.10000000000E+001
  0.18229893722E+008,  0.20018254000E+007,  0.19000000000E+002,  0.00000000000E+000,  0.10000000000E+001
  0.18230043722E+008,  0.20023815331E+007,  0.19000000000E+002,  0.00000000000E+000,  0.10000000000E+001
  0.18230193722E+008,  0.20029921718E+007,  0.19000000000E+002,  0.00000000000E+000,  0.10000000000E+001
  0.18230343722E+008,  0.20036415005E+007,  0.19000000000E+002,  0.00000000000E+000,  0.10000000000E+001
  0.18230493722E+008,  0.20043201208E+007,  0.19000000000E+002,  0.00000000000E+000,  0.10000000000E+001
  0.18230643722E+008,  0.20050214570E+007,  0.19000000000E+002,  0.00000000000E+000,  0.10000000000E+001
  0.18230793722E+008,  0.20057405405E+007,  0.19000000000E+002,  0.00000000000E+000,  0.10000000000E+001
  0.18230943722E+008,  0.20064734877E+007,  0.19000000000E+002,  0.00000000000E+000,  0.10000000000E+001
  0.18231093722E+008,  0.20072172199E+007,  0.19000000000E+002,  0.00000000000E+000,  0.10000000000E+001
  0.18231243722E+008,  0.20079692834E+007,  0.19000000000E+002,  0.00000000000E+000,  0.10000000000E+001
  0.18231393722E+008,  0.20087277186E+007,  0.19000000000E+002,  0.00000000000E+000,  0.10000000000E+001
  0.18231543722E+008,  0.20094909603E+007,  0.19000000000E+002,  0.00000000000E+000,  0.10000000000E+001
  0.18231693722E+008,  0.20102577583E+007,  0.19000000000E+002,  0.00000000000E+000,  0.10000000000E+001
  0.18231843722E+008,  0.20110271145E+007,  0.19000000000E+002,  0.00000000000E+000,  0.10000000000E+001
  0.18231993722E+008,  0.20117982320E+007,  0.19000000000E+002,  0.00000000000E+000,  0.10000000000E+001
  0.18232143722E+008,  0.20125704751E+007,  0.19000000000E+002,  0.00000000000E+000,  0.10000000000E+001
  0.18232293722E+008,  0.20133433360E+007,  0.19000000000E+002,  0.00000000000E+000,  0.10000000000E+001
  0.18232443722E+008,  0.20141164099E+007,  0.19000000000E+002,  0.00000000000E+000,  0.10000000000E+001
  0.18232593722E+008,  0.20148893732E+007,  0.19000000000E+002,  0.00000000000E+000,  0.10000000000E+001
  0.18232743722E+008,  0.20156619678E+007,  0.19000000000E+002,  0.00000000000E+000,  0.10000000000E+001
  0.18232893722E+008,  0.20164339873E+007,  0.19000000000E+002,  0.00000000000E+000,  0.10000000000E+001
  0.18233043722E+008,  0.20172052666E+007,  0.19000000000E+002,  0.00000000000E+000,  0.10000000000E+001
  0.18233193722E+008,  0.20179756737E+007,  0.19000000000E+002,  0.00000000000E+000,  0.10000000000E+001
  0.18233343722E+008,  0.20187451027E+007,  0.19000000000E+002,  0.00000000000E+000,  0.10000000000E+001
  0.18233493722E+008,  0.20195134688E+007,  0.19000000000E+002,  0.00000000000E+000,  0.10000000000E+001
  0.18233643722E+008,  0.20202807037E+007,  0.19000000000E+002,  0.00000000000E+000,  0.10000000000E+001
  0.18233793722E+008,  0.20210467525E+007,  0.19000000000E+002,  0.00000000000E+000,  0.10000000000E+001
  0.18233943722E+008,  0.20218115708E+007,  0.19000000000E+002,  0.00000000000E+000,  0.10000000000E+001
  0.18234093722E+008,  0.20225751225E+007,  0.19000000000E+002,  0.00000000000E+000,  0.10000000000E+001
  0.18234243722E+008,  0.20233373786E+007,  0.19000000000E+002,  0.00000000000E+000,  0.10000000000E+001
  0.18234393722E+008,  0.20240983153E+007,  0.19000000000E+002,  0.00000000000E+000,  0.10000000000E+001
  0.18234543722E+008,  0.20248579129E+007,  0.19000000000E+002,  0.00000000000E+000,  0.10000000000E+001
  0.18234693722E+008,  0.20256161553E+007,  0.19000000000E+002,  0.00000000000E+000,  0.10000000000E+001
  0.18234843722E+008,  0.20263730293E+007,  0.19000000000E+002,  0.00000000000E+000,  0.10000000000E+001
  0.18234993722E+008,  0.20271285238E+007,  0.19000000000E+002,  0.00000000000E+000,  0.10000000000E+001
  0.18235143722E+008,  0.20278826292E+007,  0.19000000000E+002,  0.00000000000E+000,  0.10000000000E+001
  0.18235293722E+008,  0.20286353377E+007,  0.19000000000E+002,  0.00000000000E+000,  0.10000000000E+001
  0.18235443722E+008,  0.20293866424E+007,  0.19000000000E+002,  0.00000000000E+000,  0.10000000000E+001
  0.18235593722E+008,  0.20301365375E+007,  0.19000000000E+002,  0.00000000000E+000,  0.10000000000E+001
  0.18235743722E+008,  0.20308850179E+007,  0.19000000000E+002,  0.00000000000E+000,  0.10000000000E+001
  0.18235893722E+008,  0.20316320790E+007,  0.19000000000E+002,  0.00000000000E+000,  0.10000000000E+001
  0.18236043722E+008,  0.20323777168E+007,  0.19000000000E+002,  0.00000000000E+000,  0.10000000000E+001
  0.18236193722E+008,  0.20331219277E+007,  0.19000000000E+002,  0.00000000000E+000,  0.10000000000E+001
  0.18236343722E+008,  0.20338647084E+007,  0.19000000000E+002,  0.00000000000E+000,  0.10000000000E+001
  0.18236493722E+008,  0.20346060559E+007,  0.19000000000E+002,  0.00000000000E+000,  0.10000000000E+001
  0.18236643722E+008,  0.20353459675E+007,  0.19000000000E+002,  0.00000000000E+000,  0.10000000000E+001
  0.18236793722E+008,  0.20360844405E+007,  0.19000000000E+002,  0.00000000000E+000,  0.10000000000E+001
  0.18236943722E+008,  0.20368214727E+007,  0.19000000000E+002,  0.00000000000E+000,  0.10000000000E+001
  0.18237093722E+008,  0.20375570617E+007,  0.19000000000E+002,  0.00000000000E+000,  0.10000000000E+001
  0.18237243722E+008,  0.20382912054E+007,  0.19000000000E+002,  0.00000000000E+000,  0.10000000000E+001
  0.18237393722E+008,  0.20390239018E+007,  0.19000000000E+002,  0.00000000000E+000,  0.10000000000E+001
  0.18237543722E+008,  0.20397551490E+007,  0.19000000000E+002,  0.00000000000E+000,  0.10000000000E+001
  0.18237693722E+008,  0.20404849452E+007,  0.19000000000E+002,  0.00000000000E+000,  0.10000000000E+001
  0.18237843722E+008,  0.20412132885E+007,  0.19000000000E+002,  0.00000000000E+000,  0.10000000000E+001
  0.18237993722E+008,  0.20419401773E+007,  0.19000000000E+002,  0.00000000000E+000,  0.10000000000E+001
  0.18238143722E+008,  0.20426656100E+007,  0.19000000000E+002,  0.00000000000E+000,  0.10000000000E+001
  0.18238293722E+008,  0.20433895850E+007,  0.19000000000E+002,  0.00000000000E+000,  0.10000000000E+001
  0.18238443722E+008,  0.20441121008E+007,  0.19000000000E+002,  0.00000000000E+000,  0.10000000000E+001
  0.18238593722E+008,  0.20448331560E+007,  0.19000000000E+002,  0.00000000000E+000,  0.10000000000E+001
  0.18238743722E+008,  0.20455527491E+007,  0.19000000000E+002,  0.00000000000E+000,  0.10000000000E+001
  0.18238893722E+008,  0.20462708789E+007,  0.19000000000E+002,  0.00000000000E+000,  0.10000000000E+001
  0.18239043722E+008,  0.20469875439E+007,  0.19000000000E+002,  0.00000000000E+000,  0.10000000000E+001
  0.18239193722E+008,  0.20477027430E+007,  0.19000000000E+002,  0.00000000000E+000,  0.10000000000E+001
  0.18239343722E+008,  0.20484164749E+007,  0.19000000000E+002,  0.00000000000E+000,  0.10000000000E+001
  0.18239493722E+008,  0.20491287385E+007,  0.19000000000E+002,  0.00000000000E+000,  0.10000000000E+001
  0.18239643722E+008,  0.20498395326E+007,  0.19000000000E+002,  0.00000000000E+000,  0.10000000000E+001
  0.18239793722E+008,  0.20505488561E+007,  0.19000000000E+002,  0.00000000000E+000,  0.10000000000E+001
  0.18239943722E+008,  0.20512567079E+007,  0.19000000000E+002,  0.00000000000E+000,  0.10000000000E+001
  0.18240093722E+008,  0.20519630871E+007,  0.19000000000E+002,  0.00000000000E+000,  0.10000000000E+001
  0.18240243722E+008,  0.20526679927E+007,  0.19000000000E+002,  0.00000000000E+000,  0.10000000000E+001
  0.18240393722E+008,  0.20533714237E+007,  0.19000000000E+002,  0.00000000000E+000,  0.10000000000E+001
  0.18240543722E+008,  0.20540733793E+007,  0.19000000000E+002,  0.00000000000E+000,  0.10000000000E+001
  0.18240693722E+008,  0.20547738585E+007,  0.19000000000E+002,  0.00000000000E+000,  0.10000000000E+001
  0.18240843722E+008,  0.20554728605E+007,  0.19000000000E+002,  0.00000000000E+000,  0.10000000000E+001
  0.18240993722E+008,  0.20561703845E+007,  0.19000000000E+002,  0.00000000000E+000,  0.10000000000E+001
  0.18241143722E+008,  0.20568664298E+007,  0.19000000000E+002,  0.00000000000E+000,  0.10000000000E+001
  0.18241293722E+008,  0.20575609957E+007,  0.19000000000E+002,  0.00000000000E+000,  0.10000000000E+001
  0.18241443722E+008,  0.20582540813E+007,  0.19000000000E+002,  0.00000000000E+000,  0.10000000000E+001
  0.18241593722E+008,  0.20589456861E+007,  0.19000000000E+002,  0.00000000000E+000,  0.10000000000E+001
  0.18241743722E+008,  0.20596358095E+007,  0.19000000000E+002,  0.00000000000E+000,  0.10000000000E+001
  0.18241893722E+008,  0.20603244508E+007,  0.19000000000E+002,  0.00000000000E+000,  0.10000000000E+001
  0.18242043722E+008,  0.20610116095E+007,  0.19000000000E+002,  0.00000000000E+000,  0.10000000000E+001
  0.18242193722E+008,  0.20616972850E+007,  0.19000000000E+002,  0.00000000000E+000,  0.10000000000E+001
  0.18242343722E+008,  0.20623814768E+007,  0.19000000000E+002,  0.00000000000E+000,  0.10000000000E+001
  0.18242493722E+008,  0.20630641845E+007,  0.19000000000E+002,  0.00000000000E+000,  0.10000000000E+001
  0.18242643722E+008,  0.20637454077E+007,  0.19000000000E+002,  0.00000000000E+000,  0.10000000000E+001
  0.18242793722E+008,  0.20644251459E+007,  0.19000000000E+002,  0.00000000000E+000,  0.10000000000E+001
  0.18242943722E+008,  0.20651033987E+007,  0.19000000000E+002,  0.00000000000E+000,  0.10000000000E+001
  0.18243093722E+008,  0.20657801658E+007,  0.19000000000E+002,  0.00000000000E+000,  0.10000000000E+001
  0.18243243722E+008,  0.20664554470E+007,  0.19000000000E+002,  0.00000000000E+000,  0.10000000000E+001
  0.18243393722E+008,  0.20671292418E+007,  0.19000000000E+002,  0.00000000000E+000,  0.10000000000E+001
  0.18243543722E+008,  0.20678015500E+007,  0.19000000000E+002,  0.00000000000E+000,  0.10000000000E+001
  0.18243693722E+008,  0.20684723715E+007,  0.19000000000E+002,  0.00000000000E+000,  0.10000000000E+001
  0.18243843722E+008,  0.20691417060E+007,  0.19000000000E+002,  0.00000000000E+000,  0.10000000000E+001
  0.18243993722E+008,  0.20698095534E+007,  0.19000000000E+002,  0.00000000000E+000,  0.10000000000E+001
  0.18244143722E+008,  0.20704759134E+007,  0.19000000000E+002,  0.00000000000E+000,  0.10000000000E+001
  0.18244293722E+008,  0.20711407861E+007,  0.19000000000E+002,  0.00000000000E+000,  0.10000000000E+001
  0.18244443722E+008,  0.20718041713E+007,  0.19000000000E+002,  0.00000000000E+000,  0.10000000000E+001
  0.18244593722E+008,  0.20724660689E+007,  0.19000000000E+002,  0.00000000000E+000,  0.10000000000E+001
  0.18244743722E+008,  0.20731264790E+007,  0.19000000000E+002,  0.00000000000E+000,  0.10000000000E+001
  0.18244893722E+008,  0.20737854016E+007,  0.19000000000E+002,  0.00000000000E+000,  0.10000000000E+001
  0.18245043722E+008,  0.20744428366E+007,  0.19000000000E+002,  0.00000000000E+000,  0.10000000000E+001
  0.18245193722E+008,  0.20750987842E+007,  0.19000000000E+002,  0.00000000000E+000,  0.10000000000E+001
  0.18245343722E+008,  0.20757532443E+007,  0.19000000000E+002,  0.00000000000E+000,  0.10000000000E+001
  0.18245493722E+008,  0.20764062172E+007,  0.19000000000E+002,  0.00000000000E+000,  0.10000000000E+001
  0.18245643722E+008,  0.20770577030E+007,  0.19000000000E+002,  0.00000000000E+000,  0.10000000000E+001
  0.18245793722E+008,  0.20777077018E+007,  0.19000000000E+002,  0.00000000000E+000,  0.10000000000E+001
  0.18245943722E+008,  0.20783562138E+007,  0.19000000000E+002,  0.00000000000E+000,  0.10000000000E+001
  0.18246093722E+008,  0.20790032393E+007,  0.19000000000E+002,  0.00000000000E+000,  0.10000000000E+001
  0.18246243722E+008,  0.20796487785E+007,  0.19000000000E+002,  0.00000000000E+000,  0.10000000000E+001
  0.18246393722E+008,  0.20802928316E+007,  0.19000000000E+002,  0.00000000000E+000,  0.10000000000E+001
  0.18246543722E+008,  0.20809353990E+007,  0.19000000000E+002,  0.00000000000E+000,  0.10000000000E+001
  0.18246693722E+008,  0.20815764810E+007,  0.19000000000E+002,  0.00000000000E+000,  0.10000000000E+001
  0.18246843722E+008,  0.20822160779E+007,  0.19000000000E+002,  0.00000000000E+000,  0.10000000000E+001
  0.18246993722E+008,  0.20828541901E+007,  0.19000000000E+002,  0.00000000000E+000,  0.10000000000E+001
  0.18247143722E+008,  0.20834908180E+007,  0.19000000000E+002,  0.00000000000E+000,  0.10000000000E+001
  0.18247293722E+008,  0.20841259620E+007,  0.19000000000E+002,  0.00000000000E+000,  0.10000000000E+001
  0.18247443722E+008,  0.20847596227E+007,  0.19000000000E+002,  0.00000000000E+000,  0.10000000000E+001
  0.18247593722E+008,  0.20853918003E+007,  0.19000000000E+002,  0.00000000000E+000,  0.10000000000E+001
  0.18247743722E+008,  0.20860224956E+007,  0.19000000000E+002,  0.00000000000E+000,  0.10000000000E+001
  0.18247893722E+008,  0.20866517089E+007,  0.19000000000E+002,  0.00000000000E+000,  0.10000000000E+001
  0.18248043722E+008,  0.20872794408E+007,  0.19000000000E+002,  0.00000000000E+000,  0.10000000000E+001
  0.18248193722E+008,  0.20879056919E+007,  0.19000000000E+002,  0.00000000000E+000,  0.10000000000E+001
  0.18248343722E+008,  0.20885304628E+007,  0.19000000000E+002,  0.00000000000E+000,  0.10000000000E+001
  0.18248493722E+008,  0.20891537541E+007,  0.19000000000E+002,  0.00000000000E+000,  0.10000000000E+001
  0.18248643722E+008,  0.20897755664E+007,  0.19000000000E+002,  0.00000000000E+000,  0.10000000000E+001
  0.18248793722E+008,  0.20903959005E+007,  0.19000000000E+002,  0.00000000000E+000,  0.10000000000E+001
  0.18248943722E+008,  0.20910147569E+007,  0.19000000000E+002,  0.00000000000E+000,  0.10000000000E+001
  0.18249093722E+008,  0.20916321365E+007,  0.19000000000E+002,  0.00000000000E+000,  0.10000000000E+001
  0.18249243722E+008,  0.20922480399E+007,  0.19000000000E+002,  0.00000000000E+000,  0.10000000000E+001
  0.18249393722E+008,  0.20928624679E+007,  0.19000000000E+002,  0.00000000000E+000,  0.10000000000E+001
  0.18249543722E+008,  0.20934754213E+007,  0.19000000000E+002,  0.00000000000E+000,  0.10000000000E+001
  0.18249693722E+008,  0.20940869009E+007,  0.19000000000E+002,  0.00000000000E+000,  0.10000000000E+001
  0.18249843722E+008,  0.20946969075E+007,  0.19000000000E+002,  0.00000000000E+000,  0.10000000000E+001
  0.18249993722E+008,  0.20953054419E+007,  0.19000000000E+002,  0.00000000000E+000,  0.10000000000E+001
  0.18250143722E+008,  0.20959125051E+007,  0.19000000000E+002,  0.00000000000E+000,  0.10000000000E+001
  0.18250293722E+008,  0.20965180979E+007,  0.19000000000E+002,  0.00000000000E+000,  0.10000000000E+001
  0.18250443722E+008,  0.20971222212E+007,  0.19000000000E+002,  0.00000000000E+000,  0.10000000000E+001
  0.18250593722E+008,  0.20977248760E+007,  0.19000000000E+002,  0.00000000000E+000,  0.10000000000E+001
  0.18250743722E+008,  0.20983260631E+007,  0.19000000000E+002,  0.00000000000E+000,  0.10000000000E+001
  0.18250893722E+008,  0.20989257837E+007,  0.19000000000E+002,  0.00000000000E+000,  0.10000000000E+001
  0.18251043722E+008,  0.20995240387E+007,  0.19000000000E+002,  0.00000000000E+000,  0.10000000000E+001
  0.18251193722E+008,  0.21001208291E+007,  0.19000000000E+002,  0.00000000000E+000,  0.10000000000E+001
  0.18251343722E+008,  0.21007161559E+007,  0.19000000000E+002,  0.00000000000E+000,  0.10000000000E+001
  0.18251493722E+008,  0.21013100202E+007,  0.19000000000E+002,  0.00000000000E+000,  0.10000000000E+001
  0.18251643722E+008,  0.21019024231E+007,  0.19000000000E+002,  0.00000000000E+000,  0.10000000000E+001
  0.18251793722E+008,  0.21024933657E+007,  0.19000000000E+002,  0.00000000000E+000,  0.10000000000E+001
  0.18251943722E+008,  0.21030828491E+007,  0.19000000000E+002,  0.00000000000E+000,  0.10000000000E+001
  0.18252093722E+008,  0.21036708744E+007,  0.19000000000E+002,  0.00000000000E+000,  0.10000000000E+001
  0.18252243722E+008,  0.21042574428E+007,  0.19000000000E+002,  0.00000000000E+000,  0.10000000000E+001
  0.18252393722E+008,  0.21048425555E+007,  0.19000000000E+002,  0.00000000000E+000,  0.10000000000E+001
  0.18252543722E+008,  0.21054262137E+007,  0.19000000000E+002,  0.00000000000E+000,  0.10000000000E+001
  0.18252693722E+008,  0.21060084185E+007,  0.19000000000E+002,  0.00000000000E+000,  0.10000000000E+001
  0.18252843722E+008,  0.21065891713E+007,  0.19000000000E+002,  0.00000000000E+000,  0.10000000000E+001
  0.18252993722E+008,  0.21071684733E+007,  0.19000000000E+002,  0.00000000000E+000,  0.10000000000E+001
  0.18253143722E+008,  0.21077463257E+007,  0.19000000000E+002,  0.00000000000E+000,  0.10000000000E+001
  0.18253293722E+008,  0.21083227299E+007,  0.19000000000E+002,  0.00000000000E+000,  0.10000000000E+001
  0.18253443722E+008,  0.21088976872E+007,  0.19000000000E+002,  0.00000000000E+000,  0.10000000000E+001
  0.18253593722E+008,  0.21094711988E+007,  0.19000000000E+002,  0.00000000000E+000,  0.10000000000E+001
  0.18253743722E+008,  0.21100432662E+007,  0.19000000000E+002,  0.00000000000E+000,  0.10000000000E+001
  0.18253893722E+008,  0.21106138907E+007,  0.19000000000E+002,  0.00000000000E+000,  0.10000000000E+001
  0.18254043722E+008,  0.21111830736E+007,  0.19000000000E+002,  0.00000000000E+000,  0.10000000000E+001
  0.18254193722E+008,  0.21117508165E+007,  0.19000000000E+002,  0.00000000000E+000,  0.10000000000E+001
  0.18254343722E+008,  0.21123171207E+007,  0.19000000000E+002,  0.00000000000E+000,  0.10000000000E+001
  0.18254493722E+008,  0.21128819876E+007,  0.19000000000E+002,  0.00000000000E+000,  0.10000000000E+001
  0.18254643722E+008,  0.21134454188E+007,  0.19000000000E+002,  0.00000000000E+000,  0.10000000000E+001
  0.18254793722E+008,  0.21140074156E+007,  0.19000000000E+002,  0.00000000000E+000,  0.10000000000E+001
  0.18254943722E+008,  0.21145679795E+007,  0.19000000000E+002,  0.00000000000E+000,  0.10000000000E+001
  0.18255093722E+008,  0.21151271122E+007,  0.19000000000E+002,  0.00000000000E+000,  0.10000000000E+001
  0.18255243722E+008,  0.21156848150E+007,  0.19000000000E+002,  0.00000000000E+000,  0.10000000000E+001
  0.18255393722E+008,  0.21162410896E+007,  0.19000000000E+002,  0.00000000000E+000,  0.10000000000E+001
  0.18255543722E+008,  0.21167959374E+007,  0.19000000000E+002,  0.00000000000E+000,  0.10000000000E+001
  0.18255693722E+008,  0.21173493601E+007,  0.19000000000E+002,  0.00000000000E+000,  0.10000000000E+001
