"           TIME(S)","              PRES","              TEMP","             SAT_G","             SAT_L"
  0.18228740000E+008,  0.20006892507E+007,  0.19000000000E+002,  0.00000000000E+000,  0.10000000000E+001
  0.18228890000E+008,  0.20022794874E+007,  0.19000000000E+002,  0.00000000000E+000,  0.10000000000E+001
  0.18229040000E+008,  0.20036789708E+007,  0.19000000000E+002,  0.00000000000E+000,  0.10000000000E+001
  0.18229190000E+008,  0.20049609080E+007,  0.19000000000E+002,  0.00000000000E+000,  0.10000000000E+001
  0.18229340000E+008,  0.20061377106E+007,  0.19000000000E+002,  0.00000000000E+000,  0.10000000000E+001
  0.18229490000E+008,  0.20071962168E+007,  0.19000000000E+002,  0.00000000000E+000,  0.10000000000E+001
  0.18229565000E+008,  0.20077818124E+007,  0.19000000000E+002,  0.00000000000E+000,  0.10000000000E+001
  0.18229715000E+008,  0.20090225054E+007,  0.19000000000E+002,  0.00000000000E+000,  0.10000000000E+001
  0.18229790001E+008,  0.20096701635E+007,  0.19000000000E+002,  0.00000000000E+000,  0.10000000000E+001
  0.18229827501E+008,  0.20100071179E+007,  0.19000000000E+002,  0.00000000000E+000,  0.10000000000E+001
  0.18229846251E+008,  0.20101809019E+007,  0.19000000000E+002,  0.00000000000E+000,  0.10000000000E+001
  0.18229855627E+008,  0.20102691651E+007,  0.19000000000E+002,  0.00000000000E+000,  0.10000000000E+001
  0.18229902503E+008,  0.20107297708E+007,  0.19000000000E+002,  0.00000000000E+000,  0.10000000000E+001
  0.18229925941E+008,  0.20109625578E+007,  0.19000000000E+002,  0.00000000000E+000,  0.10000000000E+001
  0.18230043132E+008,  0.20120977665E+007,  0.19000000000E+002,  0.00000000000E+000,  0.10000000000E+001
  0.18230101728E+008,  0.20126768797E+007,  0.19000000000E+002,  0.00000000000E+000,  0.10000000000E+001
  0.18230131026E+008,  0.20129723859E+007,  0.19000000000E+002,  0.00000000000E+000,  0.10000000000E+001
  0.18230145675E+008,  0.20131210125E+007,  0.19000000000E+002,  0.00000000000E+000,  0.10000000000E+001
  0.18230218920E+008,  0.20138553950E+007,  0.19000000000E+002,  0.00000000000E+000,  0.10000000000E+001
  0.18230255543E+008,  0.20142405022E+007,  0.19000000000E+002,  0.00000000000E+000,  0.10000000000E+001
  0.18230273855E+008,  0.20144339242E+007,  0.19000000000E+002,  0.00000000000E+000,  0.10000000000E+001
  0.18230283011E+008,  0.20145305491E+007,  0.19000000000E+002,  0.00000000000E+000,  0.10000000000E+001
  0.18230328790E+008,  0.20149976880E+007,  0.19000000000E+002,  0.00000000000E+000,  0.10000000000E+001
  0.18230478790E+008,  0.20163323992E+007,  0.19000000000E+002,  0.00000000000E+000,  0.10000000000E+001
  0.18230628790E+008,  0.20174243597E+007,  0.19000000000E+002,  0.00000000000E+000,  0.10000000000E+001
  0.18230778790E+008,  0.20182989555E+007,  0.19000000000E+002,  0.00000000000E+000,  0.10000000000E+001
  0.18230928790E+008,  0.20190067450E+007,  0.19000000000E+002,  0.00000000000E+000,  0.10000000000E+001
  0.18231078790E+008,  0.20196043294E+007,  0.19000000000E+002,  0.00000000000E+000,  0.10000000000E+001
  0.18231228790E+008,  0.20201432022E+007,  0.19000000000E+002,  0.00000000000E+000,  0.10000000000E+001
  0.18231378790E+008,  0.20206644570E+007,  0.19000000000E+002,  0.00000000000E+000,  0.10000000000E+001
  0.18231528790E+008,  0.20211978134E+007,  0.19000000000E+002,  0.00000000000E+000,  0.10000000000E+001
  0.18231678790E+008,  0.20217630017E+007,  0.19000000000E+002,  0.00000000000E+000,  0.10000000000E+001
  0.18231828790E+008,  0.20223719582E+007,  0.19000000000E+002,  0.00000000000E+000,  0.10000000000E+001
  0.18231978790E+008,  0.20230309648E+007,  0.19000000000E+002,  0.00000000000E+000,  0.10000000000E+001
  0.18232128790E+008,  0.20237424194E+007,  0.19000000000E+002,  0.00000000000E+000,  0.10000000000E+001
  0.18232278790E+008,  0.20245061822E+007,  0.19000000000E+002,  0.00000000000E+000,  0.10000000000E+001
  0.18232428790E+008,  0.20253205359E+007,  0.19000000000E+002,  0.00000000000E+000,  0.10000000000E+001
  0.18232578790E+008,  0.20261828514E+007,  0.19000000000E+002,  0.00000000000E+000,  0.10000000000E+001
  0.18232728790E+008,  0.20270900374E+007,  0.19000000000E+002,  0.00000000000E+000,  0.10000000000E+001
  0.18232878790E+008,  0.20280388366E+007,  0.19000000000E+002,  0.00000000000E+000,  0.10000000000E+001
  0.18233028790E+008,  0.20290260151E+007,  0.19000000000E+002,  0.00000000000E+000,  0.10000000000E+001
  0.18233178790E+008,  0.20300484776E+007,  0.19000000000E+002,  0.00000000000E+000,  0.10000000000E+001
  0.18233328790E+008,  0.20311033336E+007,  0.19000000000E+002,  0.00000000000E+000,  0.10000000000E+001
  0.18233478790E+008,  0.20321879289E+007,  0.19000000000E+002,  0.00000000000E+000,  0.10000000000E+001
  0.18233628790E+008,  0.20332998562E+007,  0.19000000000E+002,  0.00000000000E+000,  0.10000000000E+001
  0.18233778790E+008,  0.20344369510E+007,  0.19000000000E+002,  0.00000000000E+000,  0.10000000000E+001
  0.18233928790E+008,  0.20355972792E+007,  0.19000000000E+002,  0.00000000000E+000,  0.10000000000E+001
  0.18234078790E+008,  0.20367791201E+007,  0.19000000000E+002,  0.00000000000E+000,  0.10000000000E+001
  0.18234228790E+008,  0.20379809474E+007,  0.19000000000E+002,  0.00000000000E+000,  0.10000000000E+001
  0.18234378790E+008,  0.20392014087E+007,  0.19000000000E+002,  0.00000000000E+000,  0.10000000000E+001
  0.18234528790E+008,  0.20404393063E+007,  0.19000000000E+002,  0.00000000000E+000,  0.10000000000E+001
  0.18234678790E+008,  0.20416935794E+007,  0.19000000000E+002,  0.00000000000E+000,  0.10000000000E+001
  0.18234828790E+008,  0.20429632863E+007,  0.19000000000E+002,  0.00000000000E+000,  0.10000000000E+001
  0.18234978790E+008,  0.20442475902E+007,  0.19000000000E+002,  0.00000000000E+000,  0.10000000000E+001
  0.18235128790E+008,  0.20455457448E+007,  0.19000000000E+002,  0.00000000000E+000,  0.10000000000E+001
  0.18235278790E+008,  0.20468570827E+007,  0.19000000000E+002,  0.00000000000E+000,  0.10000000000E+001
  0.18235428790E+008,  0.20481810049E+007,  0.19000000000E+002,  0.00000000000E+000,  0.10000000000E+001
  0.18235578790E+008,  0.20495169717E+007,  0.19000000000E+002,  0.00000000000E+000,  0.10000000000E+001
  0.18235728790E+008,  0.20508644944E+007,  0.19000000000E+002,  0.00000000000E+000,  0.10000000000E+001
  0.18235878790E+008,  0.20522231291E+007,  0.19000000000E+002,  0.00000000000E+000,  0.10000000000E+001
  0.18236028790E+008,  0.20535924701E+007,  0.19000000000E+002,  0.00000000000E+000,  0.10000000000E+001
  0.18236178790E+008,  0.20549721456E+007,  0.19000000000E+002,  0.00000000000E+000,  0.10000000000E+001
  0.18236328790E+008,  0.20563618127E+007,  0.19000000000E+002,  0.00000000000E+000,  0.10000000000E+001
  0.18236478790E+008,  0.20577611544E+007,  0.19000000000E+002,  0.00000000000E+000,  0.10000000000E+001
  0.18236628790E+008,  0.20591698757E+007,  0.19000000000E+002,  0.00000000000E+000,  0.10000000000E+001
  0.18236778790E+008,  0.20605877014E+007,  0.19000000000E+002,  0.00000000000E+000,  0.10000000000E+001
  0.18236928790E+008,  0.20620143736E+007,  0.19000000000E+002,  0.00000000000E+000,  0.10000000000E+001
  0.18237078790E+008,  0.20634496499E+007,  0.19000000000E+002,  0.00000000000E+000,  0.10000000000E+001
  0.18237228790E+008,  0.20648933013E+007,  0.19000000000E+002,  0.00000000000E+000,  0.10000000000E+001
  0.18237378790E+008,  0.20663451110E+007,  0.19000000000E+002,  0.00000000000E+000,  0.10000000000E+001
  0.18237528790E+008,  0.20678048732E+007,  0.19000000000E+002,  0.00000000000E+000,  0.10000000000E+001
  0.18237678790E+008,  0.20692723919E+007,  0.19000000000E+002,  0.00000000000E+000,  0.10000000000E+001
  0.18237828790E+008,  0.20707474798E+007,  0.19000000000E+002,  0.00000000000E+000,  0.10000000000E+001
  0.18237978790E+008,  0.20722299578E+007,  0.19000000000E+002,  0.00000000000E+000,  0.10000000000E+001
  0.18238128790E+008,  0.20737196540E+007,  0.19000000000E+002,  0.00000000000E+000,  0.10000000000E+001
  0.18238278790E+008,  0.20752164032E+007,  0.19000000000E+002,  0.00000000000E+000,  0.10000000000E+001
  0.18238428790E+008,  0.20767200466E+007,  0.19000000000E+002,  0.00000000000E+000,  0.10000000000E+001
  0.18238578790E+008,  0.20782304306E+007,  0.19000000000E+002,  0.00000000000E+000,  0.10000000000E+001
  0.18238728790E+008,  0.20797474072E+007,  0.19000000000E+002,  0.00000000000E+000,  0.10000000000E+001
  0.18238878790E+008,  0.20812708331E+007,  0.19000000000E+002,  0.00000000000E+000,  0.10000000000E+001
  0.18239028790E+008,  0.20828005697E+007,  0.19000000000E+002,  0.00000000000E+000,  0.10000000000E+001
  0.18239178790E+008,  0.20843364824E+007,  0.19000000000E+002,  0.00000000000E+000,  0.10000000000E+001
  0.18239328790E+008,  0.20858784409E+007,  0.19000000000E+002,  0.00000000000E+000,  0.10000000000E+001
  0.18239478790E+008,  0.20874263182E+007,  0.19000000000E+002,  0.00000000000E+000,  0.10000000000E+001
  0.18239628790E+008,  0.20889799911E+007,  0.19000000000E+002,  0.00000000000E+000,  0.10000000000E+001
  0.18239778790E+008,  0.20905393399E+007,  0.19000000000E+002,  0.00000000000E+000,  0.10000000000E+001
  0.18239928790E+008,  0.20921042475E+007,  0.19000000000E+002,  0.00000000000E+000,  0.10000000000E+001
  0.18240078790E+008,  0.20936746005E+007,  0.19000000000E+002,  0.00000000000E+000,  0.10000000000E+001
  0.18240228790E+008,  0.20952502877E+007,  0.19000000000E+002,  0.00000000000E+000,  0.10000000000E+001
  0.18240378790E+008,  0.20968312010E+007,  0.19000000000E+002,  0.00000000000E+000,  0.10000000000E+001
  0.18240528790E+008,  0.20984172348E+007,  0.19000000000E+002,  0.00000000000E+000,  0.10000000000E+001
  0.18240678790E+008,  0.21000082861E+007,  0.19000000000E+002,  0.00000000000E+000,  0.10000000000E+001
  0.18240828790E+008,  0.21016042541E+007,  0.19000000000E+002,  0.00000000000E+000,  0.10000000000E+001
  0.18240978790E+008,  0.21032050403E+007,  0.19000000000E+002,  0.00000000000E+000,  0.10000000000E+001
  0.18241128790E+008,  0.21048105487E+007,  0.19000000000E+002,  0.00000000000E+000,  0.10000000000E+001
  0.18241278790E+008,  0.21064206850E+007,  0.19000000000E+002,  0.00000000000E+000,  0.10000000000E+001
  0.18241428790E+008,  0.21080353572E+007,  0.19000000000E+002,  0.00000000000E+000,  0.10000000000E+001
  0.18241578790E+008,  0.21096544754E+007,  0.19000000000E+002,  0.00000000000E+000,  0.10000000000E+001
  0.18241728790E+008,  0.21112779512E+007,  0.19000000000E+002,  0.00000000000E+000,  0.10000000000E+001
  0.18241878790E+008,  0.21129056985E+007,  0.19000000000E+002,  0.00000000000E+000,  0.10000000000E+001
  0.18242028790E+008,  0.21145376327E+007,  0.19000000000E+002,  0.00000000000E+000,  0.10000000000E+001
  0.18242178790E+008,  0.21161736711E+007,  0.19000000000E+002,  0.00000000000E+000,  0.10000000000E+001
  0.18242328790E+008,  0.21178137325E+007,  0.19000000000E+002,  0.00000000000E+000,  0.10000000000E+001
  0.18242478790E+008,  0.21194577375E+007,  0.19000000000E+002,  0.00000000000E+000,  0.10000000000E+001
  0.18242628790E+008,  0.21211056084E+007,  0.19000000000E+002,  0.00000000000E+000,  0.10000000000E+001
  0.18242778790E+008,  0.21227572686E+007,  0.19000000000E+002,  0.00000000000E+000,  0.10000000000E+001
  0.18242928790E+008,  0.21244126435E+007,  0.19000000000E+002,  0.00000000000E+000,  0.10000000000E+001
  0.18243078790E+008,  0.21260716597E+007,  0.19000000000E+002,  0.00000000000E+000,  0.10000000000E+001
  0.18243228790E+008,  0.21277342454E+007,  0.19000000000E+002,  0.00000000000E+000,  0.10000000000E+001
  0.18243378790E+008,  0.21294003299E+007,  0.19000000000E+002,  0.00000000000E+000,  0.10000000000E+001
  0.18243528790E+008,  0.21310698441E+007,  0.19000000000E+002,  0.00000000000E+000,  0.10000000000E+001
  0.18243678790E+008,  0.21327427202E+007,  0.19000000000E+002,  0.00000000000E+000,  0.10000000000E+001
  0.18243828790E+008,  0.21344188917E+007,  0.19000000000E+002,  0.00000000000E+000,  0.10000000000E+001
  0.18243978790E+008,  0.21360982932E+007,  0.19000000000E+002,  0.00000000000E+000,  0.10000000000E+001
  0.18244128790E+008,  0.21377808608E+007,  0.19000000000E+002,  0.00000000000E+000,  0.10000000000E+001
  0.18244278790E+008,  0.21394665315E+007,  0.19000000000E+002,  0.00000000000E+000,  0.10000000000E+001
  0.18244428790E+008,  0.21411552437E+007,  0.19000000000E+002,  0.00000000000E+000,  0.10000000000E+001
  0.18244578790E+008,  0.21428469368E+007,  0.19000000000E+002,  0.00000000000E+000,  0.10000000000E+001
  0.18244728790E+008,  0.21445415515E+007,  0.19000000000E+002,  0.00000000000E+000,  0.10000000000E+001
  0.18244878790E+008,  0.21462390295E+007,  0.19000000000E+002,  0.00000000000E+000,  0.10000000000E+001
  0.18245028790E+008,  0.21479393135E+007,  0.19000000000E+002,  0.00000000000E+000,  0.10000000000E+001
  0.18245178790E+008,  0.21496423474E+007,  0.19000000000E+002,  0.00000000000E+000,  0.10000000000E+001
  0.18245328790E+008,  0.21513480760E+007,  0.19000000000E+002,  0.00000000000E+000,  0.10000000000E+001
  0.18245478790E+008,  0.21530564453E+007,  0.19000000000E+002,  0.00000000000E+000,  0.10000000000E+001
  0.18245628790E+008,  0.21547674020E+007,  0.19000000000E+002,  0.00000000000E+000,  0.10000000000E+001
  0.18245778790E+008,  0.21564808940E+007,  0.19000000000E+002,  0.00000000000E+000,  0.10000000000E+001
  0.18245928790E+008,  0.21581968700E+007,  0.19000000000E+002,  0.00000000000E+000,  0.10000000000E+001
  0.18246078790E+008,  0.21599152799E+007,  0.19000000000E+002,  0.00000000000E+000,  0.10000000000E+001
  0.18246228790E+008,  0.21616360741E+007,  0.19000000000E+002,  0.00000000000E+000,  0.10000000000E+001
  0.18246378790E+008,  0.21633592041E+007,  0.19000000000E+002,  0.00000000000E+000,  0.10000000000E+001
  0.18246528790E+008,  0.21650846225E+007,  0.19000000000E+002,  0.00000000000E+000,  0.10000000000E+001
  0.18246678790E+008,  0.21668122823E+007,  0.19000000000E+002,  0.00000000000E+000,  0.10000000000E+001
  0.18246828790E+008,  0.21685421376E+007,  0.19000000000E+002,  0.00000000000E+000,  0.10000000000E+001
  0.18246978790E+008,  0.21702741435E+007,  0.19000000000E+002,  0.00000000000E+000,  0.10000000000E+001
  0.18247128790E+008,  0.21720082554E+007,  0.19000000000E+002,  0.00000000000E+000,  0.10000000000E+001
  0.18247278790E+008,  0.21737444301E+007,  0.19000000000E+002,  0.00000000000E+000,  0.10000000000E+001
  0.18247428790E+008,  0.21754826246E+007,  0.19000000000E+002,  0.00000000000E+000,  0.10000000000E+001
  0.18247578790E+008,  0.21772227971E+007,  0.19000000000E+002,  0.00000000000E+000,  0.10000000000E+001
  0.18247728790E+008,  0.21789649063E+007,  0.19000000000E+002,  0.00000000000E+000,  0.10000000000E+001
  0.18247878790E+008,  0.21807089117E+007,  0.19000000000E+002,  0.00000000000E+000,  0.10000000000E+001
  0.18248028790E+008,  0.21824547735E+007,  0.19000000000E+002,  0.00000000000E+000,  0.10000000000E+001
  0.18248178790E+008,  0.21842024528E+007,  0.19000000000E+002,  0.00000000000E+000,  0.10000000000E+001
  0.18248328790E+008,  0.21859519110E+007,  0.19000000000E+002,  0.00000000000E+000,  0.10000000000E+001
  0.18248478790E+008,  0.21877031105E+007,  0.19000000000E+002,  0.00000000000E+000,  0.10000000000E+001
  0.18248628790E+008,  0.21894560143E+007,  0.19000000000E+002,  0.00000000000E+000,  0.10000000000E+001
  0.18248778790E+008,  0.21912105859E+007,  0.19000000000E+002,  0.00000000000E+000,  0.10000000000E+001
  0.18248928790E+008,  0.21929667897E+007,  0.19000000000E+002,  0.00000000000E+000,  0.10000000000E+001
  0.18249078790E+008,  0.21947245905E+007,  0.19000000000E+002,  0.00000000000E+000,  0.10000000000E+001
  0.18249228790E+008,  0.21964839538E+007,  0.19000000000E+002,  0.00000000000E+000,  0.10000000000E+001
  0.18249378790E+008,  0.21982448457E+007,  0.19000000000E+002,  0.00000000000E+000,  0.10000000000E+001
  0.18249528790E+008,  0.22000072330E+007,  0.19000000000E+002,  0.00000000000E+000,  0.10000000000E+001
  0.18249678790E+008,  0.22017710828E+007,  0.19000000000E+002,  0.00000000000E+000,  0.10000000000E+001
  0.18249828790E+008,  0.22035363631E+007,  0.19000000000E+002,  0.00000000000E+000,  0.10000000000E+001
  0.18249978790E+008,  0.22053030423E+007,  0.19000000000E+002,  0.00000000000E+000,  0.10000000000E+001
  0.18250128790E+008,  0.22070710893E+007,  0.19000000000E+002,  0.00000000000E+000,  0.10000000000E+001
  0.18250278790E+008,  0.22088404737E+007,  0.19000000000E+002,  0.00000000000E+000,  0.10000000000E+001
  0.18250428790E+008,  0.22106111655E+007,  0.19000000000E+002,  0.00000000000E+000,  0.10000000000E+001
  0.18250578790E+008,  0.22123831353E+007,  0.19000000000E+002,  0.00000000000E+000,  0.10000000000E+001
  0.18250728790E+008,  0.22141563541E+007,  0.19000000000E+002,  0.00000000000E+000,  0.10000000000E+001
  0.18250878790E+008,  0.22159307936E+007,  0.19000000000E+002,  0.00000000000E+000,  0.10000000000E+001
  0.18251028790E+008,  0.22177064257E+007,  0.19000000000E+002,  0.00000000000E+000,  0.10000000000E+001
  0.18251178790E+008,  0.22194832231E+007,  0.19000000000E+002,  0.00000000000E+000,  0.10000000000E+001
  0.18251328790E+008,  0.22212611589E+007,  0.19000000000E+002,  0.00000000000E+000,  0.10000000000E+001
  0.18251478790E+008,  0.22230402064E+007,  0.19000000000E+002,  0.00000000000E+000,  0.10000000000E+001
  0.18251628790E+008,  0.22248203396E+007,  0.19000000000E+002,  0.00000000000E+000,  0.10000000000E+001
  0.18251778790E+008,  0.22266015331E+007,  0.19000000000E+002,  0.00000000000E+000,  0.10000000000E+001
  0.18251928790E+008,  0.22283837615E+007,  0.19000000000E+002,  0.00000000000E+000,  0.10000000000E+001
  0.18252078790E+008,  0.22301670003E+007,  0.19000000000E+002,  0.00000000000E+000,  0.10000000000E+001
  0.18252228790E+008,  0.22319512251E+007,  0.19000000000E+002,  0.00000000000E+000,  0.10000000000E+001
  0.18252378790E+008,  0.22337364121E+007,  0.19000000000E+002,  0.00000000000E+000,  0.10000000000E+001
  0.18252528790E+008,  0.22355225378E+007,  0.19000000000E+002,  0.00000000000E+000,  0.10000000000E+001
  0.18252678790E+008,  0.22373095792E+007,  0.19000000000E+002,  0.00000000000E+000,  0.10000000000E+001
  0.18252828790E+008,  0.22390975135E+007,  0.19000000000E+002,  0.00000000000E+000,  0.10000000000E+001
  0.18252978790E+008,  0.22408863186E+007,  0.19000000000E+002,  0.00000000000E+000,  0.10000000000E+001
  0.18253128790E+008,  0.22426759726E+007,  0.19000000000E+002,  0.00000000000E+000,  0.10000000000E+001
  0.18253278790E+008,  0.22444664540E+007,  0.19000000000E+002,  0.00000000000E+000,  0.10000000000E+001
  0.18253428790E+008,  0.22462577415E+007,  0.19000000000E+002,  0.00000000000E+000,  0.10000000000E+001
  0.18253578790E+008,  0.22480498145E+007,  0.19000000000E+002,  0.00000000000E+000,  0.10000000000E+001
  0.18253728790E+008,  0.22498426526E+007,  0.19000000000E+002,  0.00000000000E+000,  0.10000000000E+001
  0.18253878790E+008,  0.22516362356E+007,  0.19000000000E+002,  0.00000000000E+000,  0.10000000000E+001
  0.18254028790E+008,  0.22534305438E+007,  0.19000000000E+002,  0.00000000000E+000,  0.10000000000E+001
  0.18254178790E+008,  0.22552255579E+007,  0.19000000000E+002,  0.00000000000E+000,  0.10000000000E+001
  0.18254328790E+008,  0.22570212588E+007,  0.19000000000E+002,  0.00000000000E+000,  0.10000000000E+001
  0.18254478790E+008,  0.22588176278E+007,  0.19000000000E+002,  0.00000000000E+000,  0.10000000000E+001
  0.18254628790E+008,  0.22606146464E+007,  0.19000000000E+002,  0.00000000000E+000,  0.10000000000E+001
  0.18254778790E+008,  0.22624122966E+007,  0.19000000000E+002,  0.00000000000E+000,  0.10000000000E+001
  0.18254928790E+008,  0.22642105606E+007,  0.19000000000E+002,  0.00000000000E+000,  0.10000000000E+001
  0.18255078790E+008,  0.22660094209E+007,  0.19000000000E+002,  0.00000000000E+000,  0.10000000000E+001
  0.18255228790E+008,  0.22678088602E+007,  0.19000000000E+002,  0.00000000000E+000,  0.10000000000E+001
