"           TIME(S)","              PRES","              TEMP","             SAT_G","             SAT_L"
  0.18228740000E+008,  0.20000206843E+007,  0.19000000000E+002,  0.00000000000E+000,  0.10000000000E+001
  0.18228890000E+008,  0.20000930625E+007,  0.19000000000E+002,  0.00000000000E+000,  0.10000000000E+001
  0.18229040000E+008,  0.20001403564E+007,  0.19000000000E+002,  0.00000000000E+000,  0.10000000000E+001
  0.18229190000E+008,  0.20001743592E+007,  0.19000000000E+002,  0.00000000000E+000,  0.10000000000E+001
  0.18229340000E+008,  0.20002007837E+007,  0.19000000000E+002,  0.00000000000E+000,  0.10000000000E+001
  0.18229490000E+008,  0.20002220906E+007,  0.19000000000E+002,  0.00000000000E+000,  0.10000000000E+001
  0.18229640000E+008,  0.20002396278E+007,  0.19000000000E+002,  0.00000000000E+000,  0.10000000000E+001
  0.18229790000E+008,  0.20002542977E+007,  0.19000000000E+002,  0.00000000000E+000,  0.10000000000E+001
  0.18229940000E+008,  0.20002667619E+007,  0.19000000000E+002,  0.00000000000E+000,  0.10000000000E+001
  0.18230090000E+008,  0.20002775223E+007,  0.19000000000E+002,  0.00000000000E+000,  0.10000000000E+001
  0.18230240000E+008,  0.20002869639E+007,  0.19000000000E+002,  0.00000000000E+000,  0.10000000000E+001
  0.18230390000E+008,  0.20002953840E+007,  0.19000000000E+002,  0.00000000000E+000,  0.10000000000E+001
  0.18230540000E+008,  0.20003030122E+007,  0.19000000000E+002,  0.00000000000E+000,  0.10000000000E+001
  0.18230690000E+008,  0.20003100263E+007,  0.19000000000E+002,  0.00000000000E+000,  0.10000000000E+001
  0.18230840000E+008,  0.20003165639E+007,  0.19000000000E+002,  0.00000000000E+000,  0.10000000000E+001
  0.18230990000E+008,  0.20003227325E+007,  0.19000000000E+002,  0.00000000000E+000,  0.10000000000E+001
  0.18231140000E+008,  0.20003286141E+007,  0.19000000000E+002,  0.00000000000E+000,  0.10000000000E+001
  0.18231290000E+008,  0.20003342737E+007,  0.19000000000E+002,  0.00000000000E+000,  0.10000000000E+001
  0.18231440000E+008,  0.20003397603E+007,  0.19000000000E+002,  0.00000000000E+000,  0.10000000000E+001
  0.18231590000E+008,  0.20003451133E+007,  0.19000000000E+002,  0.00000000000E+000,  0.10000000000E+001
  0.18231740000E+008,  0.20003503620E+007,  0.19000000000E+002,  0.00000000000E+000,  0.10000000000E+001
  0.18231890000E+008,  0.20003555301E+007,  0.19000000000E+002,  0.00000000000E+000,  0.10000000000E+001
  0.18232040000E+008,  0.20003606357E+007,  0.19000000000E+002,  0.00000000000E+000,  0.10000000000E+001
  0.18232190000E+008,  0.20003656924E+007,  0.19000000000E+002,  0.00000000000E+000,  0.10000000000E+001
  0.18232340000E+008,  0.20003707113E+007,  0.19000000000E+002,  0.00000000000E+000,  0.10000000000E+001
  0.18232490000E+008,  0.20003757011E+007,  0.19000000000E+002,  0.00000000000E+000,  0.10000000000E+001
  0.18232640000E+008,  0.20003806678E+007,  0.19000000000E+002,  0.00000000000E+000,  0.10000000000E+001
  0.18232790000E+008,  0.20003856168E+007,  0.19000000000E+002,  0.00000000000E+000,  0.10000000000E+001
  0.18232940000E+008,  0.20003905522E+007,  0.19000000000E+002,  0.00000000000E+000,  0.10000000000E+001
  0.18233090000E+008,  0.20003954767E+007,  0.19000000000E+002,  0.00000000000E+000,  0.10000000000E+001
  0.18233240000E+008,  0.20004003928E+007,  0.19000000000E+002,  0.00000000000E+000,  0.10000000000E+001
  0.18233390000E+008,  0.20004053025E+007,  0.19000000000E+002,  0.00000000000E+000,  0.10000000000E+001
  0.18233540000E+008,  0.20004102075E+007,  0.19000000000E+002,  0.00000000000E+000,  0.10000000000E+001
  0.18233690000E+008,  0.20004151084E+007,  0.19000000000E+002,  0.00000000000E+000,  0.10000000000E+001
  0.18233840000E+008,  0.20004200063E+007,  0.19000000000E+002,  0.00000000000E+000,  0.10000000000E+001
  0.18233990000E+008,  0.20004249023E+007,  0.19000000000E+002,  0.00000000000E+000,  0.10000000000E+001
  0.18234140000E+008,  0.20004297968E+007,  0.19000000000E+002,  0.00000000000E+000,  0.10000000000E+001
  0.18234290000E+008,  0.20004346897E+007,  0.19000000000E+002,  0.00000000000E+000,  0.10000000000E+001
  0.18234440000E+008,  0.20004395816E+007,  0.19000000000E+002,  0.00000000000E+000,  0.10000000000E+001
  0.18234590000E+008,  0.20004444726E+007,  0.19000000000E+002,  0.00000000000E+000,  0.10000000000E+001
  0.18234740000E+008,  0.20004493630E+007,  0.19000000000E+002,  0.00000000000E+000,  0.10000000000E+001
  0.18234890000E+008,  0.20004542525E+007,  0.19000000000E+002,  0.00000000000E+000,  0.10000000000E+001
  0.18235040000E+008,  0.20004591416E+007,  0.19000000000E+002,  0.00000000000E+000,  0.10000000000E+001
  0.18235190000E+008,  0.20004640301E+007,  0.19000000000E+002,  0.00000000000E+000,  0.10000000000E+001
  0.18235340000E+008,  0.20004689186E+007,  0.19000000000E+002,  0.00000000000E+000,  0.10000000000E+001
  0.18235490000E+008,  0.20004738064E+007,  0.19000000000E+002,  0.00000000000E+000,  0.10000000000E+001
  0.18235640000E+008,  0.20004788295E+007,  0.19000000000E+002,  0.00000000000E+000,  0.10000000000E+001
  0.18235715000E+008,  0.20004812421E+007,  0.19000000000E+002,  0.00000000000E+000,  0.10000000000E+001
  0.18235865000E+008,  0.20004859988E+007,  0.19000000000E+002,  0.00000000000E+000,  0.10000000000E+001
  0.18236015000E+008,  0.20004908182E+007,  0.19000000000E+002,  0.00000000000E+000,  0.10000000000E+001
  0.18236165000E+008,  0.20004956731E+007,  0.19000000000E+002,  0.00000000000E+000,  0.10000000000E+001
  0.18236315000E+008,  0.20005005427E+007,  0.19000000000E+002,  0.00000000000E+000,  0.10000000000E+001
  0.18236465000E+008,  0.20005054187E+007,  0.19000000000E+002,  0.00000000000E+000,  0.10000000000E+001
  0.18236615000E+008,  0.20005102984E+007,  0.19000000000E+002,  0.00000000000E+000,  0.10000000000E+001
  0.18236765000E+008,  0.20005151805E+007,  0.19000000000E+002,  0.00000000000E+000,  0.10000000000E+001
  0.18236915000E+008,  0.20005200645E+007,  0.19000000000E+002,  0.00000000000E+000,  0.10000000000E+001
  0.18237065000E+008,  0.20005249495E+007,  0.19000000000E+002,  0.00000000000E+000,  0.10000000000E+001
  0.18237215000E+008,  0.20005298354E+007,  0.19000000000E+002,  0.00000000000E+000,  0.10000000000E+001
  0.18237365000E+008,  0.20005347220E+007,  0.19000000000E+002,  0.00000000000E+000,  0.10000000000E+001
  0.18237515000E+008,  0.20005396092E+007,  0.19000000000E+002,  0.00000000000E+000,  0.10000000000E+001
  0.18237665000E+008,  0.20005444965E+007,  0.19000000000E+002,  0.00000000000E+000,  0.10000000000E+001
  0.18237815000E+008,  0.20005493840E+007,  0.19000000000E+002,  0.00000000000E+000,  0.10000000000E+001
  0.18237965000E+008,  0.20005542717E+007,  0.19000000000E+002,  0.00000000000E+000,  0.10000000000E+001
  0.18238115000E+008,  0.20005591596E+007,  0.19000000000E+002,  0.00000000000E+000,  0.10000000000E+001
  0.18238265000E+008,  0.20005640472E+007,  0.19000000000E+002,  0.00000000000E+000,  0.10000000000E+001
  0.18238415000E+008,  0.20005689348E+007,  0.19000000000E+002,  0.00000000000E+000,  0.10000000000E+001
  0.18238565000E+008,  0.20005738226E+007,  0.19000000000E+002,  0.00000000000E+000,  0.10000000000E+001
  0.18238715000E+008,  0.20005787100E+007,  0.19000000000E+002,  0.00000000000E+000,  0.10000000000E+001
  0.18238865000E+008,  0.20005835978E+007,  0.19000000000E+002,  0.00000000000E+000,  0.10000000000E+001
  0.18239015000E+008,  0.20005884853E+007,  0.19000000000E+002,  0.00000000000E+000,  0.10000000000E+001
  0.18239165000E+008,  0.20005933727E+007,  0.19000000000E+002,  0.00000000000E+000,  0.10000000000E+001
  0.18239315000E+008,  0.20005982600E+007,  0.19000000000E+002,  0.00000000000E+000,  0.10000000000E+001
  0.18239465000E+008,  0.20006031473E+007,  0.19000000000E+002,  0.00000000000E+000,  0.10000000000E+001
  0.18239615000E+008,  0.20006080342E+007,  0.19000000000E+002,  0.00000000000E+000,  0.10000000000E+001
  0.18239765000E+008,  0.20006129209E+007,  0.19000000000E+002,  0.00000000000E+000,  0.10000000000E+001
  0.18239915000E+008,  0.20006178077E+007,  0.19000000000E+002,  0.00000000000E+000,  0.10000000000E+001
  0.18240065000E+008,  0.20006226940E+007,  0.19000000000E+002,  0.00000000000E+000,  0.10000000000E+001
  0.18240215000E+008,  0.20006275805E+007,  0.19000000000E+002,  0.00000000000E+000,  0.10000000000E+001
  0.18240365000E+008,  0.20006324666E+007,  0.19000000000E+002,  0.00000000000E+000,  0.10000000000E+001
  0.18240515000E+008,  0.20006373525E+007,  0.19000000000E+002,  0.00000000000E+000,  0.10000000000E+001
  0.18240665000E+008,  0.20006422385E+007,  0.19000000000E+002,  0.00000000000E+000,  0.10000000000E+001
  0.18240815000E+008,  0.20006471244E+007,  0.19000000000E+002,  0.00000000000E+000,  0.10000000000E+001
  0.18240965000E+008,  0.20006520105E+007,  0.19000000000E+002,  0.00000000000E+000,  0.10000000000E+001
  0.18241115000E+008,  0.20006568964E+007,  0.19000000000E+002,  0.00000000000E+000,  0.10000000000E+001
  0.18241265000E+008,  0.20006617823E+007,  0.19000000000E+002,  0.00000000000E+000,  0.10000000000E+001
  0.18241415000E+008,  0.20006666680E+007,  0.19000000000E+002,  0.00000000000E+000,  0.10000000000E+001
  0.18241565000E+008,  0.20006715537E+007,  0.19000000000E+002,  0.00000000000E+000,  0.10000000000E+001
  0.18241715000E+008,  0.20006764388E+007,  0.19000000000E+002,  0.00000000000E+000,  0.10000000000E+001
  0.18241865000E+008,  0.20006813237E+007,  0.19000000000E+002,  0.00000000000E+000,  0.10000000000E+001
  0.18242015000E+008,  0.20006862084E+007,  0.19000000000E+002,  0.00000000000E+000,  0.10000000000E+001
  0.18242165000E+008,  0.20006910929E+007,  0.19000000000E+002,  0.00000000000E+000,  0.10000000000E+001
  0.18242315000E+008,  0.20006959772E+007,  0.19000000000E+002,  0.00000000000E+000,  0.10000000000E+001
  0.18242465000E+008,  0.20007008611E+007,  0.19000000000E+002,  0.00000000000E+000,  0.10000000000E+001
  0.18242615000E+008,  0.20007057447E+007,  0.19000000000E+002,  0.00000000000E+000,  0.10000000000E+001
  0.18242765000E+008,  0.20007106280E+007,  0.19000000000E+002,  0.00000000000E+000,  0.10000000000E+001
  0.18242915000E+008,  0.20007155113E+007,  0.19000000000E+002,  0.00000000000E+000,  0.10000000000E+001
  0.18243065000E+008,  0.20007203940E+007,  0.19000000000E+002,  0.00000000000E+000,  0.10000000000E+001
  0.18243215000E+008,  0.20007252765E+007,  0.19000000000E+002,  0.00000000000E+000,  0.10000000000E+001
  0.18243365000E+008,  0.20007301585E+007,  0.19000000000E+002,  0.00000000000E+000,  0.10000000000E+001
  0.18243515000E+008,  0.20007350389E+007,  0.19000000000E+002,  0.00000000000E+000,  0.10000000000E+001
  0.18243665000E+008,  0.20007399182E+007,  0.19000000000E+002,  0.00000000000E+000,  0.10000000000E+001
  0.18243815000E+008,  0.20007447955E+007,  0.19000000000E+002,  0.00000000000E+000,  0.10000000000E+001
  0.18243965000E+008,  0.20007496720E+007,  0.19000000000E+002,  0.00000000000E+000,  0.10000000000E+001
  0.18244115000E+008,  0.20007545479E+007,  0.19000000000E+002,  0.00000000000E+000,  0.10000000000E+001
  0.18244265000E+008,  0.20007594230E+007,  0.19000000000E+002,  0.00000000000E+000,  0.10000000000E+001
  0.18244415000E+008,  0.20007642979E+007,  0.19000000000E+002,  0.00000000000E+000,  0.10000000000E+001
  0.18244565000E+008,  0.20007691721E+007,  0.19000000000E+002,  0.00000000000E+000,  0.10000000000E+001
  0.18244715000E+008,  0.20007740458E+007,  0.19000000000E+002,  0.00000000000E+000,  0.10000000000E+001
  0.18244865000E+008,  0.20007789193E+007,  0.19000000000E+002,  0.00000000000E+000,  0.10000000000E+001
  0.18245015000E+008,  0.20007837914E+007,  0.19000000000E+002,  0.00000000000E+000,  0.10000000000E+001
  0.18245165000E+008,  0.20007886614E+007,  0.19000000000E+002,  0.00000000000E+000,  0.10000000000E+001
  0.18245315000E+008,  0.20007935303E+007,  0.19000000000E+002,  0.00000000000E+000,  0.10000000000E+001
  0.18245465000E+008,  0.20007983988E+007,  0.19000000000E+002,  0.00000000000E+000,  0.10000000000E+001
  0.18245615000E+008,  0.20008032665E+007,  0.19000000000E+002,  0.00000000000E+000,  0.10000000000E+001
  0.18245765000E+008,  0.20008081336E+007,  0.19000000000E+002,  0.00000000000E+000,  0.10000000000E+001
  0.18245915000E+008,  0.20008130006E+007,  0.19000000000E+002,  0.00000000000E+000,  0.10000000000E+001
  0.18246065000E+008,  0.20008178676E+007,  0.19000000000E+002,  0.00000000000E+000,  0.10000000000E+001
  0.18246215000E+008,  0.20008227342E+007,  0.19000000000E+002,  0.00000000000E+000,  0.10000000000E+001
  0.18246365000E+008,  0.20008276009E+007,  0.19000000000E+002,  0.00000000000E+000,  0.10000000000E+001
  0.18246515000E+008,  0.20008324675E+007,  0.19000000000E+002,  0.00000000000E+000,  0.10000000000E+001
  0.18246665000E+008,  0.20008373342E+007,  0.19000000000E+002,  0.00000000000E+000,  0.10000000000E+001
  0.18246815000E+008,  0.20008422006E+007,  0.19000000000E+002,  0.00000000000E+000,  0.10000000000E+001
  0.18246965000E+008,  0.20008470667E+007,  0.19000000000E+002,  0.00000000000E+000,  0.10000000000E+001
  0.18247115000E+008,  0.20008519323E+007,  0.19000000000E+002,  0.00000000000E+000,  0.10000000000E+001
  0.18247265000E+008,  0.20008567975E+007,  0.19000000000E+002,  0.00000000000E+000,  0.10000000000E+001
  0.18247415000E+008,  0.20008616618E+007,  0.19000000000E+002,  0.00000000000E+000,  0.10000000000E+001
  0.18247565000E+008,  0.20008665255E+007,  0.19000000000E+002,  0.00000000000E+000,  0.10000000000E+001
  0.18247715000E+008,  0.20008713885E+007,  0.19000000000E+002,  0.00000000000E+000,  0.10000000000E+001
  0.18247865000E+008,  0.20008762509E+007,  0.19000000000E+002,  0.00000000000E+000,  0.10000000000E+001
  0.18248015000E+008,  0.20008811125E+007,  0.19000000000E+002,  0.00000000000E+000,  0.10000000000E+001
  0.18248165000E+008,  0.20008859733E+007,  0.19000000000E+002,  0.00000000000E+000,  0.10000000000E+001
  0.18248315000E+008,  0.20008908338E+007,  0.19000000000E+002,  0.00000000000E+000,  0.10000000000E+001
  0.18248465000E+008,  0.20008956938E+007,  0.19000000000E+002,  0.00000000000E+000,  0.10000000000E+001
  0.18248615000E+008,  0.20009005530E+007,  0.19000000000E+002,  0.00000000000E+000,  0.10000000000E+001
  0.18248765000E+008,  0.20009054119E+007,  0.19000000000E+002,  0.00000000000E+000,  0.10000000000E+001
  0.18248915000E+008,  0.20009102700E+007,  0.19000000000E+002,  0.00000000000E+000,  0.10000000000E+001
  0.18249065000E+008,  0.20009151274E+007,  0.19000000000E+002,  0.00000000000E+000,  0.10000000000E+001
  0.18249215000E+008,  0.20009199841E+007,  0.19000000000E+002,  0.00000000000E+000,  0.10000000000E+001
  0.18249365000E+008,  0.20009248403E+007,  0.19000000000E+002,  0.00000000000E+000,  0.10000000000E+001
  0.18249515000E+008,  0.20009296953E+007,  0.19000000000E+002,  0.00000000000E+000,  0.10000000000E+001
  0.18249665000E+008,  0.20009345494E+007,  0.19000000000E+002,  0.00000000000E+000,  0.10000000000E+001
  0.18249815000E+008,  0.20009394027E+007,  0.19000000000E+002,  0.00000000000E+000,  0.10000000000E+001
  0.18249965000E+008,  0.20009442553E+007,  0.19000000000E+002,  0.00000000000E+000,  0.10000000000E+001
  0.18250115000E+008,  0.20009491068E+007,  0.19000000000E+002,  0.00000000000E+000,  0.10000000000E+001
  0.18250265000E+008,  0.20009539573E+007,  0.19000000000E+002,  0.00000000000E+000,  0.10000000000E+001
  0.18250415000E+008,  0.20009589174E+007,  0.19000000000E+002,  0.00000000000E+000,  0.10000000000E+001
  0.18250490001E+008,  0.20009613819E+007,  0.19000000000E+002,  0.00000000000E+000,  0.10000000000E+001
  0.18250640001E+008,  0.20009661234E+007,  0.19000000000E+002,  0.00000000000E+000,  0.10000000000E+001
  0.18250790001E+008,  0.20009709561E+007,  0.19000000000E+002,  0.00000000000E+000,  0.10000000000E+001
  0.18250865001E+008,  0.20009734083E+007,  0.19000000000E+002,  0.00000000000E+000,  0.10000000000E+001
  0.18251015001E+008,  0.20009781358E+007,  0.19000000000E+002,  0.00000000000E+000,  0.10000000000E+001
  0.18251165001E+008,  0.20009828875E+007,  0.19000000000E+002,  0.00000000000E+000,  0.10000000000E+001
  0.18251315001E+008,  0.20009876758E+007,  0.19000000000E+002,  0.00000000000E+000,  0.10000000000E+001
  0.18251465001E+008,  0.20009924851E+007,  0.19000000000E+002,  0.00000000000E+000,  0.10000000000E+001
  0.18251615001E+008,  0.20009973055E+007,  0.19000000000E+002,  0.00000000000E+000,  0.10000000000E+001
  0.18251765001E+008,  0.20010023031E+007,  0.19000000000E+002,  0.00000000000E+000,  0.10000000000E+001
  0.18251840002E+008,  0.20010046809E+007,  0.19000000000E+002,  0.00000000000E+000,  0.10000000000E+001
  0.18251990002E+008,  0.20010093886E+007,  0.19000000000E+002,  0.00000000000E+000,  0.10000000000E+001
  0.18252140002E+008,  0.20010141410E+007,  0.19000000000E+002,  0.00000000000E+000,  0.10000000000E+001
  0.18252290002E+008,  0.20010189271E+007,  0.19000000000E+002,  0.00000000000E+000,  0.10000000000E+001
  0.18252440002E+008,  0.20010237328E+007,  0.19000000000E+002,  0.00000000000E+000,  0.10000000000E+001
  0.18252590002E+008,  0.20010285482E+007,  0.19000000000E+002,  0.00000000000E+000,  0.10000000000E+001
  0.18252740002E+008,  0.20010333651E+007,  0.19000000000E+002,  0.00000000000E+000,  0.10000000000E+001
  0.18252890002E+008,  0.20010381836E+007,  0.19000000000E+002,  0.00000000000E+000,  0.10000000000E+001
  0.18253040002E+008,  0.20010430019E+007,  0.19000000000E+002,  0.00000000000E+000,  0.10000000000E+001
  0.18253190002E+008,  0.20010478189E+007,  0.19000000000E+002,  0.00000000000E+000,  0.10000000000E+001
  0.18253340002E+008,  0.20010526342E+007,  0.19000000000E+002,  0.00000000000E+000,  0.10000000000E+001
  0.18253490002E+008,  0.20010574471E+007,  0.19000000000E+002,  0.00000000000E+000,  0.10000000000E+001
  0.18253640002E+008,  0.20010622586E+007,  0.19000000000E+002,  0.00000000000E+000,  0.10000000000E+001
  0.18253790002E+008,  0.20010670680E+007,  0.19000000000E+002,  0.00000000000E+000,  0.10000000000E+001
  0.18253940002E+008,  0.20010718724E+007,  0.19000000000E+002,  0.00000000000E+000,  0.10000000000E+001
  0.18254090002E+008,  0.20010766723E+007,  0.19000000000E+002,  0.00000000000E+000,  0.10000000000E+001
  0.18254240002E+008,  0.20010814694E+007,  0.19000000000E+002,  0.00000000000E+000,  0.10000000000E+001
  0.18254390002E+008,  0.20010862642E+007,  0.19000000000E+002,  0.00000000000E+000,  0.10000000000E+001
  0.18254540002E+008,  0.20010910575E+007,  0.19000000000E+002,  0.00000000000E+000,  0.10000000000E+001
  0.18254690002E+008,  0.20010958488E+007,  0.19000000000E+002,  0.00000000000E+000,  0.10000000000E+001
  0.18254840002E+008,  0.20011006386E+007,  0.19000000000E+002,  0.00000000000E+000,  0.10000000000E+001
  0.18254990002E+008,  0.20011054270E+007,  0.19000000000E+002,  0.00000000000E+000,  0.10000000000E+001
  0.18255140002E+008,  0.20011102142E+007,  0.19000000000E+002,  0.00000000000E+000,  0.10000000000E+001
  0.18255290002E+008,  0.20011149999E+007,  0.19000000000E+002,  0.00000000000E+000,  0.10000000000E+001
  0.18255440002E+008,  0.20011197844E+007,  0.19000000000E+002,  0.00000000000E+000,  0.10000000000E+001
  0.18255590002E+008,  0.20011245677E+007,  0.19000000000E+002,  0.00000000000E+000,  0.10000000000E+001
  0.18255740002E+008,  0.20011293500E+007,  0.19000000000E+002,  0.00000000000E+000,  0.10000000000E+001
  0.18255890002E+008,  0.20011341309E+007,  0.19000000000E+002,  0.00000000000E+000,  0.10000000000E+001
  0.18256040002E+008,  0.20011389106E+007,  0.19000000000E+002,  0.00000000000E+000,  0.10000000000E+001
  0.18256190002E+008,  0.20011436806E+007,  0.19000000000E+002,  0.00000000000E+000,  0.10000000000E+001
  0.18256340002E+008,  0.20011484363E+007,  0.19000000000E+002,  0.00000000000E+000,  0.10000000000E+001
  0.18256490002E+008,  0.20011531822E+007,  0.19000000000E+002,  0.00000000000E+000,  0.10000000000E+001
  0.18256640002E+008,  0.20011579151E+007,  0.19000000000E+002,  0.00000000000E+000,  0.10000000000E+001
