"           TIME(S)","              PRES","              TEMP","             SAT_G","             SAT_L"
  0.17592105000E+008,  0.21000000000E+007,  0.19000000000E+002,  0.00000000000E+000,  0.10000000000E+001
  0.17592130000E+008,  0.20999998234E+007,  0.19000000000E+002,  0.00000000000E+000,  0.10000000000E+001
  0.17592255000E+008,  0.20998617031E+007,  0.19000000000E+002,  0.00000000000E+000,  0.10000000000E+001
  0.17592405000E+008,  0.20994218466E+007,  0.19000000000E+002,  0.00000000000E+000,  0.10000000000E+001
  0.17592555000E+008,  0.20987737890E+007,  0.19000000000E+002,  0.00000000000E+000,  0.10000000000E+001
  0.17592705000E+008,  0.20980162034E+007,  0.19000000000E+002,  0.00000000000E+000,  0.10000000000E+001
  0.17592855000E+008,  0.20972245006E+007,  0.19000000000E+002,  0.00000000000E+000,  0.10000000000E+001
  0.17593005000E+008,  0.20964420469E+007,  0.19000000000E+002,  0.00000000000E+000,  0.10000000000E+001
  0.17593155000E+008,  0.20956885920E+007,  0.19000000000E+002,  0.00000000000E+000,  0.10000000000E+001
  0.17593305000E+008,  0.20949701829E+007,  0.19000000000E+002,  0.00000000000E+000,  0.10000000000E+001
  0.17593455000E+008,  0.20942861364E+007,  0.19000000000E+002,  0.00000000000E+000,  0.10000000000E+001
  0.17593605000E+008,  0.20936330684E+007,  0.19000000000E+002,  0.00000000000E+000,  0.10000000000E+001
  0.17593755000E+008,  0.20930069456E+007,  0.19000000000E+002,  0.00000000000E+000,  0.10000000000E+001
  0.17593905000E+008,  0.20924040007E+007,  0.19000000000E+002,  0.00000000000E+000,  0.10000000000E+001
  0.17594055000E+008,  0.20918210580E+007,  0.19000000000E+002,  0.00000000000E+000,  0.10000000000E+001
  0.17594205000E+008,  0.20912555799E+007,  0.19000000000E+002,  0.00000000000E+000,  0.10000000000E+001
  0.17594355000E+008,  0.20907055972E+007,  0.19000000000E+002,  0.00000000000E+000,  0.10000000000E+001
  0.17594505000E+008,  0.20901696043E+007,  0.19000000000E+002,  0.00000000000E+000,  0.10000000000E+001
  0.17594655000E+008,  0.20896464556E+007,  0.19000000000E+002,  0.00000000000E+000,  0.10000000000E+001
  0.17594805000E+008,  0.20891352760E+007,  0.19000000000E+002,  0.00000000000E+000,  0.10000000000E+001
  0.17594955000E+008,  0.20886353892E+007,  0.19000000000E+002,  0.00000000000E+000,  0.10000000000E+001
  0.17595105000E+008,  0.20881462629E+007,  0.19000000000E+002,  0.00000000000E+000,  0.10000000000E+001
  0.17595255000E+008,  0.20876674683E+007,  0.19000000000E+002,  0.00000000000E+000,  0.10000000000E+001
  0.17595405000E+008,  0.20871986496E+007,  0.19000000000E+002,  0.00000000000E+000,  0.10000000000E+001
  0.17595555000E+008,  0.20867378672E+007,  0.19000000000E+002,  0.00000000000E+000,  0.10000000000E+001
  0.17595630000E+008,  0.20865091512E+007,  0.19000000000E+002,  0.00000000000E+000,  0.10000000000E+001
  0.17595667501E+008,  0.20863951672E+007,  0.19000000000E+002,  0.00000000000E+000,  0.10000000000E+001
  0.17595817501E+008,  0.20859439392E+007,  0.19000000000E+002,  0.00000000000E+000,  0.10000000000E+001
  0.17595826876E+008,  0.20859157554E+007,  0.19000000000E+002,  0.00000000000E+000,  0.10000000000E+001
  0.17595831564E+008,  0.20859016677E+007,  0.19000000000E+002,  0.00000000000E+000,  0.10000000000E+001
  0.17595855001E+008,  0.20858313392E+007,  0.19000000000E+002,  0.00000000000E+000,  0.10000000000E+001
  0.17595866720E+008,  0.20857962016E+007,  0.19000000000E+002,  0.00000000000E+000,  0.10000000000E+001
  0.17595872580E+008,  0.20857786394E+007,  0.19000000000E+002,  0.00000000000E+000,  0.10000000000E+001
  0.17595901877E+008,  0.20856909942E+007,  0.19000000000E+002,  0.00000000000E+000,  0.10000000000E+001
  0.17595916526E+008,  0.20856472128E+007,  0.19000000000E+002,  0.00000000000E+000,  0.10000000000E+001
  0.17595989771E+008,  0.20854293534E+007,  0.19000000000E+002,  0.00000000000E+000,  0.10000000000E+001
  0.17596139771E+008,  0.20849875488E+007,  0.19000000000E+002,  0.00000000000E+000,  0.10000000000E+001
  0.17596289771E+008,  0.20845499946E+007,  0.19000000000E+002,  0.00000000000E+000,  0.10000000000E+001
  0.17596364771E+008,  0.20843322501E+007,  0.19000000000E+002,  0.00000000000E+000,  0.10000000000E+001
  0.17596402272E+008,  0.20842236304E+007,  0.19000000000E+002,  0.00000000000E+000,  0.10000000000E+001
  0.17596421022E+008,  0.20841693829E+007,  0.19000000000E+002,  0.00000000000E+000,  0.10000000000E+001
  0.17596514774E+008,  0.20838995110E+007,  0.19000000000E+002,  0.00000000000E+000,  0.10000000000E+001
  0.17596664774E+008,  0.20834703575E+007,  0.19000000000E+002,  0.00000000000E+000,  0.10000000000E+001
  0.17596739774E+008,  0.20832563245E+007,  0.19000000000E+002,  0.00000000000E+000,  0.10000000000E+001
  0.17596777275E+008,  0.20831494285E+007,  0.19000000000E+002,  0.00000000000E+000,  0.10000000000E+001
  0.17596927275E+008,  0.20827228165E+007,  0.19000000000E+002,  0.00000000000E+000,  0.10000000000E+001
  0.17597002275E+008,  0.20825096164E+007,  0.19000000000E+002,  0.00000000000E+000,  0.10000000000E+001
  0.17597152275E+008,  0.20820826955E+007,  0.19000000000E+002,  0.00000000000E+000,  0.10000000000E+001
  0.17597302275E+008,  0.20816546026E+007,  0.19000000000E+002,  0.00000000000E+000,  0.10000000000E+001
  0.17597452275E+008,  0.20812250046E+007,  0.19000000000E+002,  0.00000000000E+000,  0.10000000000E+001
  0.17597602275E+008,  0.20807938328E+007,  0.19000000000E+002,  0.00000000000E+000,  0.10000000000E+001
  0.17597752275E+008,  0.20803612114E+007,  0.19000000000E+002,  0.00000000000E+000,  0.10000000000E+001
  0.17597902275E+008,  0.20799273890E+007,  0.19000000000E+002,  0.00000000000E+000,  0.10000000000E+001
  0.17598052275E+008,  0.20794926818E+007,  0.19000000000E+002,  0.00000000000E+000,  0.10000000000E+001
  0.17598202275E+008,  0.20790574328E+007,  0.19000000000E+002,  0.00000000000E+000,  0.10000000000E+001
  0.17598352275E+008,  0.20786219842E+007,  0.19000000000E+002,  0.00000000000E+000,  0.10000000000E+001
  0.17598502275E+008,  0.20781866598E+007,  0.19000000000E+002,  0.00000000000E+000,  0.10000000000E+001
  0.17598652275E+008,  0.20777517559E+007,  0.19000000000E+002,  0.00000000000E+000,  0.10000000000E+001
  0.17598802275E+008,  0.20773175373E+007,  0.19000000000E+002,  0.00000000000E+000,  0.10000000000E+001
  0.17598952275E+008,  0.20768842360E+007,  0.19000000000E+002,  0.00000000000E+000,  0.10000000000E+001
  0.17599102275E+008,  0.20764520524E+007,  0.19000000000E+002,  0.00000000000E+000,  0.10000000000E+001
  0.17599252275E+008,  0.20760211582E+007,  0.19000000000E+002,  0.00000000000E+000,  0.10000000000E+001
  0.17599402275E+008,  0.20755916984E+007,  0.19000000000E+002,  0.00000000000E+000,  0.10000000000E+001
  0.17599552275E+008,  0.20751637953E+007,  0.19000000000E+002,  0.00000000000E+000,  0.10000000000E+001
  0.17599702275E+008,  0.20747375508E+007,  0.19000000000E+002,  0.00000000000E+000,  0.10000000000E+001
  0.17599852275E+008,  0.20743130496E+007,  0.19000000000E+002,  0.00000000000E+000,  0.10000000000E+001
  0.17600002275E+008,  0.20738903618E+007,  0.19000000000E+002,  0.00000000000E+000,  0.10000000000E+001
  0.17600152275E+008,  0.20734695449E+007,  0.19000000000E+002,  0.00000000000E+000,  0.10000000000E+001
  0.17600302275E+008,  0.20730506461E+007,  0.19000000000E+002,  0.00000000000E+000,  0.10000000000E+001
  0.17600452275E+008,  0.20726337041E+007,  0.19000000000E+002,  0.00000000000E+000,  0.10000000000E+001
  0.17600602275E+008,  0.20722187500E+007,  0.19000000000E+002,  0.00000000000E+000,  0.10000000000E+001
  0.17600752275E+008,  0.20718058092E+007,  0.19000000000E+002,  0.00000000000E+000,  0.10000000000E+001
  0.17600902275E+008,  0.20713949019E+007,  0.19000000000E+002,  0.00000000000E+000,  0.10000000000E+001
  0.17601052275E+008,  0.20709860443E+007,  0.19000000000E+002,  0.00000000000E+000,  0.10000000000E+001
  0.17601202275E+008,  0.20705792492E+007,  0.19000000000E+002,  0.00000000000E+000,  0.10000000000E+001
  0.17601352275E+008,  0.20701745264E+007,  0.19000000000E+002,  0.00000000000E+000,  0.10000000000E+001
  0.17601502275E+008,  0.20697718833E+007,  0.19000000000E+002,  0.00000000000E+000,  0.10000000000E+001
  0.17601652275E+008,  0.20693713255E+007,  0.19000000000E+002,  0.00000000000E+000,  0.10000000000E+001
  0.17601802275E+008,  0.20689728567E+007,  0.19000000000E+002,  0.00000000000E+000,  0.10000000000E+001
  0.17601952275E+008,  0.20685764793E+007,  0.19000000000E+002,  0.00000000000E+000,  0.10000000000E+001
  0.17602102275E+008,  0.20681821944E+007,  0.19000000000E+002,  0.00000000000E+000,  0.10000000000E+001
  0.17602252275E+008,  0.20677900019E+007,  0.19000000000E+002,  0.00000000000E+000,  0.10000000000E+001
  0.17602402275E+008,  0.20673999012E+007,  0.19000000000E+002,  0.00000000000E+000,  0.10000000000E+001
  0.17602552275E+008,  0.20670118905E+007,  0.19000000000E+002,  0.00000000000E+000,  0.10000000000E+001
  0.17602702275E+008,  0.20666259674E+007,  0.19000000000E+002,  0.00000000000E+000,  0.10000000000E+001
  0.17602852275E+008,  0.20662421290E+007,  0.19000000000E+002,  0.00000000000E+000,  0.10000000000E+001
  0.17603002275E+008,  0.20658603717E+007,  0.19000000000E+002,  0.00000000000E+000,  0.10000000000E+001
  0.17603152275E+008,  0.20654806915E+007,  0.19000000000E+002,  0.00000000000E+000,  0.10000000000E+001
  0.17603302275E+008,  0.20651030840E+007,  0.19000000000E+002,  0.00000000000E+000,  0.10000000000E+001
  0.17603452275E+008,  0.20647275441E+007,  0.19000000000E+002,  0.00000000000E+000,  0.10000000000E+001
  0.17603602275E+008,  0.20643540667E+007,  0.19000000000E+002,  0.00000000000E+000,  0.10000000000E+001
  0.17603752275E+008,  0.20639826461E+007,  0.19000000000E+002,  0.00000000000E+000,  0.10000000000E+001
  0.17603902275E+008,  0.20636132765E+007,  0.19000000000E+002,  0.00000000000E+000,  0.10000000000E+001
  0.17604052275E+008,  0.20632459516E+007,  0.19000000000E+002,  0.00000000000E+000,  0.10000000000E+001
  0.17604202275E+008,  0.20628806649E+007,  0.19000000000E+002,  0.00000000000E+000,  0.10000000000E+001
  0.17604352275E+008,  0.20625174098E+007,  0.19000000000E+002,  0.00000000000E+000,  0.10000000000E+001
  0.17604502275E+008,  0.20621561793E+007,  0.19000000000E+002,  0.00000000000E+000,  0.10000000000E+001
  0.17604652275E+008,  0.20617969664E+007,  0.19000000000E+002,  0.00000000000E+000,  0.10000000000E+001
  0.17604802275E+008,  0.20614397636E+007,  0.19000000000E+002,  0.00000000000E+000,  0.10000000000E+001
  0.17604952275E+008,  0.20610845635E+007,  0.19000000000E+002,  0.00000000000E+000,  0.10000000000E+001
  0.17605102275E+008,  0.20607313585E+007,  0.19000000000E+002,  0.00000000000E+000,  0.10000000000E+001
  0.17605252275E+008,  0.20603801407E+007,  0.19000000000E+002,  0.00000000000E+000,  0.10000000000E+001
  0.17605402275E+008,  0.20600309021E+007,  0.19000000000E+002,  0.00000000000E+000,  0.10000000000E+001
  0.17605552275E+008,  0.20596836348E+007,  0.19000000000E+002,  0.00000000000E+000,  0.10000000000E+001
  0.17605702275E+008,  0.20593383305E+007,  0.19000000000E+002,  0.00000000000E+000,  0.10000000000E+001
  0.17605852275E+008,  0.20589949810E+007,  0.19000000000E+002,  0.00000000000E+000,  0.10000000000E+001
  0.17606002275E+008,  0.20586535779E+007,  0.19000000000E+002,  0.00000000000E+000,  0.10000000000E+001
  0.17606152275E+008,  0.20583141127E+007,  0.19000000000E+002,  0.00000000000E+000,  0.10000000000E+001
  0.17606302275E+008,  0.20579765768E+007,  0.19000000000E+002,  0.00000000000E+000,  0.10000000000E+001
  0.17606452275E+008,  0.20576409616E+007,  0.19000000000E+002,  0.00000000000E+000,  0.10000000000E+001
  0.17606602275E+008,  0.20573072585E+007,  0.19000000000E+002,  0.00000000000E+000,  0.10000000000E+001
  0.17606752275E+008,  0.20569754587E+007,  0.19000000000E+002,  0.00000000000E+000,  0.10000000000E+001
  0.17606902275E+008,  0.20566455534E+007,  0.19000000000E+002,  0.00000000000E+000,  0.10000000000E+001
  0.17607052275E+008,  0.20563175338E+007,  0.19000000000E+002,  0.00000000000E+000,  0.10000000000E+001
  0.17607202275E+008,  0.20559913909E+007,  0.19000000000E+002,  0.00000000000E+000,  0.10000000000E+001
  0.17607352275E+008,  0.20556671158E+007,  0.19000000000E+002,  0.00000000000E+000,  0.10000000000E+001
  0.17607502275E+008,  0.20553446997E+007,  0.19000000000E+002,  0.00000000000E+000,  0.10000000000E+001
  0.17607652275E+008,  0.20550241334E+007,  0.19000000000E+002,  0.00000000000E+000,  0.10000000000E+001
  0.17607802275E+008,  0.20547054080E+007,  0.19000000000E+002,  0.00000000000E+000,  0.10000000000E+001
  0.17607952275E+008,  0.20543885145E+007,  0.19000000000E+002,  0.00000000000E+000,  0.10000000000E+001
  0.17608102275E+008,  0.20540734437E+007,  0.19000000000E+002,  0.00000000000E+000,  0.10000000000E+001
  0.17608252275E+008,  0.20537601867E+007,  0.19000000000E+002,  0.00000000000E+000,  0.10000000000E+001
  0.17608402275E+008,  0.20534487345E+007,  0.19000000000E+002,  0.00000000000E+000,  0.10000000000E+001
  0.17608552275E+008,  0.20531390778E+007,  0.19000000000E+002,  0.00000000000E+000,  0.10000000000E+001
  0.17608702275E+008,  0.20528312077E+007,  0.19000000000E+002,  0.00000000000E+000,  0.10000000000E+001
  0.17608852275E+008,  0.20525251150E+007,  0.19000000000E+002,  0.00000000000E+000,  0.10000000000E+001
  0.17609002275E+008,  0.20522207907E+007,  0.19000000000E+002,  0.00000000000E+000,  0.10000000000E+001
  0.17609152275E+008,  0.20519182258E+007,  0.19000000000E+002,  0.00000000000E+000,  0.10000000000E+001
  0.17609302275E+008,  0.20516174111E+007,  0.19000000000E+002,  0.00000000000E+000,  0.10000000000E+001
  0.17609452275E+008,  0.20513183376E+007,  0.19000000000E+002,  0.00000000000E+000,  0.10000000000E+001
  0.17609602275E+008,  0.20510209962E+007,  0.19000000000E+002,  0.00000000000E+000,  0.10000000000E+001
  0.17609752275E+008,  0.20507253780E+007,  0.19000000000E+002,  0.00000000000E+000,  0.10000000000E+001
  0.17609902275E+008,  0.20504314738E+007,  0.19000000000E+002,  0.00000000000E+000,  0.10000000000E+001
  0.17610052275E+008,  0.20501392748E+007,  0.19000000000E+002,  0.00000000000E+000,  0.10000000000E+001
  0.17610202275E+008,  0.20498487718E+007,  0.19000000000E+002,  0.00000000000E+000,  0.10000000000E+001
  0.17610352275E+008,  0.20495599560E+007,  0.19000000000E+002,  0.00000000000E+000,  0.10000000000E+001
  0.17610502275E+008,  0.20492728183E+007,  0.19000000000E+002,  0.00000000000E+000,  0.10000000000E+001
  0.17610652275E+008,  0.20489873499E+007,  0.19000000000E+002,  0.00000000000E+000,  0.10000000000E+001
  0.17610802275E+008,  0.20487035418E+007,  0.19000000000E+002,  0.00000000000E+000,  0.10000000000E+001
  0.17610952275E+008,  0.20484213852E+007,  0.19000000000E+002,  0.00000000000E+000,  0.10000000000E+001
  0.17611102275E+008,  0.20481408711E+007,  0.19000000000E+002,  0.00000000000E+000,  0.10000000000E+001
  0.17611252275E+008,  0.20478619908E+007,  0.19000000000E+002,  0.00000000000E+000,  0.10000000000E+001
  0.17611402275E+008,  0.20475847354E+007,  0.19000000000E+002,  0.00000000000E+000,  0.10000000000E+001
  0.17611552275E+008,  0.20473090962E+007,  0.19000000000E+002,  0.00000000000E+000,  0.10000000000E+001
  0.17611702275E+008,  0.20470350644E+007,  0.19000000000E+002,  0.00000000000E+000,  0.10000000000E+001
  0.17611852275E+008,  0.20467626313E+007,  0.19000000000E+002,  0.00000000000E+000,  0.10000000000E+001
  0.17612002275E+008,  0.20464917881E+007,  0.19000000000E+002,  0.00000000000E+000,  0.10000000000E+001
  0.17612152275E+008,  0.20462225262E+007,  0.19000000000E+002,  0.00000000000E+000,  0.10000000000E+001
  0.17612302275E+008,  0.20459548369E+007,  0.19000000000E+002,  0.00000000000E+000,  0.10000000000E+001
  0.17612452275E+008,  0.20456887117E+007,  0.19000000000E+002,  0.00000000000E+000,  0.10000000000E+001
  0.17612602275E+008,  0.20454241419E+007,  0.19000000000E+002,  0.00000000000E+000,  0.10000000000E+001
  0.17612752275E+008,  0.20451611191E+007,  0.19000000000E+002,  0.00000000000E+000,  0.10000000000E+001
  0.17612902275E+008,  0.20448996346E+007,  0.19000000000E+002,  0.00000000000E+000,  0.10000000000E+001
  0.17613052275E+008,  0.20446396801E+007,  0.19000000000E+002,  0.00000000000E+000,  0.10000000000E+001
  0.17613202275E+008,  0.20443812470E+007,  0.19000000000E+002,  0.00000000000E+000,  0.10000000000E+001
  0.17613352275E+008,  0.20441243270E+007,  0.19000000000E+002,  0.00000000000E+000,  0.10000000000E+001
  0.17613502275E+008,  0.20438689116E+007,  0.19000000000E+002,  0.00000000000E+000,  0.10000000000E+001
  0.17613652275E+008,  0.20436149925E+007,  0.19000000000E+002,  0.00000000000E+000,  0.10000000000E+001
  0.17613802275E+008,  0.20433625614E+007,  0.19000000000E+002,  0.00000000000E+000,  0.10000000000E+001
  0.17613952275E+008,  0.20431116101E+007,  0.19000000000E+002,  0.00000000000E+000,  0.10000000000E+001
  0.17614102275E+008,  0.20428621302E+007,  0.19000000000E+002,  0.00000000000E+000,  0.10000000000E+001
  0.17614252275E+008,  0.20426141135E+007,  0.19000000000E+002,  0.00000000000E+000,  0.10000000000E+001
  0.17614402275E+008,  0.20423675520E+007,  0.19000000000E+002,  0.00000000000E+000,  0.10000000000E+001
  0.17614552275E+008,  0.20421224374E+007,  0.19000000000E+002,  0.00000000000E+000,  0.10000000000E+001
  0.17614702275E+008,  0.20418787616E+007,  0.19000000000E+002,  0.00000000000E+000,  0.10000000000E+001
  0.17614852275E+008,  0.20416365166E+007,  0.19000000000E+002,  0.00000000000E+000,  0.10000000000E+001
  0.17615002275E+008,  0.20413956943E+007,  0.19000000000E+002,  0.00000000000E+000,  0.10000000000E+001
  0.17615152275E+008,  0.20411562867E+007,  0.19000000000E+002,  0.00000000000E+000,  0.10000000000E+001
  0.17615302275E+008,  0.20409182860E+007,  0.19000000000E+002,  0.00000000000E+000,  0.10000000000E+001
  0.17615452275E+008,  0.20406816841E+007,  0.19000000000E+002,  0.00000000000E+000,  0.10000000000E+001
  0.17615602275E+008,  0.20404464731E+007,  0.19000000000E+002,  0.00000000000E+000,  0.10000000000E+001
  0.17615752275E+008,  0.20402126453E+007,  0.19000000000E+002,  0.00000000000E+000,  0.10000000000E+001
  0.17615902275E+008,  0.20399801928E+007,  0.19000000000E+002,  0.00000000000E+000,  0.10000000000E+001
  0.17616052275E+008,  0.20397491078E+007,  0.19000000000E+002,  0.00000000000E+000,  0.10000000000E+001
  0.17616202275E+008,  0.20395193826E+007,  0.19000000000E+002,  0.00000000000E+000,  0.10000000000E+001
  0.17616352275E+008,  0.20392910095E+007,  0.19000000000E+002,  0.00000000000E+000,  0.10000000000E+001
  0.17616502275E+008,  0.20390639808E+007,  0.19000000000E+002,  0.00000000000E+000,  0.10000000000E+001
  0.17616652275E+008,  0.20388382888E+007,  0.19000000000E+002,  0.00000000000E+000,  0.10000000000E+001
  0.17616802275E+008,  0.20386139261E+007,  0.19000000000E+002,  0.00000000000E+000,  0.10000000000E+001
  0.17616952275E+008,  0.20383908850E+007,  0.19000000000E+002,  0.00000000000E+000,  0.10000000000E+001
  0.17617102275E+008,  0.20381691580E+007,  0.19000000000E+002,  0.00000000000E+000,  0.10000000000E+001
  0.17617252275E+008,  0.20379487376E+007,  0.19000000000E+002,  0.00000000000E+000,  0.10000000000E+001
  0.17617402275E+008,  0.20377296164E+007,  0.19000000000E+002,  0.00000000000E+000,  0.10000000000E+001
  0.17617552275E+008,  0.20375117870E+007,  0.19000000000E+002,  0.00000000000E+000,  0.10000000000E+001
  0.17617702275E+008,  0.20372952420E+007,  0.19000000000E+002,  0.00000000000E+000,  0.10000000000E+001
  0.17617852275E+008,  0.20370799740E+007,  0.19000000000E+002,  0.00000000000E+000,  0.10000000000E+001
  0.17618002275E+008,  0.20368659758E+007,  0.19000000000E+002,  0.00000000000E+000,  0.10000000000E+001
  0.17618152275E+008,  0.20366532402E+007,  0.19000000000E+002,  0.00000000000E+000,  0.10000000000E+001
  0.17618302275E+008,  0.20364417598E+007,  0.19000000000E+002,  0.00000000000E+000,  0.10000000000E+001
