"           TIME(S)","              PRES","              TEMP","             SAT_G","             SAT_L"
  0.18228700500E+008,  0.20000000000E+007,  0.19000000000E+002,  0.00000000000E+000,  0.10000000000E+001
  0.18228702500E+008,  0.20000000881E+007,  0.19000000000E+002,  0.00000000000E+000,  0.10000000000E+001
  0.18228704500E+008,  0.20000004452E+007,  0.19000000000E+002,  0.00000000000E+000,  0.10000000000E+001
  0.18228706500E+008,  0.20000012834E+007,  0.19000000000E+002,  0.00000000000E+000,  0.10000000000E+001
  0.18228708500E+008,  0.20000027798E+007,  0.19000000000E+002,  0.00000000000E+000,  0.10000000000E+001
  0.18228710500E+008,  0.20000050416E+007,  0.19000000000E+002,  0.00000000000E+000,  0.10000000000E+001
  0.18228712500E+008,  0.20000081040E+007,  0.19000000000E+002,  0.00000000000E+000,  0.10000000000E+001
  0.18228714500E+008,  0.20000119445E+007,  0.19000000000E+002,  0.00000000000E+000,  0.10000000000E+001
  0.18228716500E+008,  0.20000165038E+007,  0.19000000000E+002,  0.00000000000E+000,  0.10000000000E+001
  0.18228718500E+008,  0.20000217027E+007,  0.19000000000E+002,  0.00000000000E+000,  0.10000000000E+001
  0.18228720500E+008,  0.20000274551E+007,  0.19000000000E+002,  0.00000000000E+000,  0.10000000000E+001
  0.18228722500E+008,  0.20000336758E+007,  0.19000000000E+002,  0.00000000000E+000,  0.10000000000E+001
  0.18228724500E+008,  0.20000402853E+007,  0.19000000000E+002,  0.00000000000E+000,  0.10000000000E+001
  0.18228726500E+008,  0.20000472118E+007,  0.19000000000E+002,  0.00000000000E+000,  0.10000000000E+001
  0.18228728500E+008,  0.20000543919E+007,  0.19000000000E+002,  0.00000000000E+000,  0.10000000000E+001
  0.18228730500E+008,  0.20000617701E+007,  0.19000000000E+002,  0.00000000000E+000,  0.10000000000E+001
  0.18228732500E+008,  0.20000692988E+007,  0.19000000000E+002,  0.00000000000E+000,  0.10000000000E+001
  0.18228734500E+008,  0.20000769369E+007,  0.19000000000E+002,  0.00000000000E+000,  0.10000000000E+001
  0.18228736500E+008,  0.20000846496E+007,  0.19000000000E+002,  0.00000000000E+000,  0.10000000000E+001
  0.18228738500E+008,  0.20000924074E+007,  0.19000000000E+002,  0.00000000000E+000,  0.10000000000E+001
  0.18228740500E+008,  0.20001001853E+007,  0.19000000000E+002,  0.00000000000E+000,  0.10000000000E+001
  0.18228742500E+008,  0.20001079622E+007,  0.19000000000E+002,  0.00000000000E+000,  0.10000000000E+001
  0.18228744500E+008,  0.20001157207E+007,  0.19000000000E+002,  0.00000000000E+000,  0.10000000000E+001
  0.18228746500E+008,  0.20001234460E+007,  0.19000000000E+002,  0.00000000000E+000,  0.10000000000E+001
  0.18228748500E+008,  0.20001311261E+007,  0.19000000000E+002,  0.00000000000E+000,  0.10000000000E+001
  0.18228750500E+008,  0.20001387510E+007,  0.19000000000E+002,  0.00000000000E+000,  0.10000000000E+001
  0.18228752500E+008,  0.20001463128E+007,  0.19000000000E+002,  0.00000000000E+000,  0.10000000000E+001
  0.18228754500E+008,  0.20001538049E+007,  0.19000000000E+002,  0.00000000000E+000,  0.10000000000E+001
  0.18228756500E+008,  0.20001612221E+007,  0.19000000000E+002,  0.00000000000E+000,  0.10000000000E+001
  0.18228758500E+008,  0.20001685607E+007,  0.19000000000E+002,  0.00000000000E+000,  0.10000000000E+001
  0.18228760500E+008,  0.20001758177E+007,  0.19000000000E+002,  0.00000000000E+000,  0.10000000000E+001
  0.18228762500E+008,  0.20001829910E+007,  0.19000000000E+002,  0.00000000000E+000,  0.10000000000E+001
  0.18228764500E+008,  0.20001900791E+007,  0.19000000000E+002,  0.00000000000E+000,  0.10000000000E+001
  0.18228766500E+008,  0.20001970815E+007,  0.19000000000E+002,  0.00000000000E+000,  0.10000000000E+001
  0.18228768500E+008,  0.20002039980E+007,  0.19000000000E+002,  0.00000000000E+000,  0.10000000000E+001
  0.18228770500E+008,  0.20002108288E+007,  0.19000000000E+002,  0.00000000000E+000,  0.10000000000E+001
  0.18228772500E+008,  0.20002175745E+007,  0.19000000000E+002,  0.00000000000E+000,  0.10000000000E+001
  0.18228774500E+008,  0.20002242359E+007,  0.19000000000E+002,  0.00000000000E+000,  0.10000000000E+001
  0.18228776500E+008,  0.20002308144E+007,  0.19000000000E+002,  0.00000000000E+000,  0.10000000000E+001
  0.18228778500E+008,  0.20002373113E+007,  0.19000000000E+002,  0.00000000000E+000,  0.10000000000E+001
  0.18228780500E+008,  0.20002437281E+007,  0.19000000000E+002,  0.00000000000E+000,  0.10000000000E+001
  0.18228782500E+008,  0.20002500666E+007,  0.19000000000E+002,  0.00000000000E+000,  0.10000000000E+001
  0.18228784500E+008,  0.20002563287E+007,  0.19000000000E+002,  0.00000000000E+000,  0.10000000000E+001
  0.18228786500E+008,  0.20002625162E+007,  0.19000000000E+002,  0.00000000000E+000,  0.10000000000E+001
  0.18228788500E+008,  0.20002686311E+007,  0.19000000000E+002,  0.00000000000E+000,  0.10000000000E+001
  0.18228790500E+008,  0.20002746756E+007,  0.19000000000E+002,  0.00000000000E+000,  0.10000000000E+001
  0.18228792500E+008,  0.20002806516E+007,  0.19000000000E+002,  0.00000000000E+000,  0.10000000000E+001
  0.18228794500E+008,  0.20002865612E+007,  0.19000000000E+002,  0.00000000000E+000,  0.10000000000E+001
  0.18228796500E+008,  0.20002924065E+007,  0.19000000000E+002,  0.00000000000E+000,  0.10000000000E+001
  0.18228798500E+008,  0.20002981896E+007,  0.19000000000E+002,  0.00000000000E+000,  0.10000000000E+001
  0.18228800500E+008,  0.20003039124E+007,  0.19000000000E+002,  0.00000000000E+000,  0.10000000000E+001
  0.18228802500E+008,  0.20003095771E+007,  0.19000000000E+002,  0.00000000000E+000,  0.10000000000E+001
  0.18228804500E+008,  0.20003151856E+007,  0.19000000000E+002,  0.00000000000E+000,  0.10000000000E+001
  0.18228806500E+008,  0.20003207398E+007,  0.19000000000E+002,  0.00000000000E+000,  0.10000000000E+001
  0.18228808500E+008,  0.20003262417E+007,  0.19000000000E+002,  0.00000000000E+000,  0.10000000000E+001
  0.18228810500E+008,  0.20003316932E+007,  0.19000000000E+002,  0.00000000000E+000,  0.10000000000E+001
  0.18228812500E+008,  0.20003370961E+007,  0.19000000000E+002,  0.00000000000E+000,  0.10000000000E+001
  0.18228814500E+008,  0.20003424520E+007,  0.19000000000E+002,  0.00000000000E+000,  0.10000000000E+001
  0.18228816500E+008,  0.20003477629E+007,  0.19000000000E+002,  0.00000000000E+000,  0.10000000000E+001
  0.18228818500E+008,  0.20003530302E+007,  0.19000000000E+002,  0.00000000000E+000,  0.10000000000E+001
  0.18228820500E+008,  0.20003582557E+007,  0.19000000000E+002,  0.00000000000E+000,  0.10000000000E+001
  0.18228822500E+008,  0.20003634410E+007,  0.19000000000E+002,  0.00000000000E+000,  0.10000000000E+001
  0.18228824500E+008,  0.20003685874E+007,  0.19000000000E+002,  0.00000000000E+000,  0.10000000000E+001
  0.18228826500E+008,  0.20003736966E+007,  0.19000000000E+002,  0.00000000000E+000,  0.10000000000E+001
  0.18228828500E+008,  0.20003787698E+007,  0.19000000000E+002,  0.00000000000E+000,  0.10000000000E+001
  0.18228830500E+008,  0.20003838086E+007,  0.19000000000E+002,  0.00000000000E+000,  0.10000000000E+001
  0.18228832500E+008,  0.20003888141E+007,  0.19000000000E+002,  0.00000000000E+000,  0.10000000000E+001
  0.18228834500E+008,  0.20003937876E+007,  0.19000000000E+002,  0.00000000000E+000,  0.10000000000E+001
  0.18228836500E+008,  0.20003987304E+007,  0.19000000000E+002,  0.00000000000E+000,  0.10000000000E+001
  0.18228838500E+008,  0.20004036436E+007,  0.19000000000E+002,  0.00000000000E+000,  0.10000000000E+001
  0.18228840500E+008,  0.20004085284E+007,  0.19000000000E+002,  0.00000000000E+000,  0.10000000000E+001
  0.18228842500E+008,  0.20004133857E+007,  0.19000000000E+002,  0.00000000000E+000,  0.10000000000E+001
  0.18228844500E+008,  0.20004182167E+007,  0.19000000000E+002,  0.00000000000E+000,  0.10000000000E+001
  0.18228846500E+008,  0.20004230223E+007,  0.19000000000E+002,  0.00000000000E+000,  0.10000000000E+001
  0.18228848500E+008,  0.20004278035E+007,  0.19000000000E+002,  0.00000000000E+000,  0.10000000000E+001
  0.18228850500E+008,  0.20004325611E+007,  0.19000000000E+002,  0.00000000000E+000,  0.10000000000E+001
  0.18228852500E+008,  0.20004372961E+007,  0.19000000000E+002,  0.00000000000E+000,  0.10000000000E+001
  0.18228854500E+008,  0.20004420093E+007,  0.19000000000E+002,  0.00000000000E+000,  0.10000000000E+001
  0.18228856500E+008,  0.20004467014E+007,  0.19000000000E+002,  0.00000000000E+000,  0.10000000000E+001
  0.18228858500E+008,  0.20004513733E+007,  0.19000000000E+002,  0.00000000000E+000,  0.10000000000E+001
  0.18228860500E+008,  0.20004560255E+007,  0.19000000000E+002,  0.00000000000E+000,  0.10000000000E+001
  0.18228862500E+008,  0.20004606590E+007,  0.19000000000E+002,  0.00000000000E+000,  0.10000000000E+001
  0.18228864500E+008,  0.20004652742E+007,  0.19000000000E+002,  0.00000000000E+000,  0.10000000000E+001
  0.18228866500E+008,  0.20004698718E+007,  0.19000000000E+002,  0.00000000000E+000,  0.10000000000E+001
  0.18228868500E+008,  0.20004744525E+007,  0.19000000000E+002,  0.00000000000E+000,  0.10000000000E+001
  0.18228870500E+008,  0.20004790168E+007,  0.19000000000E+002,  0.00000000000E+000,  0.10000000000E+001
  0.18228872500E+008,  0.20004835653E+007,  0.19000000000E+002,  0.00000000000E+000,  0.10000000000E+001
  0.18228874500E+008,  0.20004880984E+007,  0.19000000000E+002,  0.00000000000E+000,  0.10000000000E+001
  0.18228876500E+008,  0.20004926166E+007,  0.19000000000E+002,  0.00000000000E+000,  0.10000000000E+001
  0.18228878500E+008,  0.20004971206E+007,  0.19000000000E+002,  0.00000000000E+000,  0.10000000000E+001
  0.18228880500E+008,  0.20005016107E+007,  0.19000000000E+002,  0.00000000000E+000,  0.10000000000E+001
  0.18228882500E+008,  0.20005060872E+007,  0.19000000000E+002,  0.00000000000E+000,  0.10000000000E+001
  0.18228884500E+008,  0.20005105507E+007,  0.19000000000E+002,  0.00000000000E+000,  0.10000000000E+001
  0.18228886500E+008,  0.20005150016E+007,  0.19000000000E+002,  0.00000000000E+000,  0.10000000000E+001
  0.18228888500E+008,  0.20005194402E+007,  0.19000000000E+002,  0.00000000000E+000,  0.10000000000E+001
  0.18228890500E+008,  0.20005238668E+007,  0.19000000000E+002,  0.00000000000E+000,  0.10000000000E+001
  0.18228892500E+008,  0.20005282818E+007,  0.19000000000E+002,  0.00000000000E+000,  0.10000000000E+001
  0.18228894500E+008,  0.20005326855E+007,  0.19000000000E+002,  0.00000000000E+000,  0.10000000000E+001
  0.18228896500E+008,  0.20005370782E+007,  0.19000000000E+002,  0.00000000000E+000,  0.10000000000E+001
  0.18228898500E+008,  0.20005414603E+007,  0.19000000000E+002,  0.00000000000E+000,  0.10000000000E+001
  0.18228900500E+008,  0.20005458319E+007,  0.19000000000E+002,  0.00000000000E+000,  0.10000000000E+001
  0.18228902500E+008,  0.20005501934E+007,  0.19000000000E+002,  0.00000000000E+000,  0.10000000000E+001
  0.18228904500E+008,  0.20005545449E+007,  0.19000000000E+002,  0.00000000000E+000,  0.10000000000E+001
  0.18228906500E+008,  0.20005588868E+007,  0.19000000000E+002,  0.00000000000E+000,  0.10000000000E+001
  0.18228908500E+008,  0.20005632193E+007,  0.19000000000E+002,  0.00000000000E+000,  0.10000000000E+001
  0.18228910500E+008,  0.20005675425E+007,  0.19000000000E+002,  0.00000000000E+000,  0.10000000000E+001
  0.18228912500E+008,  0.20005718566E+007,  0.19000000000E+002,  0.00000000000E+000,  0.10000000000E+001
  0.18228914500E+008,  0.20005761619E+007,  0.19000000000E+002,  0.00000000000E+000,  0.10000000000E+001
  0.18228916500E+008,  0.20005804586E+007,  0.19000000000E+002,  0.00000000000E+000,  0.10000000000E+001
  0.18228918500E+008,  0.20005847468E+007,  0.19000000000E+002,  0.00000000000E+000,  0.10000000000E+001
  0.18228920500E+008,  0.20005890267E+007,  0.19000000000E+002,  0.00000000000E+000,  0.10000000000E+001
  0.18228922500E+008,  0.20005932983E+007,  0.19000000000E+002,  0.00000000000E+000,  0.10000000000E+001
  0.18228924500E+008,  0.20005975620E+007,  0.19000000000E+002,  0.00000000000E+000,  0.10000000000E+001
  0.18228926500E+008,  0.20006018177E+007,  0.19000000000E+002,  0.00000000000E+000,  0.10000000000E+001
  0.18228928500E+008,  0.20006060657E+007,  0.19000000000E+002,  0.00000000000E+000,  0.10000000000E+001
  0.18228930500E+008,  0.20006103062E+007,  0.19000000000E+002,  0.00000000000E+000,  0.10000000000E+001
  0.18228932500E+008,  0.20006145391E+007,  0.19000000000E+002,  0.00000000000E+000,  0.10000000000E+001
  0.18228934500E+008,  0.20006187645E+007,  0.19000000000E+002,  0.00000000000E+000,  0.10000000000E+001
  0.18228936500E+008,  0.20006229828E+007,  0.19000000000E+002,  0.00000000000E+000,  0.10000000000E+001
  0.18228938500E+008,  0.20006271938E+007,  0.19000000000E+002,  0.00000000000E+000,  0.10000000000E+001
  0.18228940500E+008,  0.20006313977E+007,  0.19000000000E+002,  0.00000000000E+000,  0.10000000000E+001
  0.18228942500E+008,  0.20006355946E+007,  0.19000000000E+002,  0.00000000000E+000,  0.10000000000E+001
  0.18228944500E+008,  0.20006397846E+007,  0.19000000000E+002,  0.00000000000E+000,  0.10000000000E+001
  0.18228946500E+008,  0.20006439678E+007,  0.19000000000E+002,  0.00000000000E+000,  0.10000000000E+001
  0.18228948500E+008,  0.20006481442E+007,  0.19000000000E+002,  0.00000000000E+000,  0.10000000000E+001
  0.18228950500E+008,  0.20006523139E+007,  0.19000000000E+002,  0.00000000000E+000,  0.10000000000E+001
  0.18228952500E+008,  0.20006564770E+007,  0.19000000000E+002,  0.00000000000E+000,  0.10000000000E+001
  0.18228954500E+008,  0.20006606336E+007,  0.19000000000E+002,  0.00000000000E+000,  0.10000000000E+001
  0.18228956500E+008,  0.20006647837E+007,  0.19000000000E+002,  0.00000000000E+000,  0.10000000000E+001
  0.18228958500E+008,  0.20006689273E+007,  0.19000000000E+002,  0.00000000000E+000,  0.10000000000E+001
  0.18228960500E+008,  0.20006730646E+007,  0.19000000000E+002,  0.00000000000E+000,  0.10000000000E+001
  0.18228962500E+008,  0.20006771955E+007,  0.19000000000E+002,  0.00000000000E+000,  0.10000000000E+001
  0.18228964500E+008,  0.20006813202E+007,  0.19000000000E+002,  0.00000000000E+000,  0.10000000000E+001
  0.18228966500E+008,  0.20006854386E+007,  0.19000000000E+002,  0.00000000000E+000,  0.10000000000E+001
  0.18228968500E+008,  0.20006895508E+007,  0.19000000000E+002,  0.00000000000E+000,  0.10000000000E+001
  0.18228970500E+008,  0.20006936569E+007,  0.19000000000E+002,  0.00000000000E+000,  0.10000000000E+001
  0.18228972500E+008,  0.20006977569E+007,  0.19000000000E+002,  0.00000000000E+000,  0.10000000000E+001
  0.18228974500E+008,  0.20007018509E+007,  0.19000000000E+002,  0.00000000000E+000,  0.10000000000E+001
  0.18228976500E+008,  0.20007059387E+007,  0.19000000000E+002,  0.00000000000E+000,  0.10000000000E+001
  0.18228978500E+008,  0.20007100206E+007,  0.19000000000E+002,  0.00000000000E+000,  0.10000000000E+001
  0.18228980500E+008,  0.20007140965E+007,  0.19000000000E+002,  0.00000000000E+000,  0.10000000000E+001
  0.18228982500E+008,  0.20007181665E+007,  0.19000000000E+002,  0.00000000000E+000,  0.10000000000E+001
  0.18228984500E+008,  0.20007222306E+007,  0.19000000000E+002,  0.00000000000E+000,  0.10000000000E+001
  0.18228986500E+008,  0.20007262888E+007,  0.19000000000E+002,  0.00000000000E+000,  0.10000000000E+001
  0.18228988500E+008,  0.20007303411E+007,  0.19000000000E+002,  0.00000000000E+000,  0.10000000000E+001
  0.18228990500E+008,  0.20007343876E+007,  0.19000000000E+002,  0.00000000000E+000,  0.10000000000E+001
  0.18228992500E+008,  0.20007384282E+007,  0.19000000000E+002,  0.00000000000E+000,  0.10000000000E+001
  0.18228994500E+008,  0.20007424631E+007,  0.19000000000E+002,  0.00000000000E+000,  0.10000000000E+001
  0.18228996500E+008,  0.20007464922E+007,  0.19000000000E+002,  0.00000000000E+000,  0.10000000000E+001
  0.18228998500E+008,  0.20007505156E+007,  0.19000000000E+002,  0.00000000000E+000,  0.10000000000E+001
  0.18229000500E+008,  0.20007545332E+007,  0.19000000000E+002,  0.00000000000E+000,  0.10000000000E+001
  0.18229002500E+008,  0.20007585451E+007,  0.19000000000E+002,  0.00000000000E+000,  0.10000000000E+001
  0.18229004500E+008,  0.20007625513E+007,  0.19000000000E+002,  0.00000000000E+000,  0.10000000000E+001
  0.18229006500E+008,  0.20007665518E+007,  0.19000000000E+002,  0.00000000000E+000,  0.10000000000E+001
  0.18229008500E+008,  0.20007705466E+007,  0.19000000000E+002,  0.00000000000E+000,  0.10000000000E+001
  0.18229010500E+008,  0.20007745357E+007,  0.19000000000E+002,  0.00000000000E+000,  0.10000000000E+001
  0.18229012500E+008,  0.20007785191E+007,  0.19000000000E+002,  0.00000000000E+000,  0.10000000000E+001
  0.18229014500E+008,  0.20007824968E+007,  0.19000000000E+002,  0.00000000000E+000,  0.10000000000E+001
  0.18229016500E+008,  0.20007864689E+007,  0.19000000000E+002,  0.00000000000E+000,  0.10000000000E+001
  0.18229018500E+008,  0.20007904353E+007,  0.19000000000E+002,  0.00000000000E+000,  0.10000000000E+001
  0.18229020500E+008,  0.20007943960E+007,  0.19000000000E+002,  0.00000000000E+000,  0.10000000000E+001
  0.18229022500E+008,  0.20007983510E+007,  0.19000000000E+002,  0.00000000000E+000,  0.10000000000E+001
  0.18229024500E+008,  0.20008023005E+007,  0.19000000000E+002,  0.00000000000E+000,  0.10000000000E+001
  0.18229026500E+008,  0.20008062442E+007,  0.19000000000E+002,  0.00000000000E+000,  0.10000000000E+001
  0.18229028500E+008,  0.20008101823E+007,  0.19000000000E+002,  0.00000000000E+000,  0.10000000000E+001
  0.18229030500E+008,  0.20008141148E+007,  0.19000000000E+002,  0.00000000000E+000,  0.10000000000E+001
  0.18229032500E+008,  0.20008180416E+007,  0.19000000000E+002,  0.00000000000E+000,  0.10000000000E+001
  0.18229034500E+008,  0.20008219628E+007,  0.19000000000E+002,  0.00000000000E+000,  0.10000000000E+001
  0.18229036500E+008,  0.20008258786E+007,  0.19000000000E+002,  0.00000000000E+000,  0.10000000000E+001
  0.18229038500E+008,  0.20008297888E+007,  0.19000000000E+002,  0.00000000000E+000,  0.10000000000E+001
  0.18229040500E+008,  0.20008336933E+007,  0.19000000000E+002,  0.00000000000E+000,  0.10000000000E+001
  0.18229042500E+008,  0.20008375924E+007,  0.19000000000E+002,  0.00000000000E+000,  0.10000000000E+001
  0.18229044500E+008,  0.20008414860E+007,  0.19000000000E+002,  0.00000000000E+000,  0.10000000000E+001
  0.18229046500E+008,  0.20008453740E+007,  0.19000000000E+002,  0.00000000000E+000,  0.10000000000E+001
  0.18229048500E+008,  0.20008492566E+007,  0.19000000000E+002,  0.00000000000E+000,  0.10000000000E+001
  0.18229050500E+008,  0.20008531337E+007,  0.19000000000E+002,  0.00000000000E+000,  0.10000000000E+001
  0.18229052500E+008,  0.20008570053E+007,  0.19000000000E+002,  0.00000000000E+000,  0.10000000000E+001
  0.18229054500E+008,  0.20008608715E+007,  0.19000000000E+002,  0.00000000000E+000,  0.10000000000E+001
  0.18229056500E+008,  0.20008647322E+007,  0.19000000000E+002,  0.00000000000E+000,  0.10000000000E+001
  0.18229058500E+008,  0.20008685874E+007,  0.19000000000E+002,  0.00000000000E+000,  0.10000000000E+001
  0.18229060500E+008,  0.20008724372E+007,  0.19000000000E+002,  0.00000000000E+000,  0.10000000000E+001
  0.18229062500E+008,  0.20008762815E+007,  0.19000000000E+002,  0.00000000000E+000,  0.10000000000E+001
  0.18229064500E+008,  0.20008801203E+007,  0.19000000000E+002,  0.00000000000E+000,  0.10000000000E+001
  0.18229066500E+008,  0.20008839536E+007,  0.19000000000E+002,  0.00000000000E+000,  0.10000000000E+001
  0.18229068500E+008,  0.20008877814E+007,  0.19000000000E+002,  0.00000000000E+000,  0.10000000000E+001
  0.18229070500E+008,  0.20008916038E+007,  0.19000000000E+002,  0.00000000000E+000,  0.10000000000E+001
  0.18229072500E+008,  0.20008954206E+007,  0.19000000000E+002,  0.00000000000E+000,  0.10000000000E+001
  0.18229074500E+008,  0.20008992320E+007,  0.19000000000E+002,  0.00000000000E+000,  0.10000000000E+001
  0.18229076500E+008,  0.20009030379E+007,  0.19000000000E+002,  0.00000000000E+000,  0.10000000000E+001
