"           TIME(S)","              PRES","              TEMP","             SAT_G","             SAT_L"
  0.17963400000E+008,  0.21012738209E+007,  0.19000000000E+002,  0.10000000000E+001,  0.00000000000E+000
  0.17964900000E+008,  0.21020033453E+007,  0.19000000000E+002,  0.10000000000E+001,  0.00000000000E+000
  0.17966400000E+008,  0.21025124736E+007,  0.19000000000E+002,  0.10000000000E+001,  0.00000000000E+000
  0.17967900000E+008,  0.21030832777E+007,  0.19000000000E+002,  0.10000000000E+001,  0.00000000000E+000
  0.17969400000E+008,  0.21036537071E+007,  0.19000000000E+002,  0.10000000000E+001,  0.00000000000E+000
  0.17970900000E+008,  0.21042231038E+007,  0.19000000000E+002,  0.10000000000E+001,  0.00000000000E+000
  0.17972400000E+008,  0.21047922323E+007,  0.19000000000E+002,  0.10000000000E+001,  0.00000000000E+000
  0.17973900000E+008,  0.21053613245E+007,  0.19000000000E+002,  0.10000000000E+001,  0.00000000000E+000
  0.17975400000E+008,  0.21059304496E+007,  0.19000000000E+002,  0.10000000000E+001,  0.00000000000E+000
  0.17976900000E+008,  0.21064996292E+007,  0.19000000000E+002,  0.10000000000E+001,  0.00000000000E+000
  0.17978400000E+008,  0.21070688683E+007,  0.19000000000E+002,  0.10000000000E+001,  0.00000000000E+000
  0.17979900000E+008,  0.21076381653E+007,  0.19000000000E+002,  0.10000000000E+001,  0.00000000000E+000
  0.17981400000E+008,  0.21082075080E+007,  0.19000000000E+002,  0.10000000000E+001,  0.00000000000E+000
  0.17982900000E+008,  0.21087767695E+007,  0.19000000000E+002,  0.10000000000E+001,  0.00000000000E+000
  0.17984400000E+008,  0.21093459303E+007,  0.19000000000E+002,  0.10000000000E+001,  0.00000000000E+000
  0.17985900000E+008,  0.21099150291E+007,  0.19000000000E+002,  0.10000000000E+001,  0.00000000000E+000
  0.17987400000E+008,  0.21104840863E+007,  0.19000000000E+002,  0.10000000000E+001,  0.00000000000E+000
  0.17988900000E+008,  0.21110531140E+007,  0.19000000000E+002,  0.10000000000E+001,  0.00000000000E+000
  0.17990400000E+008,  0.21116221206E+007,  0.19000000000E+002,  0.10000000000E+001,  0.00000000000E+000
  0.17991900000E+008,  0.21121911124E+007,  0.19000000000E+002,  0.10000000000E+001,  0.00000000000E+000
  0.17993400000E+008,  0.21127600941E+007,  0.19000000000E+002,  0.10000000000E+001,  0.00000000000E+000
  0.17994900000E+008,  0.21133290693E+007,  0.19000000000E+002,  0.10000000000E+001,  0.00000000000E+000
  0.17996400000E+008,  0.21138980410E+007,  0.19000000000E+002,  0.10000000000E+001,  0.00000000000E+000
  0.17997900000E+008,  0.21144670113E+007,  0.19000000000E+002,  0.10000000000E+001,  0.00000000000E+000
  0.17999400000E+008,  0.21150359821E+007,  0.19000000000E+002,  0.10000000000E+001,  0.00000000000E+000
  0.18000900000E+008,  0.21156049547E+007,  0.19000000000E+002,  0.10000000000E+001,  0.00000000000E+000
  0.18002400000E+008,  0.21161739303E+007,  0.19000000000E+002,  0.10000000000E+001,  0.00000000000E+000
  0.18003900000E+008,  0.21167429097E+007,  0.19000000000E+002,  0.10000000000E+001,  0.00000000000E+000
  0.18005400000E+008,  0.21173118937E+007,  0.19000000000E+002,  0.10000000000E+001,  0.00000000000E+000
  0.18006900000E+008,  0.21178808828E+007,  0.19000000000E+002,  0.10000000000E+001,  0.00000000000E+000
  0.18008400000E+008,  0.21184498774E+007,  0.19000000000E+002,  0.10000000000E+001,  0.00000000000E+000
  0.18009900000E+008,  0.21190188778E+007,  0.19000000000E+002,  0.10000000000E+001,  0.00000000000E+000
  0.18011400000E+008,  0.21195878842E+007,  0.19000000000E+002,  0.10000000000E+001,  0.00000000000E+000
  0.18012900000E+008,  0.21201568969E+007,  0.19000000000E+002,  0.10000000000E+001,  0.00000000000E+000
  0.18014400000E+008,  0.21207259158E+007,  0.19000000000E+002,  0.10000000000E+001,  0.00000000000E+000
  0.18015900000E+008,  0.21212949412E+007,  0.19000000000E+002,  0.10000000000E+001,  0.00000000000E+000
  0.18017400000E+008,  0.21218917287E+007,  0.19000000000E+002,  0.10000000000E+001,  0.00000000000E+000
  0.18018900000E+008,  0.21224709618E+007,  0.19000000000E+002,  0.10000000000E+001,  0.00000000000E+000
  0.18020400000E+008,  0.21230489415E+007,  0.19000000000E+002,  0.10000000000E+001,  0.00000000000E+000
  0.18021900000E+008,  0.21236267767E+007,  0.19000000000E+002,  0.10000000000E+001,  0.00000000000E+000
  0.18023400000E+008,  0.21242045923E+007,  0.19000000000E+002,  0.10000000000E+001,  0.00000000000E+000
  0.18024900000E+008,  0.21247824079E+007,  0.19000000000E+002,  0.10000000000E+001,  0.00000000000E+000
  0.18026400000E+008,  0.21253602275E+007,  0.19000000000E+002,  0.10000000000E+001,  0.00000000000E+000
  0.18027900000E+008,  0.21259380524E+007,  0.19000000000E+002,  0.10000000000E+001,  0.00000000000E+000
  0.18029400000E+008,  0.21265158826E+007,  0.19000000000E+002,  0.10000000000E+001,  0.00000000000E+000
  0.18030900000E+008,  0.21270937183E+007,  0.19000000000E+002,  0.10000000000E+001,  0.00000000000E+000
  0.18032400000E+008,  0.21276715593E+007,  0.19000000000E+002,  0.10000000000E+001,  0.00000000000E+000
  0.18033900000E+008,  0.21282494057E+007,  0.19000000000E+002,  0.10000000000E+001,  0.00000000000E+000
  0.18035400000E+008,  0.21288272573E+007,  0.19000000000E+002,  0.10000000000E+001,  0.00000000000E+000
  0.18036900000E+008,  0.21294051139E+007,  0.19000000000E+002,  0.10000000000E+001,  0.00000000000E+000
  0.18038400000E+008,  0.21299829755E+007,  0.19000000000E+002,  0.10000000000E+001,  0.00000000000E+000
  0.18039900000E+008,  0.21305608418E+007,  0.19000000000E+002,  0.10000000000E+001,  0.00000000000E+000
  0.18041400000E+008,  0.21311387128E+007,  0.19000000000E+002,  0.10000000000E+001,  0.00000000000E+000
  0.18042900000E+008,  0.21317165884E+007,  0.19000000000E+002,  0.10000000000E+001,  0.00000000000E+000
  0.18044400000E+008,  0.21322944684E+007,  0.19000000000E+002,  0.10000000000E+001,  0.00000000000E+000
  0.18045900000E+008,  0.21328723526E+007,  0.19000000000E+002,  0.10000000000E+001,  0.00000000000E+000
  0.18047400000E+008,  0.21334502410E+007,  0.19000000000E+002,  0.10000000000E+001,  0.00000000000E+000
  0.18048900000E+008,  0.21340281334E+007,  0.19000000000E+002,  0.10000000000E+001,  0.00000000000E+000
  0.18050400000E+008,  0.21346060297E+007,  0.19000000000E+002,  0.10000000000E+001,  0.00000000000E+000
  0.18051900000E+008,  0.21351839298E+007,  0.19000000000E+002,  0.10000000000E+001,  0.00000000000E+000
  0.18053400000E+008,  0.21357618335E+007,  0.19000000000E+002,  0.10000000000E+001,  0.00000000000E+000
  0.18054900000E+008,  0.21363397408E+007,  0.19000000000E+002,  0.10000000000E+001,  0.00000000000E+000
  0.18056400000E+008,  0.21369176514E+007,  0.19000000000E+002,  0.10000000000E+001,  0.00000000000E+000
  0.18057900000E+008,  0.21374955654E+007,  0.19000000000E+002,  0.10000000000E+001,  0.00000000000E+000
  0.18059400000E+008,  0.21380734825E+007,  0.19000000000E+002,  0.10000000000E+001,  0.00000000000E+000
  0.18060900000E+008,  0.21386514026E+007,  0.19000000000E+002,  0.10000000000E+001,  0.00000000000E+000
  0.18062400000E+008,  0.21392293257E+007,  0.19000000000E+002,  0.10000000000E+001,  0.00000000000E+000
  0.18063900000E+008,  0.21398072516E+007,  0.19000000000E+002,  0.10000000000E+001,  0.00000000000E+000
  0.18065400000E+008,  0.21403851803E+007,  0.19000000000E+002,  0.10000000000E+001,  0.00000000000E+000
  0.18066900000E+008,  0.21409631116E+007,  0.19000000000E+002,  0.10000000000E+001,  0.00000000000E+000
  0.18068400000E+008,  0.21415410454E+007,  0.19000000000E+002,  0.10000000000E+001,  0.00000000000E+000
  0.18069900000E+008,  0.21429142488E+007,  0.19000000000E+002,  0.10000000000E+001,  0.00000000000E+000
  0.18071400000E+008,  0.21441827519E+007,  0.19000000000E+002,  0.10000000000E+001,  0.00000000000E+000
  0.18072900000E+008,  0.21451646009E+007,  0.19000000000E+002,  0.10000000000E+001,  0.00000000000E+000
  0.18074400000E+008,  0.21461243470E+007,  0.19000000000E+002,  0.10000000000E+001,  0.00000000000E+000
  0.18075900000E+008,  0.21470812479E+007,  0.19000000000E+002,  0.10000000000E+001,  0.00000000000E+000
  0.18077400000E+008,  0.21480376164E+007,  0.19000000000E+002,  0.10000000000E+001,  0.00000000000E+000
  0.18078900000E+008,  0.21489938444E+007,  0.19000000000E+002,  0.10000000000E+001,  0.00000000000E+000
  0.18080400000E+008,  0.21499500226E+007,  0.19000000000E+002,  0.10000000000E+001,  0.00000000000E+000
  0.18081900000E+008,  0.21509061786E+007,  0.19000000000E+002,  0.10000000000E+001,  0.00000000000E+000
  0.18083400000E+008,  0.21518623224E+007,  0.19000000000E+002,  0.10000000000E+001,  0.00000000000E+000
  0.18084900000E+008,  0.21528184579E+007,  0.19000000000E+002,  0.10000000000E+001,  0.00000000000E+000
  0.18086400000E+008,  0.21537745869E+007,  0.19000000000E+002,  0.10000000000E+001,  0.00000000000E+000
  0.18087900000E+008,  0.21547307103E+007,  0.19000000000E+002,  0.10000000000E+001,  0.00000000000E+000
  0.18089400000E+008,  0.21556868286E+007,  0.19000000000E+002,  0.10000000000E+001,  0.00000000000E+000
  0.18090900000E+008,  0.21566429421E+007,  0.19000000000E+002,  0.10000000000E+001,  0.00000000000E+000
  0.18092400000E+008,  0.21575990510E+007,  0.19000000000E+002,  0.10000000000E+001,  0.00000000000E+000
  0.18093900000E+008,  0.21585551554E+007,  0.19000000000E+002,  0.10000000000E+001,  0.00000000000E+000
  0.18095400000E+008,  0.21595112555E+007,  0.19000000000E+002,  0.10000000000E+001,  0.00000000000E+000
  0.18096900000E+008,  0.21604673513E+007,  0.19000000000E+002,  0.10000000000E+001,  0.00000000000E+000
  0.18098400000E+008,  0.21614234430E+007,  0.19000000000E+002,  0.10000000000E+001,  0.00000000000E+000
  0.18099900000E+008,  0.21623795305E+007,  0.19000000000E+002,  0.10000000000E+001,  0.00000000000E+000
  0.18101400000E+008,  0.21633356140E+007,  0.19000000000E+002,  0.10000000000E+001,  0.00000000000E+000
  0.18102900000E+008,  0.21642916934E+007,  0.19000000000E+002,  0.10000000000E+001,  0.00000000000E+000
  0.18104400000E+008,  0.21652477687E+007,  0.19000000000E+002,  0.10000000000E+001,  0.00000000000E+000
  0.18105900000E+008,  0.21662038400E+007,  0.19000000000E+002,  0.10000000000E+001,  0.00000000000E+000
  0.18107400000E+008,  0.21671599073E+007,  0.19000000000E+002,  0.10000000000E+001,  0.00000000000E+000
  0.18108900000E+008,  0.21681159706E+007,  0.19000000000E+002,  0.10000000000E+001,  0.00000000000E+000
  0.18110400000E+008,  0.21690720299E+007,  0.19000000000E+002,  0.10000000000E+001,  0.00000000000E+000
  0.18111900000E+008,  0.21700280851E+007,  0.19000000000E+002,  0.10000000000E+001,  0.00000000000E+000
  0.18113400000E+008,  0.21709841363E+007,  0.19000000000E+002,  0.10000000000E+001,  0.00000000000E+000
  0.18114900000E+008,  0.21719401835E+007,  0.19000000000E+002,  0.10000000000E+001,  0.00000000000E+000
  0.18116400000E+008,  0.21728962267E+007,  0.19000000000E+002,  0.10000000000E+001,  0.00000000000E+000
  0.18117900000E+008,  0.21738522658E+007,  0.19000000000E+002,  0.10000000000E+001,  0.00000000000E+000
  0.18119400000E+008,  0.21748083008E+007,  0.19000000000E+002,  0.10000000000E+001,  0.00000000000E+000
  0.18120900000E+008,  0.21757643318E+007,  0.19000000000E+002,  0.10000000000E+001,  0.00000000000E+000
  0.18122400000E+008,  0.21772623956E+007,  0.19000000000E+002,  0.10000000000E+001,  0.00000000000E+000
  0.18123900000E+008,  0.21795026822E+007,  0.19000000000E+002,  0.10000000000E+001,  0.00000000000E+000
  0.18125400000E+008,  0.21810373725E+007,  0.19000000000E+002,  0.10000000000E+001,  0.00000000000E+000
  0.18126900000E+008,  0.21825213508E+007,  0.19000000000E+002,  0.10000000000E+001,  0.00000000000E+000
  0.18128400000E+008,  0.21839992170E+007,  0.19000000000E+002,  0.10000000000E+001,  0.00000000000E+000
  0.18129900000E+008,  0.21854760138E+007,  0.19000000000E+002,  0.10000000000E+001,  0.00000000000E+000
  0.18131400000E+008,  0.21869525436E+007,  0.19000000000E+002,  0.10000000000E+001,  0.00000000000E+000
  0.18132900000E+008,  0.21884289804E+007,  0.19000000000E+002,  0.10000000000E+001,  0.00000000000E+000
  0.18134400000E+008,  0.21899053740E+007,  0.19000000000E+002,  0.10000000000E+001,  0.00000000000E+000
  0.18135900000E+008,  0.21913817420E+007,  0.19000000000E+002,  0.10000000000E+001,  0.00000000000E+000
  0.18137400000E+008,  0.21928580913E+007,  0.19000000000E+002,  0.10000000000E+001,  0.00000000000E+000
  0.18138900000E+008,  0.21943344250E+007,  0.19000000000E+002,  0.10000000000E+001,  0.00000000000E+000
  0.18140400000E+008,  0.21958107445E+007,  0.19000000000E+002,  0.10000000000E+001,  0.00000000000E+000
  0.18141900000E+008,  0.21972870508E+007,  0.19000000000E+002,  0.10000000000E+001,  0.00000000000E+000
  0.18143400000E+008,  0.21987633444E+007,  0.19000000000E+002,  0.10000000000E+001,  0.00000000000E+000
  0.18144900000E+008,  0.22002396257E+007,  0.19000000000E+002,  0.10000000000E+001,  0.00000000000E+000
  0.18146400000E+008,  0.22017158950E+007,  0.19000000000E+002,  0.10000000000E+001,  0.00000000000E+000
  0.18147900000E+008,  0.22031921527E+007,  0.19000000000E+002,  0.10000000000E+001,  0.00000000000E+000
  0.18149400000E+008,  0.22046683989E+007,  0.19000000000E+002,  0.10000000000E+001,  0.00000000000E+000
  0.18150900000E+008,  0.22061446339E+007,  0.19000000000E+002,  0.10000000000E+001,  0.00000000000E+000
  0.18152400000E+008,  0.22076208577E+007,  0.19000000000E+002,  0.10000000000E+001,  0.00000000000E+000
  0.18153900000E+008,  0.22090970706E+007,  0.19000000000E+002,  0.10000000000E+001,  0.00000000000E+000
  0.18155400000E+008,  0.22105732726E+007,  0.19000000000E+002,  0.10000000000E+001,  0.00000000000E+000
  0.18156900000E+008,  0.22120494639E+007,  0.19000000000E+002,  0.10000000000E+001,  0.00000000000E+000
  0.18158400000E+008,  0.22135256446E+007,  0.19000000000E+002,  0.10000000000E+001,  0.00000000000E+000
  0.18159900000E+008,  0.22150018147E+007,  0.19000000000E+002,  0.10000000000E+001,  0.00000000000E+000
  0.18161400000E+008,  0.22164779743E+007,  0.19000000000E+002,  0.10000000000E+001,  0.00000000000E+000
  0.18162900000E+008,  0.22179541234E+007,  0.19000000000E+002,  0.10000000000E+001,  0.00000000000E+000
  0.18164400000E+008,  0.22194302622E+007,  0.19000000000E+002,  0.10000000000E+001,  0.00000000000E+000
  0.18165900000E+008,  0.22209063906E+007,  0.19000000000E+002,  0.10000000000E+001,  0.00000000000E+000
  0.18167400000E+008,  0.22223825088E+007,  0.19000000000E+002,  0.10000000000E+001,  0.00000000000E+000
  0.18168900000E+008,  0.22238586168E+007,  0.19000000000E+002,  0.10000000000E+001,  0.00000000000E+000
  0.18170400000E+008,  0.22253347145E+007,  0.19000000000E+002,  0.10000000000E+001,  0.00000000000E+000
  0.18171900000E+008,  0.22268108021E+007,  0.19000000000E+002,  0.10000000000E+001,  0.00000000000E+000
  0.18173400000E+008,  0.22282868796E+007,  0.19000000000E+002,  0.10000000000E+001,  0.00000000000E+000
  0.18174900000E+008,  0.22297672814E+007,  0.19000000000E+002,  0.10000000000E+001,  0.00000000000E+000
  0.18176400000E+008,  0.22313056149E+007,  0.19000000000E+002,  0.10000000000E+001,  0.00000000000E+000
  0.18177900000E+008,  0.22328057951E+007,  0.19000000000E+002,  0.10000000000E+001,  0.00000000000E+000
  0.18179400000E+008,  0.22343033256E+007,  0.19000000000E+002,  0.10000000000E+001,  0.00000000000E+000
  0.18180900000E+008,  0.22358005395E+007,  0.19000000000E+002,  0.10000000000E+001,  0.00000000000E+000
  0.18182400000E+008,  0.22372976920E+007,  0.19000000000E+002,  0.10000000000E+001,  0.00000000000E+000
  0.18183900000E+008,  0.22387948223E+007,  0.19000000000E+002,  0.10000000000E+001,  0.00000000000E+000
  0.18185400000E+008,  0.22402919387E+007,  0.19000000000E+002,  0.10000000000E+001,  0.00000000000E+000
  0.18186900000E+008,  0.22417890435E+007,  0.19000000000E+002,  0.10000000000E+001,  0.00000000000E+000
  0.18188400000E+008,  0.22432861376E+007,  0.19000000000E+002,  0.10000000000E+001,  0.00000000000E+000
  0.18189900000E+008,  0.22447832211E+007,  0.19000000000E+002,  0.10000000000E+001,  0.00000000000E+000
  0.18191400000E+008,  0.22462802944E+007,  0.19000000000E+002,  0.10000000000E+001,  0.00000000000E+000
  0.18192900000E+008,  0.22477773575E+007,  0.19000000000E+002,  0.10000000000E+001,  0.00000000000E+000
  0.18194400000E+008,  0.22492744104E+007,  0.19000000000E+002,  0.10000000000E+001,  0.00000000000E+000
  0.18195900000E+008,  0.22507714532E+007,  0.19000000000E+002,  0.10000000000E+001,  0.00000000000E+000
  0.18197400000E+008,  0.22522684859E+007,  0.19000000000E+002,  0.10000000000E+001,  0.00000000000E+000
  0.18198900000E+008,  0.22537655086E+007,  0.19000000000E+002,  0.10000000000E+001,  0.00000000000E+000
  0.18200400000E+008,  0.22552625213E+007,  0.19000000000E+002,  0.10000000000E+001,  0.00000000000E+000
  0.18201900000E+008,  0.22567595240E+007,  0.19000000000E+002,  0.10000000000E+001,  0.00000000000E+000
  0.18203400000E+008,  0.22582565167E+007,  0.19000000000E+002,  0.10000000000E+001,  0.00000000000E+000
  0.18204900000E+008,  0.22597534995E+007,  0.19000000000E+002,  0.10000000000E+001,  0.00000000000E+000
  0.18206400000E+008,  0.22612504725E+007,  0.19000000000E+002,  0.10000000000E+001,  0.00000000000E+000
  0.18207900000E+008,  0.22627474355E+007,  0.19000000000E+002,  0.10000000000E+001,  0.00000000000E+000
  0.18209400000E+008,  0.22642443886E+007,  0.19000000000E+002,  0.10000000000E+001,  0.00000000000E+000
  0.18210900000E+008,  0.22657413319E+007,  0.19000000000E+002,  0.10000000000E+001,  0.00000000000E+000
  0.18212400000E+008,  0.22672382654E+007,  0.19000000000E+002,  0.10000000000E+001,  0.00000000000E+000
  0.18213900000E+008,  0.22687351891E+007,  0.19000000000E+002,  0.10000000000E+001,  0.00000000000E+000
  0.18215400000E+008,  0.22702321030E+007,  0.19000000000E+002,  0.10000000000E+001,  0.00000000000E+000
  0.18216900000E+008,  0.22717290071E+007,  0.19000000000E+002,  0.10000000000E+001,  0.00000000000E+000
  0.18218400000E+008,  0.22732259015E+007,  0.19000000000E+002,  0.10000000000E+001,  0.00000000000E+000
  0.18219900000E+008,  0.22747227861E+007,  0.19000000000E+002,  0.10000000000E+001,  0.00000000000E+000
  0.18221400000E+008,  0.22762196610E+007,  0.19000000000E+002,  0.10000000000E+001,  0.00000000000E+000
  0.18222900000E+008,  0.22777165262E+007,  0.19000000000E+002,  0.10000000000E+001,  0.00000000000E+000
  0.18224400000E+008,  0.22792133817E+007,  0.19000000000E+002,  0.10000000000E+001,  0.00000000000E+000
  0.18225900000E+008,  0.22807102275E+007,  0.19000000000E+002,  0.10000000000E+001,  0.00000000000E+000
  0.18227400000E+008,  0.22822070636E+007,  0.19000000000E+002,  0.10000000000E+001,  0.00000000000E+000
  0.18228900000E+008,  0.22837669149E+007,  0.19000000000E+002,  0.10000000000E+001,  0.00000000000E+000
  0.18230400000E+008,  0.22853104448E+007,  0.19000000000E+002,  0.10000000000E+001,  0.00000000000E+000
  0.18231900000E+008,  0.22868370559E+007,  0.19000000000E+002,  0.10000000000E+001,  0.00000000000E+000
  0.18233400000E+008,  0.22883623900E+007,  0.19000000000E+002,  0.10000000000E+001,  0.00000000000E+000
  0.18234900000E+008,  0.22898875547E+007,  0.19000000000E+002,  0.10000000000E+001,  0.00000000000E+000
  0.18236400000E+008,  0.22914126799E+007,  0.19000000000E+002,  0.10000000000E+001,  0.00000000000E+000
  0.18237900000E+008,  0.22929377873E+007,  0.19000000000E+002,  0.10000000000E+001,  0.00000000000E+000
  0.18239400000E+008,  0.22944628820E+007,  0.19000000000E+002,  0.10000000000E+001,  0.00000000000E+000
  0.18240900000E+008,  0.22959879657E+007,  0.19000000000E+002,  0.10000000000E+001,  0.00000000000E+000
  0.18242400000E+008,  0.22975130389E+007,  0.19000000000E+002,  0.10000000000E+001,  0.00000000000E+000
  0.18243900000E+008,  0.22990381017E+007,  0.19000000000E+002,  0.10000000000E+001,  0.00000000000E+000
  0.18245400000E+008,  0.23005631544E+007,  0.19000000000E+002,  0.10000000000E+001,  0.00000000000E+000
