"           TIME(S)","              PRES","              TEMP","             SAT_G","             SAT_L"
  0.18228740000E+008,  0.20001004508E+007,  0.19000000000E+002,  0.10000000000E+001,  0.00000000000E+000
  0.18228890000E+008,  0.20003775857E+007,  0.19000000000E+002,  0.10000000000E+001,  0.00000000000E+000
  0.18229040000E+008,  0.20005865529E+007,  0.19000000000E+002,  0.10000000000E+001,  0.00000000000E+000
  0.18229190000E+008,  0.20007480316E+007,  0.19000000000E+002,  0.10000000000E+001,  0.00000000000E+000
  0.18229340000E+008,  0.20008758171E+007,  0.19000000000E+002,  0.10000000000E+001,  0.00000000000E+000
  0.18229490000E+008,  0.20009792421E+007,  0.19000000000E+002,  0.10000000000E+001,  0.00000000000E+000
  0.18229640000E+008,  0.20010647100E+007,  0.19000000000E+002,  0.10000000000E+001,  0.00000000000E+000
  0.18229790000E+008,  0.20011366858E+007,  0.19000000000E+002,  0.10000000000E+001,  0.00000000000E+000
  0.18229940000E+008,  0.20011983329E+007,  0.19000000000E+002,  0.10000000000E+001,  0.00000000000E+000
  0.18230090000E+008,  0.20012519304E+007,  0.19000000000E+002,  0.10000000000E+001,  0.00000000000E+000
  0.18230240000E+008,  0.20012995339E+007,  0.19000000000E+002,  0.10000000000E+001,  0.00000000000E+000
  0.18230315000E+008,  0.20013227562E+007,  0.19000000000E+002,  0.10000000000E+001,  0.00000000000E+000
  0.18230465000E+008,  0.20013640797E+007,  0.19000000000E+002,  0.10000000000E+001,  0.00000000000E+000
  0.18230615000E+008,  0.20014012238E+007,  0.19000000000E+002,  0.10000000000E+001,  0.00000000000E+000
  0.18230765000E+008,  0.20014349182E+007,  0.19000000000E+002,  0.10000000000E+001,  0.00000000000E+000
  0.18230915000E+008,  0.20014657348E+007,  0.19000000000E+002,  0.10000000000E+001,  0.00000000000E+000
  0.18231065000E+008,  0.20014941255E+007,  0.19000000000E+002,  0.10000000000E+001,  0.00000000000E+000
  0.18231215000E+008,  0.20015204508E+007,  0.19000000000E+002,  0.10000000000E+001,  0.00000000000E+000
  0.18231365000E+008,  0.20015450008E+007,  0.19000000000E+002,  0.10000000000E+001,  0.00000000000E+000
  0.18231515000E+008,  0.20015680111E+007,  0.19000000000E+002,  0.10000000000E+001,  0.00000000000E+000
  0.18231665000E+008,  0.20015896754E+007,  0.19000000000E+002,  0.10000000000E+001,  0.00000000000E+000
  0.18231815000E+008,  0.20016101542E+007,  0.19000000000E+002,  0.10000000000E+001,  0.00000000000E+000
  0.18231965000E+008,  0.20016295820E+007,  0.19000000000E+002,  0.10000000000E+001,  0.00000000000E+000
  0.18232115000E+008,  0.20016480722E+007,  0.19000000000E+002,  0.10000000000E+001,  0.00000000000E+000
  0.18232265000E+008,  0.20016657218E+007,  0.19000000000E+002,  0.10000000000E+001,  0.00000000000E+000
  0.18232415000E+008,  0.20016826140E+007,  0.19000000000E+002,  0.10000000000E+001,  0.00000000000E+000
  0.18232565000E+008,  0.20016988209E+007,  0.19000000000E+002,  0.10000000000E+001,  0.00000000000E+000
  0.18232715000E+008,  0.20017144057E+007,  0.19000000000E+002,  0.10000000000E+001,  0.00000000000E+000
  0.18232865000E+008,  0.20017294234E+007,  0.19000000000E+002,  0.10000000000E+001,  0.00000000000E+000
  0.18233015000E+008,  0.20017439231E+007,  0.19000000000E+002,  0.10000000000E+001,  0.00000000000E+000
  0.18233165000E+008,  0.20017579480E+007,  0.19000000000E+002,  0.10000000000E+001,  0.00000000000E+000
  0.18233315000E+008,  0.20017715370E+007,  0.19000000000E+002,  0.10000000000E+001,  0.00000000000E+000
  0.18233465000E+008,  0.20017847247E+007,  0.19000000000E+002,  0.10000000000E+001,  0.00000000000E+000
  0.18233615000E+008,  0.20017975425E+007,  0.19000000000E+002,  0.10000000000E+001,  0.00000000000E+000
  0.18233765000E+008,  0.20018100186E+007,  0.19000000000E+002,  0.10000000000E+001,  0.00000000000E+000
  0.18233915000E+008,  0.20018221787E+007,  0.19000000000E+002,  0.10000000000E+001,  0.00000000000E+000
  0.18234065000E+008,  0.20018340461E+007,  0.19000000000E+002,  0.10000000000E+001,  0.00000000000E+000
  0.18234215000E+008,  0.20018456420E+007,  0.19000000000E+002,  0.10000000000E+001,  0.00000000000E+000
  0.18234365000E+008,  0.20018570162E+007,  0.19000000000E+002,  0.10000000000E+001,  0.00000000000E+000
  0.18234440001E+008,  0.20018626705E+007,  0.19000000000E+002,  0.10000000000E+001,  0.00000000000E+000
  0.18234477501E+008,  0.20018654908E+007,  0.19000000000E+002,  0.10000000000E+001,  0.00000000000E+000
  0.18234627501E+008,  0.20018766135E+007,  0.19000000000E+002,  0.10000000000E+001,  0.00000000000E+000
  0.18234777501E+008,  0.20018875549E+007,  0.19000000000E+002,  0.10000000000E+001,  0.00000000000E+000
  0.18234927501E+008,  0.20018983066E+007,  0.19000000000E+002,  0.10000000000E+001,  0.00000000000E+000
  0.18235077501E+008,  0.20019088734E+007,  0.19000000000E+002,  0.10000000000E+001,  0.00000000000E+000
  0.18235152502E+008,  0.20019141292E+007,  0.19000000000E+002,  0.10000000000E+001,  0.00000000000E+000
  0.18235302502E+008,  0.20019245034E+007,  0.19000000000E+002,  0.10000000000E+001,  0.00000000000E+000
  0.18235452502E+008,  0.20019347288E+007,  0.19000000000E+002,  0.10000000000E+001,  0.00000000000E+000
  0.18235602502E+008,  0.20019448031E+007,  0.19000000000E+002,  0.10000000000E+001,  0.00000000000E+000
  0.18235752502E+008,  0.20019547292E+007,  0.19000000000E+002,  0.10000000000E+001,  0.00000000000E+000
  0.18235902502E+008,  0.20019645127E+007,  0.19000000000E+002,  0.10000000000E+001,  0.00000000000E+000
  0.18236052502E+008,  0.20019741610E+007,  0.19000000000E+002,  0.10000000000E+001,  0.00000000000E+000
  0.18236202502E+008,  0.20019836824E+007,  0.19000000000E+002,  0.10000000000E+001,  0.00000000000E+000
  0.18236352502E+008,  0.20019930849E+007,  0.19000000000E+002,  0.10000000000E+001,  0.00000000000E+000
  0.18236502502E+008,  0.20020023767E+007,  0.19000000000E+002,  0.10000000000E+001,  0.00000000000E+000
  0.18236652502E+008,  0.20020115655E+007,  0.19000000000E+002,  0.10000000000E+001,  0.00000000000E+000
  0.18236802502E+008,  0.20020206587E+007,  0.19000000000E+002,  0.10000000000E+001,  0.00000000000E+000
  0.18236952502E+008,  0.20020296630E+007,  0.19000000000E+002,  0.10000000000E+001,  0.00000000000E+000
  0.18237102502E+008,  0.20020385848E+007,  0.19000000000E+002,  0.10000000000E+001,  0.00000000000E+000
  0.18237252502E+008,  0.20020474300E+007,  0.19000000000E+002,  0.10000000000E+001,  0.00000000000E+000
  0.18237402502E+008,  0.20020562038E+007,  0.19000000000E+002,  0.10000000000E+001,  0.00000000000E+000
  0.18237552502E+008,  0.20020649113E+007,  0.19000000000E+002,  0.10000000000E+001,  0.00000000000E+000
  0.18237702502E+008,  0.20020735570E+007,  0.19000000000E+002,  0.10000000000E+001,  0.00000000000E+000
  0.18237852502E+008,  0.20020821452E+007,  0.19000000000E+002,  0.10000000000E+001,  0.00000000000E+000
  0.18238002502E+008,  0.20020906796E+007,  0.19000000000E+002,  0.10000000000E+001,  0.00000000000E+000
  0.18238152502E+008,  0.20020991638E+007,  0.19000000000E+002,  0.10000000000E+001,  0.00000000000E+000
  0.18238302502E+008,  0.20021076011E+007,  0.19000000000E+002,  0.10000000000E+001,  0.00000000000E+000
  0.18238452502E+008,  0.20021159945E+007,  0.19000000000E+002,  0.10000000000E+001,  0.00000000000E+000
  0.18238602502E+008,  0.20021243469E+007,  0.19000000000E+002,  0.10000000000E+001,  0.00000000000E+000
  0.18238752502E+008,  0.20021326607E+007,  0.19000000000E+002,  0.10000000000E+001,  0.00000000000E+000
  0.18238902502E+008,  0.20021409385E+007,  0.19000000000E+002,  0.10000000000E+001,  0.00000000000E+000
  0.18239052502E+008,  0.20021491824E+007,  0.19000000000E+002,  0.10000000000E+001,  0.00000000000E+000
  0.18239202502E+008,  0.20021573946E+007,  0.19000000000E+002,  0.10000000000E+001,  0.00000000000E+000
  0.18239352502E+008,  0.20021655769E+007,  0.19000000000E+002,  0.10000000000E+001,  0.00000000000E+000
  0.18239502502E+008,  0.20021737311E+007,  0.19000000000E+002,  0.10000000000E+001,  0.00000000000E+000
  0.18239652502E+008,  0.20021818589E+007,  0.19000000000E+002,  0.10000000000E+001,  0.00000000000E+000
  0.18239802502E+008,  0.20021899619E+007,  0.19000000000E+002,  0.10000000000E+001,  0.00000000000E+000
  0.18239952502E+008,  0.20021980415E+007,  0.19000000000E+002,  0.10000000000E+001,  0.00000000000E+000
  0.18240102502E+008,  0.20022060991E+007,  0.19000000000E+002,  0.10000000000E+001,  0.00000000000E+000
  0.18240252502E+008,  0.20022141360E+007,  0.19000000000E+002,  0.10000000000E+001,  0.00000000000E+000
  0.18240402502E+008,  0.20022221533E+007,  0.19000000000E+002,  0.10000000000E+001,  0.00000000000E+000
  0.18240552502E+008,  0.20022301521E+007,  0.19000000000E+002,  0.10000000000E+001,  0.00000000000E+000
  0.18240702502E+008,  0.20022381335E+007,  0.19000000000E+002,  0.10000000000E+001,  0.00000000000E+000
  0.18240852502E+008,  0.20022460985E+007,  0.19000000000E+002,  0.10000000000E+001,  0.00000000000E+000
  0.18241002502E+008,  0.20022540479E+007,  0.19000000000E+002,  0.10000000000E+001,  0.00000000000E+000
  0.18241152502E+008,  0.20022619827E+007,  0.19000000000E+002,  0.10000000000E+001,  0.00000000000E+000
  0.18241302502E+008,  0.20022699036E+007,  0.19000000000E+002,  0.10000000000E+001,  0.00000000000E+000
  0.18241452502E+008,  0.20022778113E+007,  0.19000000000E+002,  0.10000000000E+001,  0.00000000000E+000
  0.18241602502E+008,  0.20022857067E+007,  0.19000000000E+002,  0.10000000000E+001,  0.00000000000E+000
  0.18241752502E+008,  0.20022935903E+007,  0.19000000000E+002,  0.10000000000E+001,  0.00000000000E+000
  0.18241902502E+008,  0.20023014627E+007,  0.19000000000E+002,  0.10000000000E+001,  0.00000000000E+000
  0.18242052502E+008,  0.20023093246E+007,  0.19000000000E+002,  0.10000000000E+001,  0.00000000000E+000
  0.18242202502E+008,  0.20023171765E+007,  0.19000000000E+002,  0.10000000000E+001,  0.00000000000E+000
  0.18242352502E+008,  0.20023250189E+007,  0.19000000000E+002,  0.10000000000E+001,  0.00000000000E+000
  0.18242502502E+008,  0.20023328522E+007,  0.19000000000E+002,  0.10000000000E+001,  0.00000000000E+000
  0.18242652502E+008,  0.20023406770E+007,  0.19000000000E+002,  0.10000000000E+001,  0.00000000000E+000
  0.18242802502E+008,  0.20023484937E+007,  0.19000000000E+002,  0.10000000000E+001,  0.00000000000E+000
  0.18242952502E+008,  0.20023563026E+007,  0.19000000000E+002,  0.10000000000E+001,  0.00000000000E+000
  0.18243102502E+008,  0.20023641042E+007,  0.19000000000E+002,  0.10000000000E+001,  0.00000000000E+000
  0.18243252502E+008,  0.20023718987E+007,  0.19000000000E+002,  0.10000000000E+001,  0.00000000000E+000
  0.18243402502E+008,  0.20023796866E+007,  0.19000000000E+002,  0.10000000000E+001,  0.00000000000E+000
  0.18243552502E+008,  0.20023874682E+007,  0.19000000000E+002,  0.10000000000E+001,  0.00000000000E+000
  0.18243702502E+008,  0.20023952451E+007,  0.19000000000E+002,  0.10000000000E+001,  0.00000000000E+000
  0.18243777502E+008,  0.20023991328E+007,  0.19000000000E+002,  0.10000000000E+001,  0.00000000000E+000
  0.18243927502E+008,  0.20024069058E+007,  0.19000000000E+002,  0.10000000000E+001,  0.00000000000E+000
  0.18244077502E+008,  0.20024146770E+007,  0.19000000000E+002,  0.10000000000E+001,  0.00000000000E+000
  0.18244152503E+008,  0.20024185631E+007,  0.19000000000E+002,  0.10000000000E+001,  0.00000000000E+000
  0.18244302503E+008,  0.20024263420E+007,  0.19000000000E+002,  0.10000000000E+001,  0.00000000000E+000
  0.18244377503E+008,  0.20024302334E+007,  0.19000000000E+002,  0.10000000000E+001,  0.00000000000E+000
  0.18244527503E+008,  0.20024380233E+007,  0.19000000000E+002,  0.10000000000E+001,  0.00000000000E+000
  0.18244677503E+008,  0.20024458185E+007,  0.19000000000E+002,  0.10000000000E+001,  0.00000000000E+000
  0.18244827503E+008,  0.20024536166E+007,  0.19000000000E+002,  0.10000000000E+001,  0.00000000000E+000
  0.18244977503E+008,  0.20024614156E+007,  0.19000000000E+002,  0.10000000000E+001,  0.00000000000E+000
  0.18245127503E+008,  0.20024692152E+007,  0.19000000000E+002,  0.10000000000E+001,  0.00000000000E+000
  0.18245202504E+008,  0.20024731152E+007,  0.19000000000E+002,  0.10000000000E+001,  0.00000000000E+000
  0.18245352504E+008,  0.20024809153E+007,  0.19000000000E+002,  0.10000000000E+001,  0.00000000000E+000
  0.18245502504E+008,  0.20024887144E+007,  0.19000000000E+002,  0.10000000000E+001,  0.00000000000E+000
  0.18245652504E+008,  0.20024965111E+007,  0.19000000000E+002,  0.10000000000E+001,  0.00000000000E+000
  0.18245802504E+008,  0.20025043046E+007,  0.19000000000E+002,  0.10000000000E+001,  0.00000000000E+000
  0.18245952504E+008,  0.20025120938E+007,  0.19000000000E+002,  0.10000000000E+001,  0.00000000000E+000
  0.18246102504E+008,  0.20025198781E+007,  0.19000000000E+002,  0.10000000000E+001,  0.00000000000E+000
  0.18246252504E+008,  0.20025276571E+007,  0.19000000000E+002,  0.10000000000E+001,  0.00000000000E+000
  0.18246402504E+008,  0.20025354327E+007,  0.19000000000E+002,  0.10000000000E+001,  0.00000000000E+000
  0.18246477504E+008,  0.20025393199E+007,  0.19000000000E+002,  0.10000000000E+001,  0.00000000000E+000
  0.18246627504E+008,  0.20025470923E+007,  0.19000000000E+002,  0.10000000000E+001,  0.00000000000E+000
  0.18246777504E+008,  0.20025548629E+007,  0.19000000000E+002,  0.10000000000E+001,  0.00000000000E+000
  0.18246927504E+008,  0.20025626310E+007,  0.19000000000E+002,  0.10000000000E+001,  0.00000000000E+000
  0.18247077504E+008,  0.20025703961E+007,  0.19000000000E+002,  0.10000000000E+001,  0.00000000000E+000
  0.18247227504E+008,  0.20025781579E+007,  0.19000000000E+002,  0.10000000000E+001,  0.00000000000E+000
  0.18247377504E+008,  0.20025859158E+007,  0.19000000000E+002,  0.10000000000E+001,  0.00000000000E+000
  0.18247527504E+008,  0.20025936695E+007,  0.19000000000E+002,  0.10000000000E+001,  0.00000000000E+000
  0.18247677504E+008,  0.20026014190E+007,  0.19000000000E+002,  0.10000000000E+001,  0.00000000000E+000
  0.18247827504E+008,  0.20026091640E+007,  0.19000000000E+002,  0.10000000000E+001,  0.00000000000E+000
  0.18247977504E+008,  0.20026169044E+007,  0.19000000000E+002,  0.10000000000E+001,  0.00000000000E+000
  0.18248127504E+008,  0.20026246404E+007,  0.19000000000E+002,  0.10000000000E+001,  0.00000000000E+000
  0.18248277504E+008,  0.20026323720E+007,  0.19000000000E+002,  0.10000000000E+001,  0.00000000000E+000
  0.18248427504E+008,  0.20026400993E+007,  0.19000000000E+002,  0.10000000000E+001,  0.00000000000E+000
  0.18248577504E+008,  0.20026478224E+007,  0.19000000000E+002,  0.10000000000E+001,  0.00000000000E+000
  0.18248727504E+008,  0.20026555414E+007,  0.19000000000E+002,  0.10000000000E+001,  0.00000000000E+000
  0.18248877504E+008,  0.20026632566E+007,  0.19000000000E+002,  0.10000000000E+001,  0.00000000000E+000
  0.18249027504E+008,  0.20026709680E+007,  0.19000000000E+002,  0.10000000000E+001,  0.00000000000E+000
  0.18249177504E+008,  0.20026786758E+007,  0.19000000000E+002,  0.10000000000E+001,  0.00000000000E+000
  0.18249327504E+008,  0.20026863801E+007,  0.19000000000E+002,  0.10000000000E+001,  0.00000000000E+000
  0.18249477504E+008,  0.20026940812E+007,  0.19000000000E+002,  0.10000000000E+001,  0.00000000000E+000
  0.18249627504E+008,  0.20027017790E+007,  0.19000000000E+002,  0.10000000000E+001,  0.00000000000E+000
  0.18249777504E+008,  0.20027094739E+007,  0.19000000000E+002,  0.10000000000E+001,  0.00000000000E+000
  0.18249927504E+008,  0.20027171658E+007,  0.19000000000E+002,  0.10000000000E+001,  0.00000000000E+000
  0.18250077504E+008,  0.20027248550E+007,  0.19000000000E+002,  0.10000000000E+001,  0.00000000000E+000
  0.18250227504E+008,  0.20027325414E+007,  0.19000000000E+002,  0.10000000000E+001,  0.00000000000E+000
  0.18250377504E+008,  0.20027402253E+007,  0.19000000000E+002,  0.10000000000E+001,  0.00000000000E+000
  0.18250527504E+008,  0.20027479067E+007,  0.19000000000E+002,  0.10000000000E+001,  0.00000000000E+000
  0.18250677504E+008,  0.20027555857E+007,  0.19000000000E+002,  0.10000000000E+001,  0.00000000000E+000
  0.18250827504E+008,  0.20027632623E+007,  0.19000000000E+002,  0.10000000000E+001,  0.00000000000E+000
  0.18250977504E+008,  0.20027709367E+007,  0.19000000000E+002,  0.10000000000E+001,  0.00000000000E+000
  0.18251127504E+008,  0.20027786090E+007,  0.19000000000E+002,  0.10000000000E+001,  0.00000000000E+000
  0.18251277504E+008,  0.20027862791E+007,  0.19000000000E+002,  0.10000000000E+001,  0.00000000000E+000
  0.18251427504E+008,  0.20027939472E+007,  0.19000000000E+002,  0.10000000000E+001,  0.00000000000E+000
  0.18251577504E+008,  0.20028016133E+007,  0.19000000000E+002,  0.10000000000E+001,  0.00000000000E+000
  0.18251727504E+008,  0.20028092775E+007,  0.19000000000E+002,  0.10000000000E+001,  0.00000000000E+000
  0.18251877504E+008,  0.20028169398E+007,  0.19000000000E+002,  0.10000000000E+001,  0.00000000000E+000
  0.18252027504E+008,  0.20028246003E+007,  0.19000000000E+002,  0.10000000000E+001,  0.00000000000E+000
  0.18252177504E+008,  0.20028322589E+007,  0.19000000000E+002,  0.10000000000E+001,  0.00000000000E+000
  0.18252327504E+008,  0.20028399159E+007,  0.19000000000E+002,  0.10000000000E+001,  0.00000000000E+000
  0.18252477504E+008,  0.20028475711E+007,  0.19000000000E+002,  0.10000000000E+001,  0.00000000000E+000
  0.18252627504E+008,  0.20028552246E+007,  0.19000000000E+002,  0.10000000000E+001,  0.00000000000E+000
  0.18252777504E+008,  0.20028628765E+007,  0.19000000000E+002,  0.10000000000E+001,  0.00000000000E+000
  0.18252927504E+008,  0.20028705269E+007,  0.19000000000E+002,  0.10000000000E+001,  0.00000000000E+000
  0.18253077504E+008,  0.20028781756E+007,  0.19000000000E+002,  0.10000000000E+001,  0.00000000000E+000
  0.18253227504E+008,  0.20028858228E+007,  0.19000000000E+002,  0.10000000000E+001,  0.00000000000E+000
  0.18253377504E+008,  0.20028934685E+007,  0.19000000000E+002,  0.10000000000E+001,  0.00000000000E+000
  0.18253527504E+008,  0.20029011127E+007,  0.19000000000E+002,  0.10000000000E+001,  0.00000000000E+000
  0.18253677504E+008,  0.20029087557E+007,  0.19000000000E+002,  0.10000000000E+001,  0.00000000000E+000
  0.18253752505E+008,  0.20029125769E+007,  0.19000000000E+002,  0.10000000000E+001,  0.00000000000E+000
  0.18253902505E+008,  0.20029202188E+007,  0.19000000000E+002,  0.10000000000E+001,  0.00000000000E+000
  0.18254052505E+008,  0.20029278607E+007,  0.19000000000E+002,  0.10000000000E+001,  0.00000000000E+000
  0.18254202505E+008,  0.20029355027E+007,  0.19000000000E+002,  0.10000000000E+001,  0.00000000000E+000
  0.18254352505E+008,  0.20029431450E+007,  0.19000000000E+002,  0.10000000000E+001,  0.00000000000E+000
  0.18254502505E+008,  0.20029507875E+007,  0.19000000000E+002,  0.10000000000E+001,  0.00000000000E+000
  0.18254652505E+008,  0.20029584301E+007,  0.19000000000E+002,  0.10000000000E+001,  0.00000000000E+000
  0.18254802505E+008,  0.20029660724E+007,  0.19000000000E+002,  0.10000000000E+001,  0.00000000000E+000
  0.18254952505E+008,  0.20029737144E+007,  0.19000000000E+002,  0.10000000000E+001,  0.00000000000E+000
  0.18255102505E+008,  0.20029813558E+007,  0.19000000000E+002,  0.10000000000E+001,  0.00000000000E+000
  0.18255252505E+008,  0.20029889965E+007,  0.19000000000E+002,  0.10000000000E+001,  0.00000000000E+000
  0.18255402505E+008,  0.20029966362E+007,  0.19000000000E+002,  0.10000000000E+001,  0.00000000000E+000
  0.18255552505E+008,  0.20030042748E+007,  0.19000000000E+002,  0.10000000000E+001,  0.00000000000E+000
  0.18255702505E+008,  0.20030119122E+007,  0.19000000000E+002,  0.10000000000E+001,  0.00000000000E+000
  0.18255852505E+008,  0.20030195483E+007,  0.19000000000E+002,  0.10000000000E+001,  0.00000000000E+000
  0.18256002505E+008,  0.20030271830E+007,  0.19000000000E+002,  0.10000000000E+001,  0.00000000000E+000
  0.18256152505E+008,  0.20030348163E+007,  0.19000000000E+002,  0.10000000000E+001,  0.00000000000E+000
