"           TIME(S)","              PRES","              TEMP","             SAT_G","             SAT_L"
  0.17592150000E+008,  0.21000002002E+007,  0.19000000000E+002,  0.00000000000E+000,  0.10000000000E+001
  0.17592300000E+008,  0.20999981170E+007,  0.19000000000E+002,  0.00000000000E+000,  0.10000000000E+001
  0.17592450000E+008,  0.20999832113E+007,  0.19000000000E+002,  0.00000000000E+000,  0.10000000000E+001
  0.17592600000E+008,  0.20999473424E+007,  0.19000000000E+002,  0.00000000000E+000,  0.10000000000E+001
  0.17592750000E+008,  0.20998867616E+007,  0.19000000000E+002,  0.00000000000E+000,  0.10000000000E+001
  0.17592900000E+008,  0.20998019754E+007,  0.19000000000E+002,  0.00000000000E+000,  0.10000000000E+001
  0.17593050000E+008,  0.20996954854E+007,  0.19000000000E+002,  0.00000000000E+000,  0.10000000000E+001
  0.17593200000E+008,  0.20995705888E+007,  0.19000000000E+002,  0.00000000000E+000,  0.10000000000E+001
  0.17593350000E+008,  0.20994306068E+007,  0.19000000000E+002,  0.00000000000E+000,  0.10000000000E+001
  0.17593500000E+008,  0.20992784489E+007,  0.19000000000E+002,  0.00000000000E+000,  0.10000000000E+001
  0.17593650000E+008,  0.20991164825E+007,  0.19000000000E+002,  0.00000000000E+000,  0.10000000000E+001
  0.17593800000E+008,  0.20989465721E+007,  0.19000000000E+002,  0.00000000000E+000,  0.10000000000E+001
  0.17593950000E+008,  0.20987701808E+007,  0.19000000000E+002,  0.00000000000E+000,  0.10000000000E+001
  0.17594100000E+008,  0.20985884755E+007,  0.19000000000E+002,  0.00000000000E+000,  0.10000000000E+001
  0.17594250000E+008,  0.20984024116E+007,  0.19000000000E+002,  0.00000000000E+000,  0.10000000000E+001
  0.17594400000E+008,  0.20982127934E+007,  0.19000000000E+002,  0.00000000000E+000,  0.10000000000E+001
  0.17594550000E+008,  0.20980203154E+007,  0.19000000000E+002,  0.00000000000E+000,  0.10000000000E+001
  0.17594700000E+008,  0.20978255876E+007,  0.19000000000E+002,  0.00000000000E+000,  0.10000000000E+001
  0.17594850000E+008,  0.20976291512E+007,  0.19000000000E+002,  0.00000000000E+000,  0.10000000000E+001
  0.17595000000E+008,  0.20974314896E+007,  0.19000000000E+002,  0.00000000000E+000,  0.10000000000E+001
  0.17595150000E+008,  0.20972330706E+007,  0.19000000000E+002,  0.00000000000E+000,  0.10000000000E+001
  0.17595225000E+008,  0.20971338722E+007,  0.19000000000E+002,  0.00000000000E+000,  0.10000000000E+001
  0.17595262501E+008,  0.20970842799E+007,  0.19000000000E+002,  0.00000000000E+000,  0.10000000000E+001
  0.17595412501E+008,  0.20968859796E+007,  0.19000000000E+002,  0.00000000000E+000,  0.10000000000E+001
  0.17595487501E+008,  0.20967870657E+007,  0.19000000000E+002,  0.00000000000E+000,  0.10000000000E+001
  0.17595525002E+008,  0.20967377032E+007,  0.19000000000E+002,  0.00000000000E+000,  0.10000000000E+001
  0.17595543752E+008,  0.20967130470E+007,  0.19000000000E+002,  0.00000000000E+000,  0.10000000000E+001
  0.17595553127E+008,  0.20967007273E+007,  0.19000000000E+002,  0.00000000000E+000,  0.10000000000E+001
  0.17595557815E+008,  0.20966945700E+007,  0.19000000000E+002,  0.00000000000E+000,  0.10000000000E+001
  0.17595560159E+008,  0.20966914920E+007,  0.19000000000E+002,  0.00000000000E+000,  0.10000000000E+001
  0.17595571878E+008,  0.20966761235E+007,  0.19000000000E+002,  0.00000000000E+000,  0.10000000000E+001
  0.17595630474E+008,  0.20965995354E+007,  0.19000000000E+002,  0.00000000000E+000,  0.10000000000E+001
  0.17595780474E+008,  0.20964040274E+007,  0.19000000000E+002,  0.00000000000E+000,  0.10000000000E+001
  0.17595930474E+008,  0.20962091428E+007,  0.19000000000E+002,  0.00000000000E+000,  0.10000000000E+001
  0.17596080474E+008,  0.20960150346E+007,  0.19000000000E+002,  0.00000000000E+000,  0.10000000000E+001
  0.17596230474E+008,  0.20958218147E+007,  0.19000000000E+002,  0.00000000000E+000,  0.10000000000E+001
  0.17596380474E+008,  0.20956295602E+007,  0.19000000000E+002,  0.00000000000E+000,  0.10000000000E+001
  0.17596455475E+008,  0.20955339049E+007,  0.19000000000E+002,  0.00000000000E+000,  0.10000000000E+001
  0.17596492975E+008,  0.20954862241E+007,  0.19000000000E+002,  0.00000000000E+000,  0.10000000000E+001
  0.17596511725E+008,  0.20954624426E+007,  0.19000000000E+002,  0.00000000000E+000,  0.10000000000E+001
  0.17596521101E+008,  0.20954505691E+007,  0.19000000000E+002,  0.00000000000E+000,  0.10000000000E+001
  0.17596567977E+008,  0.20953913809E+007,  0.19000000000E+002,  0.00000000000E+000,  0.10000000000E+001
  0.17596717977E+008,  0.20952028277E+007,  0.19000000000E+002,  0.00000000000E+000,  0.10000000000E+001
  0.17596792977E+008,  0.20951092749E+007,  0.19000000000E+002,  0.00000000000E+000,  0.10000000000E+001
  0.17596830478E+008,  0.20950628532E+007,  0.19000000000E+002,  0.00000000000E+000,  0.10000000000E+001
  0.17596849228E+008,  0.20950398533E+007,  0.19000000000E+002,  0.00000000000E+000,  0.10000000000E+001
  0.17596858603E+008,  0.20950284162E+007,  0.19000000000E+002,  0.00000000000E+000,  0.10000000000E+001
  0.17596863291E+008,  0.20950227159E+007,  0.19000000000E+002,  0.00000000000E+000,  0.10000000000E+001
  0.17596886729E+008,  0.20949942183E+007,  0.19000000000E+002,  0.00000000000E+000,  0.10000000000E+001
  0.17596898449E+008,  0.20949800659E+007,  0.19000000000E+002,  0.00000000000E+000,  0.10000000000E+001
  0.17596957045E+008,  0.20949085462E+007,  0.19000000000E+002,  0.00000000000E+000,  0.10000000000E+001
  0.17597107045E+008,  0.20947235792E+007,  0.19000000000E+002,  0.00000000000E+000,  0.10000000000E+001
  0.17597257045E+008,  0.20945388436E+007,  0.19000000000E+002,  0.00000000000E+000,  0.10000000000E+001
  0.17597407045E+008,  0.20943547672E+007,  0.19000000000E+002,  0.00000000000E+000,  0.10000000000E+001
  0.17597557045E+008,  0.20941714247E+007,  0.19000000000E+002,  0.00000000000E+000,  0.10000000000E+001
  0.17597707045E+008,  0.20939888124E+007,  0.19000000000E+002,  0.00000000000E+000,  0.10000000000E+001
  0.17597857045E+008,  0.20938069071E+007,  0.19000000000E+002,  0.00000000000E+000,  0.10000000000E+001
  0.17598007045E+008,  0.20936256777E+007,  0.19000000000E+002,  0.00000000000E+000,  0.10000000000E+001
  0.17598157045E+008,  0.20934450872E+007,  0.19000000000E+002,  0.00000000000E+000,  0.10000000000E+001
  0.17598307045E+008,  0.20932650947E+007,  0.19000000000E+002,  0.00000000000E+000,  0.10000000000E+001
  0.17598457045E+008,  0.20930856566E+007,  0.19000000000E+002,  0.00000000000E+000,  0.10000000000E+001
  0.17598607045E+008,  0.20929067270E+007,  0.19000000000E+002,  0.00000000000E+000,  0.10000000000E+001
  0.17598757045E+008,  0.20927282588E+007,  0.19000000000E+002,  0.00000000000E+000,  0.10000000000E+001
  0.17598907045E+008,  0.20925502042E+007,  0.19000000000E+002,  0.00000000000E+000,  0.10000000000E+001
  0.17599057045E+008,  0.20923725148E+007,  0.19000000000E+002,  0.00000000000E+000,  0.10000000000E+001
  0.17599207045E+008,  0.20921951422E+007,  0.19000000000E+002,  0.00000000000E+000,  0.10000000000E+001
  0.17599357045E+008,  0.20920180382E+007,  0.19000000000E+002,  0.00000000000E+000,  0.10000000000E+001
  0.17599507045E+008,  0.20918411548E+007,  0.19000000000E+002,  0.00000000000E+000,  0.10000000000E+001
  0.17599657045E+008,  0.20916644449E+007,  0.19000000000E+002,  0.00000000000E+000,  0.10000000000E+001
  0.17599807045E+008,  0.20914878617E+007,  0.19000000000E+002,  0.00000000000E+000,  0.10000000000E+001
  0.17599957045E+008,  0.20913113597E+007,  0.19000000000E+002,  0.00000000000E+000,  0.10000000000E+001
  0.17600107045E+008,  0.20911348941E+007,  0.19000000000E+002,  0.00000000000E+000,  0.10000000000E+001
  0.17600257045E+008,  0.20909584211E+007,  0.19000000000E+002,  0.00000000000E+000,  0.10000000000E+001
  0.17600407045E+008,  0.20907818982E+007,  0.19000000000E+002,  0.00000000000E+000,  0.10000000000E+001
  0.17600557045E+008,  0.20906052841E+007,  0.19000000000E+002,  0.00000000000E+000,  0.10000000000E+001
  0.17600707045E+008,  0.20904285386E+007,  0.19000000000E+002,  0.00000000000E+000,  0.10000000000E+001
  0.17600857045E+008,  0.20902516230E+007,  0.19000000000E+002,  0.00000000000E+000,  0.10000000000E+001
  0.17601007045E+008,  0.20900744997E+007,  0.19000000000E+002,  0.00000000000E+000,  0.10000000000E+001
  0.17601157045E+008,  0.20898971326E+007,  0.19000000000E+002,  0.00000000000E+000,  0.10000000000E+001
  0.17601307045E+008,  0.20897194871E+007,  0.19000000000E+002,  0.00000000000E+000,  0.10000000000E+001
  0.17601457045E+008,  0.20895415297E+007,  0.19000000000E+002,  0.00000000000E+000,  0.10000000000E+001
  0.17601607045E+008,  0.20893632286E+007,  0.19000000000E+002,  0.00000000000E+000,  0.10000000000E+001
  0.17601757045E+008,  0.20891845532E+007,  0.19000000000E+002,  0.00000000000E+000,  0.10000000000E+001
  0.17601907045E+008,  0.20890054744E+007,  0.19000000000E+002,  0.00000000000E+000,  0.10000000000E+001
  0.17602057045E+008,  0.20888259645E+007,  0.19000000000E+002,  0.00000000000E+000,  0.10000000000E+001
  0.17602207045E+008,  0.20886459973E+007,  0.19000000000E+002,  0.00000000000E+000,  0.10000000000E+001
  0.17602357045E+008,  0.20884655479E+007,  0.19000000000E+002,  0.00000000000E+000,  0.10000000000E+001
  0.17602507045E+008,  0.20882845927E+007,  0.19000000000E+002,  0.00000000000E+000,  0.10000000000E+001
  0.17602657045E+008,  0.20881031097E+007,  0.19000000000E+002,  0.00000000000E+000,  0.10000000000E+001
  0.17602807045E+008,  0.20879210781E+007,  0.19000000000E+002,  0.00000000000E+000,  0.10000000000E+001
  0.17602957045E+008,  0.20877384784E+007,  0.19000000000E+002,  0.00000000000E+000,  0.10000000000E+001
  0.17603107045E+008,  0.20875552926E+007,  0.19000000000E+002,  0.00000000000E+000,  0.10000000000E+001
  0.17603257045E+008,  0.20873715039E+007,  0.19000000000E+002,  0.00000000000E+000,  0.10000000000E+001
  0.17603407045E+008,  0.20871870967E+007,  0.19000000000E+002,  0.00000000000E+000,  0.10000000000E+001
  0.17603557045E+008,  0.20870022868E+007,  0.19000000000E+002,  0.00000000000E+000,  0.10000000000E+001
  0.17603707045E+008,  0.20868177516E+007,  0.19000000000E+002,  0.00000000000E+000,  0.10000000000E+001
  0.17603857045E+008,  0.20866334634E+007,  0.19000000000E+002,  0.00000000000E+000,  0.10000000000E+001
  0.17604007045E+008,  0.20864492243E+007,  0.19000000000E+002,  0.00000000000E+000,  0.10000000000E+001
  0.17604157045E+008,  0.20862655454E+007,  0.19000000000E+002,  0.00000000000E+000,  0.10000000000E+001
  0.17604307045E+008,  0.20860829238E+007,  0.19000000000E+002,  0.00000000000E+000,  0.10000000000E+001
  0.17604457045E+008,  0.20859012809E+007,  0.19000000000E+002,  0.00000000000E+000,  0.10000000000E+001
  0.17604607045E+008,  0.20857207405E+007,  0.19000000000E+002,  0.00000000000E+000,  0.10000000000E+001
  0.17604757045E+008,  0.20855415527E+007,  0.19000000000E+002,  0.00000000000E+000,  0.10000000000E+001
  0.17604907045E+008,  0.20853648533E+007,  0.19000000000E+002,  0.00000000000E+000,  0.10000000000E+001
  0.17605057045E+008,  0.20851902759E+007,  0.19000000000E+002,  0.00000000000E+000,  0.10000000000E+001
  0.17605207045E+008,  0.20850171950E+007,  0.19000000000E+002,  0.00000000000E+000,  0.10000000000E+001
  0.17605357045E+008,  0.20848451889E+007,  0.19000000000E+002,  0.00000000000E+000,  0.10000000000E+001
  0.17605507045E+008,  0.20846740114E+007,  0.19000000000E+002,  0.00000000000E+000,  0.10000000000E+001
  0.17605657045E+008,  0.20845035181E+007,  0.19000000000E+002,  0.00000000000E+000,  0.10000000000E+001
  0.17605807045E+008,  0.20843337076E+007,  0.19000000000E+002,  0.00000000000E+000,  0.10000000000E+001
  0.17605957045E+008,  0.20841645940E+007,  0.19000000000E+002,  0.00000000000E+000,  0.10000000000E+001
  0.17606107045E+008,  0.20839971404E+007,  0.19000000000E+002,  0.00000000000E+000,  0.10000000000E+001
  0.17606257045E+008,  0.20838312414E+007,  0.19000000000E+002,  0.00000000000E+000,  0.10000000000E+001
  0.17606407045E+008,  0.20836665623E+007,  0.19000000000E+002,  0.00000000000E+000,  0.10000000000E+001
  0.17606557045E+008,  0.20835035856E+007,  0.19000000000E+002,  0.00000000000E+000,  0.10000000000E+001
  0.17606707045E+008,  0.20833432568E+007,  0.19000000000E+002,  0.00000000000E+000,  0.10000000000E+001
  0.17606857045E+008,  0.20831851642E+007,  0.19000000000E+002,  0.00000000000E+000,  0.10000000000E+001
  0.17607007045E+008,  0.20830286095E+007,  0.19000000000E+002,  0.00000000000E+000,  0.10000000000E+001
  0.17607157045E+008,  0.20828732171E+007,  0.19000000000E+002,  0.00000000000E+000,  0.10000000000E+001
  0.17607307045E+008,  0.20827188122E+007,  0.19000000000E+002,  0.00000000000E+000,  0.10000000000E+001
  0.17607457045E+008,  0.20825653098E+007,  0.19000000000E+002,  0.00000000000E+000,  0.10000000000E+001
  0.17607607045E+008,  0.20824126645E+007,  0.19000000000E+002,  0.00000000000E+000,  0.10000000000E+001
  0.17607757045E+008,  0.20822609402E+007,  0.19000000000E+002,  0.00000000000E+000,  0.10000000000E+001
  0.17607907045E+008,  0.20821108393E+007,  0.19000000000E+002,  0.00000000000E+000,  0.10000000000E+001
  0.17608057045E+008,  0.20819623514E+007,  0.19000000000E+002,  0.00000000000E+000,  0.10000000000E+001
  0.17608207045E+008,  0.20818157856E+007,  0.19000000000E+002,  0.00000000000E+000,  0.10000000000E+001
  0.17608357045E+008,  0.20816708551E+007,  0.19000000000E+002,  0.00000000000E+000,  0.10000000000E+001
  0.17608507045E+008,  0.20815282042E+007,  0.19000000000E+002,  0.00000000000E+000,  0.10000000000E+001
  0.17608657045E+008,  0.20813894974E+007,  0.19000000000E+002,  0.00000000000E+000,  0.10000000000E+001
  0.17608807045E+008,  0.20812540589E+007,  0.19000000000E+002,  0.00000000000E+000,  0.10000000000E+001
  0.17608957045E+008,  0.20811208470E+007,  0.19000000000E+002,  0.00000000000E+000,  0.10000000000E+001
  0.17609107045E+008,  0.20809923913E+007,  0.19000000000E+002,  0.00000000000E+000,  0.10000000000E+001
  0.17609257045E+008,  0.20808686747E+007,  0.19000000000E+002,  0.00000000000E+000,  0.10000000000E+001
  0.17609407045E+008,  0.20807500277E+007,  0.19000000000E+002,  0.00000000000E+000,  0.10000000000E+001
  0.17609557045E+008,  0.20806348607E+007,  0.19000000000E+002,  0.00000000000E+000,  0.10000000000E+001
  0.17609707045E+008,  0.20805258635E+007,  0.19000000000E+002,  0.00000000000E+000,  0.10000000000E+001
  0.17609857045E+008,  0.20804194198E+007,  0.19000000000E+002,  0.00000000000E+000,  0.10000000000E+001
  0.17610007045E+008,  0.20803144204E+007,  0.19000000000E+002,  0.00000000000E+000,  0.10000000000E+001
  0.17610157045E+008,  0.20802105286E+007,  0.19000000000E+002,  0.00000000000E+000,  0.10000000000E+001
  0.17610307045E+008,  0.20801076130E+007,  0.19000000000E+002,  0.00000000000E+000,  0.10000000000E+001
  0.17610457045E+008,  0.20800056073E+007,  0.19000000000E+002,  0.00000000000E+000,  0.10000000000E+001
  0.17610607045E+008,  0.20799044709E+007,  0.19000000000E+002,  0.00000000000E+000,  0.10000000000E+001
  0.17610757045E+008,  0.20798041750E+007,  0.19000000000E+002,  0.00000000000E+000,  0.10000000000E+001
  0.17610907045E+008,  0.20797046975E+007,  0.19000000000E+002,  0.00000000000E+000,  0.10000000000E+001
  0.17611057045E+008,  0.20796060199E+007,  0.19000000000E+002,  0.00000000000E+000,  0.10000000000E+001
  0.17611207045E+008,  0.20795081262E+007,  0.19000000000E+002,  0.00000000000E+000,  0.10000000000E+001
  0.17611357045E+008,  0.20794110019E+007,  0.19000000000E+002,  0.00000000000E+000,  0.10000000000E+001
  0.17611507045E+008,  0.20793146338E+007,  0.19000000000E+002,  0.00000000000E+000,  0.10000000000E+001
  0.17611657045E+008,  0.20792190094E+007,  0.19000000000E+002,  0.00000000000E+000,  0.10000000000E+001
  0.17611807045E+008,  0.20791241170E+007,  0.19000000000E+002,  0.00000000000E+000,  0.10000000000E+001
  0.17611957045E+008,  0.20790299453E+007,  0.19000000000E+002,  0.00000000000E+000,  0.10000000000E+001
  0.17612107045E+008,  0.20789364836E+007,  0.19000000000E+002,  0.00000000000E+000,  0.10000000000E+001
  0.17612257045E+008,  0.20788437213E+007,  0.19000000000E+002,  0.00000000000E+000,  0.10000000000E+001
  0.17612407045E+008,  0.20787516484E+007,  0.19000000000E+002,  0.00000000000E+000,  0.10000000000E+001
  0.17612557045E+008,  0.20786602549E+007,  0.19000000000E+002,  0.00000000000E+000,  0.10000000000E+001
  0.17612707045E+008,  0.20785695313E+007,  0.19000000000E+002,  0.00000000000E+000,  0.10000000000E+001
  0.17612857045E+008,  0.20784794682E+007,  0.19000000000E+002,  0.00000000000E+000,  0.10000000000E+001
  0.17613007045E+008,  0.20783900565E+007,  0.19000000000E+002,  0.00000000000E+000,  0.10000000000E+001
  0.17613157045E+008,  0.20783012872E+007,  0.19000000000E+002,  0.00000000000E+000,  0.10000000000E+001
  0.17613307045E+008,  0.20782131516E+007,  0.19000000000E+002,  0.00000000000E+000,  0.10000000000E+001
  0.17613457045E+008,  0.20781256411E+007,  0.19000000000E+002,  0.00000000000E+000,  0.10000000000E+001
  0.17613607045E+008,  0.20780387473E+007,  0.19000000000E+002,  0.00000000000E+000,  0.10000000000E+001
  0.17613757045E+008,  0.20779524620E+007,  0.19000000000E+002,  0.00000000000E+000,  0.10000000000E+001
  0.17613907045E+008,  0.20778667770E+007,  0.19000000000E+002,  0.00000000000E+000,  0.10000000000E+001
  0.17614057045E+008,  0.20777816845E+007,  0.19000000000E+002,  0.00000000000E+000,  0.10000000000E+001
  0.17614207045E+008,  0.20776971766E+007,  0.19000000000E+002,  0.00000000000E+000,  0.10000000000E+001
  0.17614357045E+008,  0.20776132456E+007,  0.19000000000E+002,  0.00000000000E+000,  0.10000000000E+001
  0.17614507045E+008,  0.20775298842E+007,  0.19000000000E+002,  0.00000000000E+000,  0.10000000000E+001
  0.17614657045E+008,  0.20774470848E+007,  0.19000000000E+002,  0.00000000000E+000,  0.10000000000E+001
  0.17614807045E+008,  0.20773648402E+007,  0.19000000000E+002,  0.00000000000E+000,  0.10000000000E+001
  0.17614957045E+008,  0.20772831432E+007,  0.19000000000E+002,  0.00000000000E+000,  0.10000000000E+001
  0.17615107045E+008,  0.20772019868E+007,  0.19000000000E+002,  0.00000000000E+000,  0.10000000000E+001
  0.17615257045E+008,  0.20771213642E+007,  0.19000000000E+002,  0.00000000000E+000,  0.10000000000E+001
  0.17615407045E+008,  0.20770412684E+007,  0.19000000000E+002,  0.00000000000E+000,  0.10000000000E+001
  0.17615557045E+008,  0.20769616928E+007,  0.19000000000E+002,  0.00000000000E+000,  0.10000000000E+001
  0.17615707045E+008,  0.20768826308E+007,  0.19000000000E+002,  0.00000000000E+000,  0.10000000000E+001
  0.17615857045E+008,  0.20768040760E+007,  0.19000000000E+002,  0.00000000000E+000,  0.10000000000E+001
  0.17616007045E+008,  0.20767260219E+007,  0.19000000000E+002,  0.00000000000E+000,  0.10000000000E+001
  0.17616157045E+008,  0.20766484622E+007,  0.19000000000E+002,  0.00000000000E+000,  0.10000000000E+001
  0.17616307045E+008,  0.20765713908E+007,  0.19000000000E+002,  0.00000000000E+000,  0.10000000000E+001
  0.17616457045E+008,  0.20764948016E+007,  0.19000000000E+002,  0.00000000000E+000,  0.10000000000E+001
  0.17616607045E+008,  0.20764186886E+007,  0.19000000000E+002,  0.00000000000E+000,  0.10000000000E+001
  0.17616757045E+008,  0.20763430459E+007,  0.19000000000E+002,  0.00000000000E+000,  0.10000000000E+001
  0.17616907045E+008,  0.20762678677E+007,  0.19000000000E+002,  0.00000000000E+000,  0.10000000000E+001
  0.17617057045E+008,  0.20761931482E+007,  0.19000000000E+002,  0.00000000000E+000,  0.10000000000E+001
  0.17617207045E+008,  0.20761188818E+007,  0.19000000000E+002,  0.00000000000E+000,  0.10000000000E+001
  0.17617357045E+008,  0.20760450630E+007,  0.19000000000E+002,  0.00000000000E+000,  0.10000000000E+001
  0.17617507045E+008,  0.20759716863E+007,  0.19000000000E+002,  0.00000000000E+000,  0.10000000000E+001
  0.17617657045E+008,  0.20758987462E+007,  0.19000000000E+002,  0.00000000000E+000,  0.10000000000E+001
