"           TIME(S)","              PRES","              TEMP","             SAT_G","             SAT_L"
  0.17592105000E+008,  0.21000000000E+007,  0.19000000000E+002,  0.00000000000E+000,  0.10000000000E+001
  0.17592130000E+008,  0.21000000009E+007,  0.19000000000E+002,  0.00000000000E+000,  0.10000000000E+001
  0.17592255000E+008,  0.20999871699E+007,  0.19000000000E+002,  0.00000000000E+000,  0.10000000000E+001
  0.17592405000E+008,  0.20999219881E+007,  0.19000000000E+002,  0.00000000000E+000,  0.10000000000E+001
  0.17592555000E+008,  0.20997895865E+007,  0.19000000000E+002,  0.00000000000E+000,  0.10000000000E+001
  0.17592705000E+008,  0.20995902605E+007,  0.19000000000E+002,  0.00000000000E+000,  0.10000000000E+001
  0.17592855000E+008,  0.20993349140E+007,  0.19000000000E+002,  0.00000000000E+000,  0.10000000000E+001
  0.17593005000E+008,  0.20990373137E+007,  0.19000000000E+002,  0.00000000000E+000,  0.10000000000E+001
  0.17593155000E+008,  0.20987096729E+007,  0.19000000000E+002,  0.00000000000E+000,  0.10000000000E+001
  0.17593305000E+008,  0.20983611364E+007,  0.19000000000E+002,  0.00000000000E+000,  0.10000000000E+001
  0.17593455000E+008,  0.20979978893E+007,  0.19000000000E+002,  0.00000000000E+000,  0.10000000000E+001
  0.17593605000E+008,  0.20976238323E+007,  0.19000000000E+002,  0.00000000000E+000,  0.10000000000E+001
  0.17593755000E+008,  0.20972413202E+007,  0.19000000000E+002,  0.00000000000E+000,  0.10000000000E+001
  0.17593905000E+008,  0.20968517531E+007,  0.19000000000E+002,  0.00000000000E+000,  0.10000000000E+001
  0.17594055000E+008,  0.20964559864E+007,  0.19000000000E+002,  0.00000000000E+000,  0.10000000000E+001
  0.17594205000E+008,  0.20960545888E+007,  0.19000000000E+002,  0.00000000000E+000,  0.10000000000E+001
  0.17594355000E+008,  0.20956479927E+007,  0.19000000000E+002,  0.00000000000E+000,  0.10000000000E+001
  0.17594505000E+008,  0.20952365752E+007,  0.19000000000E+002,  0.00000000000E+000,  0.10000000000E+001
  0.17594655000E+008,  0.20948206977E+007,  0.19000000000E+002,  0.00000000000E+000,  0.10000000000E+001
  0.17594805000E+008,  0.20944007211E+007,  0.19000000000E+002,  0.00000000000E+000,  0.10000000000E+001
  0.17594955000E+008,  0.20939770099E+007,  0.19000000000E+002,  0.00000000000E+000,  0.10000000000E+001
  0.17595105000E+008,  0.20935499295E+007,  0.19000000000E+002,  0.00000000000E+000,  0.10000000000E+001
  0.17595255000E+008,  0.20931198424E+007,  0.19000000000E+002,  0.00000000000E+000,  0.10000000000E+001
  0.17595405000E+008,  0.20926871033E+007,  0.19000000000E+002,  0.00000000000E+000,  0.10000000000E+001
  0.17595555000E+008,  0.20922520555E+007,  0.19000000000E+002,  0.00000000000E+000,  0.10000000000E+001
  0.17595705000E+008,  0.20918150280E+007,  0.19000000000E+002,  0.00000000000E+000,  0.10000000000E+001
  0.17595855000E+008,  0.20913763337E+007,  0.19000000000E+002,  0.00000000000E+000,  0.10000000000E+001
  0.17596005000E+008,  0.20909362677E+007,  0.19000000000E+002,  0.00000000000E+000,  0.10000000000E+001
  0.17596155000E+008,  0.20904951073E+007,  0.19000000000E+002,  0.00000000000E+000,  0.10000000000E+001
  0.17596305000E+008,  0.20900531115E+007,  0.19000000000E+002,  0.00000000000E+000,  0.10000000000E+001
  0.17596455000E+008,  0.20896105215E+007,  0.19000000000E+002,  0.00000000000E+000,  0.10000000000E+001
  0.17596605000E+008,  0.20891675616E+007,  0.19000000000E+002,  0.00000000000E+000,  0.10000000000E+001
  0.17596755000E+008,  0.20887263485E+007,  0.19000000000E+002,  0.00000000000E+000,  0.10000000000E+001
  0.17596830000E+008,  0.20885072532E+007,  0.19000000000E+002,  0.00000000000E+000,  0.10000000000E+001
  0.17596867501E+008,  0.20883982250E+007,  0.19000000000E+002,  0.00000000000E+000,  0.10000000000E+001
  0.17596886251E+008,  0.20883438574E+007,  0.19000000000E+002,  0.00000000000E+000,  0.10000000000E+001
  0.17596980003E+008,  0.20880762147E+007,  0.19000000000E+002,  0.00000000000E+000,  0.10000000000E+001
  0.17597026879E+008,  0.20879434327E+007,  0.19000000000E+002,  0.00000000000E+000,  0.10000000000E+001
  0.17597176879E+008,  0.20875264054E+007,  0.19000000000E+002,  0.00000000000E+000,  0.10000000000E+001
  0.17597326879E+008,  0.20871149698E+007,  0.19000000000E+002,  0.00000000000E+000,  0.10000000000E+001
  0.17597401880E+008,  0.20869105525E+007,  0.19000000000E+002,  0.00000000000E+000,  0.10000000000E+001
  0.17597439380E+008,  0.20868086668E+007,  0.19000000000E+002,  0.00000000000E+000,  0.10000000000E+001
  0.17597589380E+008,  0.20864073938E+007,  0.19000000000E+002,  0.00000000000E+000,  0.10000000000E+001
  0.17597664381E+008,  0.20862084497E+007,  0.19000000000E+002,  0.00000000000E+000,  0.10000000000E+001
  0.17597814381E+008,  0.20858157803E+007,  0.19000000000E+002,  0.00000000000E+000,  0.10000000000E+001
  0.17597964381E+008,  0.20854266227E+007,  0.19000000000E+002,  0.00000000000E+000,  0.10000000000E+001
  0.17598039381E+008,  0.20852327705E+007,  0.19000000000E+002,  0.00000000000E+000,  0.10000000000E+001
  0.17598076882E+008,  0.20851360626E+007,  0.19000000000E+002,  0.00000000000E+000,  0.10000000000E+001
  0.17598095632E+008,  0.20850877713E+007,  0.19000000000E+002,  0.00000000000E+000,  0.10000000000E+001
  0.17598189384E+008,  0.20848483739E+007,  0.19000000000E+002,  0.00000000000E+000,  0.10000000000E+001
  0.17598339384E+008,  0.20844716425E+007,  0.19000000000E+002,  0.00000000000E+000,  0.10000000000E+001
  0.17598414384E+008,  0.20842847796E+007,  0.19000000000E+002,  0.00000000000E+000,  0.10000000000E+001
  0.17598564384E+008,  0.20839160474E+007,  0.19000000000E+002,  0.00000000000E+000,  0.10000000000E+001
  0.17598639385E+008,  0.20837329491E+007,  0.19000000000E+002,  0.00000000000E+000,  0.10000000000E+001
  0.17598676885E+008,  0.20836417382E+007,  0.19000000000E+002,  0.00000000000E+000,  0.10000000000E+001
  0.17598695636E+008,  0.20835962213E+007,  0.19000000000E+002,  0.00000000000E+000,  0.10000000000E+001
  0.17598789387E+008,  0.20833710170E+007,  0.19000000000E+002,  0.00000000000E+000,  0.10000000000E+001
  0.17598836264E+008,  0.20832590765E+007,  0.19000000000E+002,  0.00000000000E+000,  0.10000000000E+001
  0.17598859702E+008,  0.20832032794E+007,  0.19000000000E+002,  0.00000000000E+000,  0.10000000000E+001
  0.17598871421E+008,  0.20831754249E+007,  0.19000000000E+002,  0.00000000000E+000,  0.10000000000E+001
  0.17598930017E+008,  0.20830372004E+007,  0.19000000000E+002,  0.00000000000E+000,  0.10000000000E+001
  0.17599080017E+008,  0.20826884381E+007,  0.19000000000E+002,  0.00000000000E+000,  0.10000000000E+001
  0.17599230017E+008,  0.20823427596E+007,  0.19000000000E+002,  0.00000000000E+000,  0.10000000000E+001
  0.17599380017E+008,  0.20819988985E+007,  0.19000000000E+002,  0.00000000000E+000,  0.10000000000E+001
  0.17599530017E+008,  0.20816563952E+007,  0.19000000000E+002,  0.00000000000E+000,  0.10000000000E+001
  0.17599680017E+008,  0.20813153475E+007,  0.19000000000E+002,  0.00000000000E+000,  0.10000000000E+001
  0.17599830017E+008,  0.20809761618E+007,  0.19000000000E+002,  0.00000000000E+000,  0.10000000000E+001
  0.17599980017E+008,  0.20806393781E+007,  0.19000000000E+002,  0.00000000000E+000,  0.10000000000E+001
  0.17600130017E+008,  0.20803055622E+007,  0.19000000000E+002,  0.00000000000E+000,  0.10000000000E+001
  0.17600280017E+008,  0.20799752461E+007,  0.19000000000E+002,  0.00000000000E+000,  0.10000000000E+001
  0.17600430017E+008,  0.20796488988E+007,  0.19000000000E+002,  0.00000000000E+000,  0.10000000000E+001
  0.17600580017E+008,  0.20793269146E+007,  0.19000000000E+002,  0.00000000000E+000,  0.10000000000E+001
  0.17600730017E+008,  0.20790096112E+007,  0.19000000000E+002,  0.00000000000E+000,  0.10000000000E+001
  0.17600880017E+008,  0.20786972342E+007,  0.19000000000E+002,  0.00000000000E+000,  0.10000000000E+001
  0.17601030017E+008,  0.20783899635E+007,  0.19000000000E+002,  0.00000000000E+000,  0.10000000000E+001
  0.17601180017E+008,  0.20780879216E+007,  0.19000000000E+002,  0.00000000000E+000,  0.10000000000E+001
  0.17601330017E+008,  0.20777911816E+007,  0.19000000000E+002,  0.00000000000E+000,  0.10000000000E+001
  0.17601480017E+008,  0.20774997750E+007,  0.19000000000E+002,  0.00000000000E+000,  0.10000000000E+001
  0.17601630017E+008,  0.20772136993E+007,  0.19000000000E+002,  0.00000000000E+000,  0.10000000000E+001
  0.17601780017E+008,  0.20769329242E+007,  0.19000000000E+002,  0.00000000000E+000,  0.10000000000E+001
  0.17601930017E+008,  0.20766573973E+007,  0.19000000000E+002,  0.00000000000E+000,  0.10000000000E+001
  0.17602080017E+008,  0.20763870491E+007,  0.19000000000E+002,  0.00000000000E+000,  0.10000000000E+001
  0.17602230017E+008,  0.20761217972E+007,  0.19000000000E+002,  0.00000000000E+000,  0.10000000000E+001
  0.17602380017E+008,  0.20758615497E+007,  0.19000000000E+002,  0.00000000000E+000,  0.10000000000E+001
  0.17602530017E+008,  0.20756062080E+007,  0.19000000000E+002,  0.00000000000E+000,  0.10000000000E+001
  0.17602680017E+008,  0.20753556693E+007,  0.19000000000E+002,  0.00000000000E+000,  0.10000000000E+001
  0.17602830017E+008,  0.20751098282E+007,  0.19000000000E+002,  0.00000000000E+000,  0.10000000000E+001
  0.17602980017E+008,  0.20748685787E+007,  0.19000000000E+002,  0.00000000000E+000,  0.10000000000E+001
  0.17603130017E+008,  0.20746318146E+007,  0.19000000000E+002,  0.00000000000E+000,  0.10000000000E+001
  0.17603280017E+008,  0.20743994311E+007,  0.19000000000E+002,  0.00000000000E+000,  0.10000000000E+001
  0.17603430017E+008,  0.20741713252E+007,  0.19000000000E+002,  0.00000000000E+000,  0.10000000000E+001
  0.17603580017E+008,  0.20739473960E+007,  0.19000000000E+002,  0.00000000000E+000,  0.10000000000E+001
  0.17603730017E+008,  0.20737275452E+007,  0.19000000000E+002,  0.00000000000E+000,  0.10000000000E+001
  0.17603880017E+008,  0.20735116773E+007,  0.19000000000E+002,  0.00000000000E+000,  0.10000000000E+001
  0.17604030017E+008,  0.20732997000E+007,  0.19000000000E+002,  0.00000000000E+000,  0.10000000000E+001
  0.17604180017E+008,  0.20730915235E+007,  0.19000000000E+002,  0.00000000000E+000,  0.10000000000E+001
  0.17604330017E+008,  0.20728870614E+007,  0.19000000000E+002,  0.00000000000E+000,  0.10000000000E+001
  0.17604480017E+008,  0.20726862300E+007,  0.19000000000E+002,  0.00000000000E+000,  0.10000000000E+001
  0.17604630017E+008,  0.20724889486E+007,  0.19000000000E+002,  0.00000000000E+000,  0.10000000000E+001
  0.17604780017E+008,  0.20722951392E+007,  0.19000000000E+002,  0.00000000000E+000,  0.10000000000E+001
  0.17604930017E+008,  0.20721047266E+007,  0.19000000000E+002,  0.00000000000E+000,  0.10000000000E+001
  0.17605080017E+008,  0.20719176379E+007,  0.19000000000E+002,  0.00000000000E+000,  0.10000000000E+001
  0.17605230017E+008,  0.20717338030E+007,  0.19000000000E+002,  0.00000000000E+000,  0.10000000000E+001
  0.17605380017E+008,  0.20715531539E+007,  0.19000000000E+002,  0.00000000000E+000,  0.10000000000E+001
  0.17605530017E+008,  0.20713756248E+007,  0.19000000000E+002,  0.00000000000E+000,  0.10000000000E+001
  0.17605680017E+008,  0.20712011521E+007,  0.19000000000E+002,  0.00000000000E+000,  0.10000000000E+001
  0.17605830017E+008,  0.20710296741E+007,  0.19000000000E+002,  0.00000000000E+000,  0.10000000000E+001
  0.17605980017E+008,  0.20708611311E+007,  0.19000000000E+002,  0.00000000000E+000,  0.10000000000E+001
  0.17606130017E+008,  0.20706954650E+007,  0.19000000000E+002,  0.00000000000E+000,  0.10000000000E+001
  0.17606280017E+008,  0.20705326196E+007,  0.19000000000E+002,  0.00000000000E+000,  0.10000000000E+001
  0.17606430017E+008,  0.20703725400E+007,  0.19000000000E+002,  0.00000000000E+000,  0.10000000000E+001
  0.17606580017E+008,  0.20702151731E+007,  0.19000000000E+002,  0.00000000000E+000,  0.10000000000E+001
  0.17606730017E+008,  0.20700604671E+007,  0.19000000000E+002,  0.00000000000E+000,  0.10000000000E+001
  0.17606880017E+008,  0.20699083716E+007,  0.19000000000E+002,  0.00000000000E+000,  0.10000000000E+001
  0.17607030017E+008,  0.20697588374E+007,  0.19000000000E+002,  0.00000000000E+000,  0.10000000000E+001
  0.17607180017E+008,  0.20696118167E+007,  0.19000000000E+002,  0.00000000000E+000,  0.10000000000E+001
  0.17607330017E+008,  0.20694672628E+007,  0.19000000000E+002,  0.00000000000E+000,  0.10000000000E+001
  0.17607480017E+008,  0.20693251299E+007,  0.19000000000E+002,  0.00000000000E+000,  0.10000000000E+001
  0.17607630017E+008,  0.20691853738E+007,  0.19000000000E+002,  0.00000000000E+000,  0.10000000000E+001
  0.17607780017E+008,  0.20690479507E+007,  0.19000000000E+002,  0.00000000000E+000,  0.10000000000E+001
  0.17607930017E+008,  0.20689128182E+007,  0.19000000000E+002,  0.00000000000E+000,  0.10000000000E+001
  0.17608080017E+008,  0.20687799348E+007,  0.19000000000E+002,  0.00000000000E+000,  0.10000000000E+001
  0.17608230017E+008,  0.20686492598E+007,  0.19000000000E+002,  0.00000000000E+000,  0.10000000000E+001
  0.17608380017E+008,  0.20685207533E+007,  0.19000000000E+002,  0.00000000000E+000,  0.10000000000E+001
  0.17608530017E+008,  0.20683943765E+007,  0.19000000000E+002,  0.00000000000E+000,  0.10000000000E+001
  0.17608680017E+008,  0.20682700912E+007,  0.19000000000E+002,  0.00000000000E+000,  0.10000000000E+001
  0.17608830017E+008,  0.20681478600E+007,  0.19000000000E+002,  0.00000000000E+000,  0.10000000000E+001
  0.17608980017E+008,  0.20680276464E+007,  0.19000000000E+002,  0.00000000000E+000,  0.10000000000E+001
  0.17609130017E+008,  0.20679094145E+007,  0.19000000000E+002,  0.00000000000E+000,  0.10000000000E+001
  0.17609280017E+008,  0.20677931291E+007,  0.19000000000E+002,  0.00000000000E+000,  0.10000000000E+001
  0.17609430017E+008,  0.20676787557E+007,  0.19000000000E+002,  0.00000000000E+000,  0.10000000000E+001
  0.17609580017E+008,  0.20675662607E+007,  0.19000000000E+002,  0.00000000000E+000,  0.10000000000E+001
  0.17609730017E+008,  0.20674556107E+007,  0.19000000000E+002,  0.00000000000E+000,  0.10000000000E+001
  0.17609880017E+008,  0.20673467734E+007,  0.19000000000E+002,  0.00000000000E+000,  0.10000000000E+001
  0.17610030017E+008,  0.20672397169E+007,  0.19000000000E+002,  0.00000000000E+000,  0.10000000000E+001
  0.17610180017E+008,  0.20671344098E+007,  0.19000000000E+002,  0.00000000000E+000,  0.10000000000E+001
  0.17610330017E+008,  0.20670308215E+007,  0.19000000000E+002,  0.00000000000E+000,  0.10000000000E+001
  0.17610480017E+008,  0.20669289218E+007,  0.19000000000E+002,  0.00000000000E+000,  0.10000000000E+001
  0.17610630017E+008,  0.20668286812E+007,  0.19000000000E+002,  0.00000000000E+000,  0.10000000000E+001
  0.17610780017E+008,  0.20667300705E+007,  0.19000000000E+002,  0.00000000000E+000,  0.10000000000E+001
  0.17610930017E+008,  0.20666330614E+007,  0.19000000000E+002,  0.00000000000E+000,  0.10000000000E+001
  0.17611080017E+008,  0.20665376259E+007,  0.19000000000E+002,  0.00000000000E+000,  0.10000000000E+001
  0.17611230017E+008,  0.20664437364E+007,  0.19000000000E+002,  0.00000000000E+000,  0.10000000000E+001
  0.17611380017E+008,  0.20663513660E+007,  0.19000000000E+002,  0.00000000000E+000,  0.10000000000E+001
  0.17611530017E+008,  0.20662604882E+007,  0.19000000000E+002,  0.00000000000E+000,  0.10000000000E+001
  0.17611680017E+008,  0.20661710770E+007,  0.19000000000E+002,  0.00000000000E+000,  0.10000000000E+001
  0.17611830017E+008,  0.20660831069E+007,  0.19000000000E+002,  0.00000000000E+000,  0.10000000000E+001
  0.17611980017E+008,  0.20659965528E+007,  0.19000000000E+002,  0.00000000000E+000,  0.10000000000E+001
  0.17612130017E+008,  0.20659113900E+007,  0.19000000000E+002,  0.00000000000E+000,  0.10000000000E+001
  0.17612280017E+008,  0.20658275943E+007,  0.19000000000E+002,  0.00000000000E+000,  0.10000000000E+001
  0.17612430017E+008,  0.20657451420E+007,  0.19000000000E+002,  0.00000000000E+000,  0.10000000000E+001
  0.17612580017E+008,  0.20656640097E+007,  0.19000000000E+002,  0.00000000000E+000,  0.10000000000E+001
  0.17612730017E+008,  0.20655841744E+007,  0.19000000000E+002,  0.00000000000E+000,  0.10000000000E+001
  0.17612880017E+008,  0.20655056137E+007,  0.19000000000E+002,  0.00000000000E+000,  0.10000000000E+001
  0.17613030017E+008,  0.20654283054E+007,  0.19000000000E+002,  0.00000000000E+000,  0.10000000000E+001
  0.17613180017E+008,  0.20653522277E+007,  0.19000000000E+002,  0.00000000000E+000,  0.10000000000E+001
  0.17613330017E+008,  0.20652773593E+007,  0.19000000000E+002,  0.00000000000E+000,  0.10000000000E+001
  0.17613480017E+008,  0.20652036792E+007,  0.19000000000E+002,  0.00000000000E+000,  0.10000000000E+001
  0.17613630017E+008,  0.20651311668E+007,  0.19000000000E+002,  0.00000000000E+000,  0.10000000000E+001
  0.17613780017E+008,  0.20650598019E+007,  0.19000000000E+002,  0.00000000000E+000,  0.10000000000E+001
  0.17613930017E+008,  0.20649895644E+007,  0.19000000000E+002,  0.00000000000E+000,  0.10000000000E+001
  0.17614080017E+008,  0.20649204349E+007,  0.19000000000E+002,  0.00000000000E+000,  0.10000000000E+001
  0.17614230017E+008,  0.20648523941E+007,  0.19000000000E+002,  0.00000000000E+000,  0.10000000000E+001
  0.17614380017E+008,  0.20647854233E+007,  0.19000000000E+002,  0.00000000000E+000,  0.10000000000E+001
  0.17614530017E+008,  0.20647195041E+007,  0.19000000000E+002,  0.00000000000E+000,  0.10000000000E+001
  0.17614680017E+008,  0.20646546175E+007,  0.19000000000E+002,  0.00000000000E+000,  0.10000000000E+001
  0.17614830017E+008,  0.20645907463E+007,  0.19000000000E+002,  0.00000000000E+000,  0.10000000000E+001
  0.17614980017E+008,  0.20645278721E+007,  0.19000000000E+002,  0.00000000000E+000,  0.10000000000E+001
  0.17615130017E+008,  0.20644659784E+007,  0.19000000000E+002,  0.00000000000E+000,  0.10000000000E+001
  0.17615280017E+008,  0.20644050479E+007,  0.19000000000E+002,  0.00000000000E+000,  0.10000000000E+001
  0.17615430017E+008,  0.20643450642E+007,  0.19000000000E+002,  0.00000000000E+000,  0.10000000000E+001
  0.17615580017E+008,  0.20642860104E+007,  0.19000000000E+002,  0.00000000000E+000,  0.10000000000E+001
  0.17615730017E+008,  0.20642278710E+007,  0.19000000000E+002,  0.00000000000E+000,  0.10000000000E+001
  0.17615880017E+008,  0.20641706296E+007,  0.19000000000E+002,  0.00000000000E+000,  0.10000000000E+001
  0.17616030017E+008,  0.20641142712E+007,  0.19000000000E+002,  0.00000000000E+000,  0.10000000000E+001
  0.17616180017E+008,  0.20640587799E+007,  0.19000000000E+002,  0.00000000000E+000,  0.10000000000E+001
  0.17616330017E+008,  0.20640041413E+007,  0.19000000000E+002,  0.00000000000E+000,  0.10000000000E+001
  0.17616480017E+008,  0.20639503401E+007,  0.19000000000E+002,  0.00000000000E+000,  0.10000000000E+001
  0.17616630017E+008,  0.20638973622E+007,  0.19000000000E+002,  0.00000000000E+000,  0.10000000000E+001
  0.17616780017E+008,  0.20638451930E+007,  0.19000000000E+002,  0.00000000000E+000,  0.10000000000E+001
  0.17616930017E+008,  0.20637938188E+007,  0.19000000000E+002,  0.00000000000E+000,  0.10000000000E+001
  0.17617080017E+008,  0.20637432256E+007,  0.19000000000E+002,  0.00000000000E+000,  0.10000000000E+001
  0.17617230017E+008,  0.20636934000E+007,  0.19000000000E+002,  0.00000000000E+000,  0.10000000000E+001
  0.17617380017E+008,  0.20636443287E+007,  0.19000000000E+002,  0.00000000000E+000,  0.10000000000E+001
  0.17617530017E+008,  0.20635959986E+007,  0.19000000000E+002,  0.00000000000E+000,  0.10000000000E+001
  0.17617680017E+008,  0.20635483969E+007,  0.19000000000E+002,  0.00000000000E+000,  0.10000000000E+001
  0.17617830017E+008,  0.20635015110E+007,  0.19000000000E+002,  0.00000000000E+000,  0.10000000000E+001
  0.17617980017E+008,  0.20634553284E+007,  0.19000000000E+002,  0.00000000000E+000,  0.10000000000E+001
  0.17618130017E+008,  0.20634098370E+007,  0.19000000000E+002,  0.00000000000E+000,  0.10000000000E+001
