"           TIME(S)","              PRES","              TEMP","             SAT_G","             SAT_L"
  0.18228700500E+008,  0.20000000000E+007,  0.19000000000E+002,  0.00000000000E+000,  0.10000000000E+001
  0.18228702500E+008,  0.20000000176E+007,  0.19000000000E+002,  0.00000000000E+000,  0.10000000000E+001
  0.18228704500E+008,  0.20000001009E+007,  0.19000000000E+002,  0.00000000000E+000,  0.10000000000E+001
  0.18228706500E+008,  0.20000003240E+007,  0.19000000000E+002,  0.00000000000E+000,  0.10000000000E+001
  0.18228708500E+008,  0.20000007689E+007,  0.19000000000E+002,  0.00000000000E+000,  0.10000000000E+001
  0.18228710500E+008,  0.20000015070E+007,  0.19000000000E+002,  0.00000000000E+000,  0.10000000000E+001
  0.18228712500E+008,  0.20000025868E+007,  0.19000000000E+002,  0.00000000000E+000,  0.10000000000E+001
  0.18228714500E+008,  0.20000040307E+007,  0.19000000000E+002,  0.00000000000E+000,  0.10000000000E+001
  0.18228716500E+008,  0.20000058376E+007,  0.19000000000E+002,  0.00000000000E+000,  0.10000000000E+001
  0.18228718500E+008,  0.20000079886E+007,  0.19000000000E+002,  0.00000000000E+000,  0.10000000000E+001
  0.18228720500E+008,  0.20000104534E+007,  0.19000000000E+002,  0.00000000000E+000,  0.10000000000E+001
  0.18228722500E+008,  0.20000131962E+007,  0.19000000000E+002,  0.00000000000E+000,  0.10000000000E+001
  0.18228724500E+008,  0.20000161794E+007,  0.19000000000E+002,  0.00000000000E+000,  0.10000000000E+001
  0.18228726500E+008,  0.20000193668E+007,  0.19000000000E+002,  0.00000000000E+000,  0.10000000000E+001
  0.18228728500E+008,  0.20000227251E+007,  0.19000000000E+002,  0.00000000000E+000,  0.10000000000E+001
  0.18228730500E+008,  0.20000262246E+007,  0.19000000000E+002,  0.00000000000E+000,  0.10000000000E+001
  0.18228732500E+008,  0.20000298396E+007,  0.19000000000E+002,  0.00000000000E+000,  0.10000000000E+001
  0.18228734500E+008,  0.20000335483E+007,  0.19000000000E+002,  0.00000000000E+000,  0.10000000000E+001
  0.18228736500E+008,  0.20000373320E+007,  0.19000000000E+002,  0.00000000000E+000,  0.10000000000E+001
  0.18228738500E+008,  0.20000411757E+007,  0.19000000000E+002,  0.00000000000E+000,  0.10000000000E+001
  0.18228740500E+008,  0.20000450666E+007,  0.19000000000E+002,  0.00000000000E+000,  0.10000000000E+001
  0.18228742500E+008,  0.20000489944E+007,  0.19000000000E+002,  0.00000000000E+000,  0.10000000000E+001
  0.18228744500E+008,  0.20000529506E+007,  0.19000000000E+002,  0.00000000000E+000,  0.10000000000E+001
  0.18228746500E+008,  0.20000569284E+007,  0.19000000000E+002,  0.00000000000E+000,  0.10000000000E+001
  0.18228748500E+008,  0.20000609223E+007,  0.19000000000E+002,  0.00000000000E+000,  0.10000000000E+001
  0.18228750500E+008,  0.20000649278E+007,  0.19000000000E+002,  0.00000000000E+000,  0.10000000000E+001
  0.18228752500E+008,  0.20000689414E+007,  0.19000000000E+002,  0.00000000000E+000,  0.10000000000E+001
  0.18228754500E+008,  0.20000729602E+007,  0.19000000000E+002,  0.00000000000E+000,  0.10000000000E+001
  0.18228756500E+008,  0.20000769822E+007,  0.19000000000E+002,  0.00000000000E+000,  0.10000000000E+001
  0.18228758500E+008,  0.20000810054E+007,  0.19000000000E+002,  0.00000000000E+000,  0.10000000000E+001
  0.18228760500E+008,  0.20000850286E+007,  0.19000000000E+002,  0.00000000000E+000,  0.10000000000E+001
  0.18228762500E+008,  0.20000890507E+007,  0.19000000000E+002,  0.00000000000E+000,  0.10000000000E+001
  0.18228764500E+008,  0.20000930711E+007,  0.19000000000E+002,  0.00000000000E+000,  0.10000000000E+001
  0.18228766500E+008,  0.20000970891E+007,  0.19000000000E+002,  0.00000000000E+000,  0.10000000000E+001
  0.18228768500E+008,  0.20001011043E+007,  0.19000000000E+002,  0.00000000000E+000,  0.10000000000E+001
  0.18228770500E+008,  0.20001051165E+007,  0.19000000000E+002,  0.00000000000E+000,  0.10000000000E+001
  0.18228772500E+008,  0.20001091255E+007,  0.19000000000E+002,  0.00000000000E+000,  0.10000000000E+001
  0.18228774500E+008,  0.20001131313E+007,  0.19000000000E+002,  0.00000000000E+000,  0.10000000000E+001
  0.18228776500E+008,  0.20001171339E+007,  0.19000000000E+002,  0.00000000000E+000,  0.10000000000E+001
  0.18228778500E+008,  0.20001211333E+007,  0.19000000000E+002,  0.00000000000E+000,  0.10000000000E+001
  0.18228780500E+008,  0.20001251296E+007,  0.19000000000E+002,  0.00000000000E+000,  0.10000000000E+001
  0.18228782500E+008,  0.20001291229E+007,  0.19000000000E+002,  0.00000000000E+000,  0.10000000000E+001
  0.18228784500E+008,  0.20001331134E+007,  0.19000000000E+002,  0.00000000000E+000,  0.10000000000E+001
  0.18228786500E+008,  0.20001371013E+007,  0.19000000000E+002,  0.00000000000E+000,  0.10000000000E+001
  0.18228788500E+008,  0.20001410867E+007,  0.19000000000E+002,  0.00000000000E+000,  0.10000000000E+001
  0.18228790500E+008,  0.20001450698E+007,  0.19000000000E+002,  0.00000000000E+000,  0.10000000000E+001
  0.18228792500E+008,  0.20001490508E+007,  0.19000000000E+002,  0.00000000000E+000,  0.10000000000E+001
  0.18228794500E+008,  0.20001530298E+007,  0.19000000000E+002,  0.00000000000E+000,  0.10000000000E+001
  0.18228796500E+008,  0.20001570071E+007,  0.19000000000E+002,  0.00000000000E+000,  0.10000000000E+001
  0.18228798500E+008,  0.20001609828E+007,  0.19000000000E+002,  0.00000000000E+000,  0.10000000000E+001
  0.18228800500E+008,  0.20001649571E+007,  0.19000000000E+002,  0.00000000000E+000,  0.10000000000E+001
  0.18228802500E+008,  0.20001689301E+007,  0.19000000000E+002,  0.00000000000E+000,  0.10000000000E+001
  0.18228804500E+008,  0.20001729020E+007,  0.19000000000E+002,  0.00000000000E+000,  0.10000000000E+001
  0.18228806500E+008,  0.20001768730E+007,  0.19000000000E+002,  0.00000000000E+000,  0.10000000000E+001
  0.18228808500E+008,  0.20001808431E+007,  0.19000000000E+002,  0.00000000000E+000,  0.10000000000E+001
  0.18228810500E+008,  0.20001848126E+007,  0.19000000000E+002,  0.00000000000E+000,  0.10000000000E+001
  0.18228812500E+008,  0.20001887815E+007,  0.19000000000E+002,  0.00000000000E+000,  0.10000000000E+001
  0.18228814500E+008,  0.20001927499E+007,  0.19000000000E+002,  0.00000000000E+000,  0.10000000000E+001
  0.18228816500E+008,  0.20001967180E+007,  0.19000000000E+002,  0.00000000000E+000,  0.10000000000E+001
  0.18228818500E+008,  0.20002006859E+007,  0.19000000000E+002,  0.00000000000E+000,  0.10000000000E+001
  0.18228820500E+008,  0.20002046536E+007,  0.19000000000E+002,  0.00000000000E+000,  0.10000000000E+001
  0.18228822500E+008,  0.20002086212E+007,  0.19000000000E+002,  0.00000000000E+000,  0.10000000000E+001
  0.18228824500E+008,  0.20002125888E+007,  0.19000000000E+002,  0.00000000000E+000,  0.10000000000E+001
  0.18228826500E+008,  0.20002165565E+007,  0.19000000000E+002,  0.00000000000E+000,  0.10000000000E+001
  0.18228828500E+008,  0.20002205244E+007,  0.19000000000E+002,  0.00000000000E+000,  0.10000000000E+001
  0.18228830500E+008,  0.20002244923E+007,  0.19000000000E+002,  0.00000000000E+000,  0.10000000000E+001
  0.18228832500E+008,  0.20002284605E+007,  0.19000000000E+002,  0.00000000000E+000,  0.10000000000E+001
  0.18228834500E+008,  0.20002324290E+007,  0.19000000000E+002,  0.00000000000E+000,  0.10000000000E+001
  0.18228836500E+008,  0.20002363978E+007,  0.19000000000E+002,  0.00000000000E+000,  0.10000000000E+001
  0.18228838500E+008,  0.20002403670E+007,  0.19000000000E+002,  0.00000000000E+000,  0.10000000000E+001
  0.18228840500E+008,  0.20002443365E+007,  0.19000000000E+002,  0.00000000000E+000,  0.10000000000E+001
  0.18228842500E+008,  0.20002483064E+007,  0.19000000000E+002,  0.00000000000E+000,  0.10000000000E+001
  0.18228844500E+008,  0.20002522767E+007,  0.19000000000E+002,  0.00000000000E+000,  0.10000000000E+001
  0.18228846500E+008,  0.20002562474E+007,  0.19000000000E+002,  0.00000000000E+000,  0.10000000000E+001
  0.18228848500E+008,  0.20002602184E+007,  0.19000000000E+002,  0.00000000000E+000,  0.10000000000E+001
  0.18228850500E+008,  0.20002641900E+007,  0.19000000000E+002,  0.00000000000E+000,  0.10000000000E+001
  0.18228852500E+008,  0.20002681619E+007,  0.19000000000E+002,  0.00000000000E+000,  0.10000000000E+001
  0.18228854500E+008,  0.20002721342E+007,  0.19000000000E+002,  0.00000000000E+000,  0.10000000000E+001
  0.18228856500E+008,  0.20002761070E+007,  0.19000000000E+002,  0.00000000000E+000,  0.10000000000E+001
  0.18228858500E+008,  0.20002800802E+007,  0.19000000000E+002,  0.00000000000E+000,  0.10000000000E+001
  0.18228860500E+008,  0.20002840537E+007,  0.19000000000E+002,  0.00000000000E+000,  0.10000000000E+001
  0.18228862500E+008,  0.20002880276E+007,  0.19000000000E+002,  0.00000000000E+000,  0.10000000000E+001
  0.18228864500E+008,  0.20002920019E+007,  0.19000000000E+002,  0.00000000000E+000,  0.10000000000E+001
  0.18228866500E+008,  0.20002959765E+007,  0.19000000000E+002,  0.00000000000E+000,  0.10000000000E+001
  0.18228868500E+008,  0.20002999514E+007,  0.19000000000E+002,  0.00000000000E+000,  0.10000000000E+001
  0.18228870500E+008,  0.20003039265E+007,  0.19000000000E+002,  0.00000000000E+000,  0.10000000000E+001
  0.18228872500E+008,  0.20003079020E+007,  0.19000000000E+002,  0.00000000000E+000,  0.10000000000E+001
  0.18228874500E+008,  0.20003118776E+007,  0.19000000000E+002,  0.00000000000E+000,  0.10000000000E+001
  0.18228876500E+008,  0.20003158535E+007,  0.19000000000E+002,  0.00000000000E+000,  0.10000000000E+001
  0.18228878500E+008,  0.20003198296E+007,  0.19000000000E+002,  0.00000000000E+000,  0.10000000000E+001
  0.18228880500E+008,  0.20003238057E+007,  0.19000000000E+002,  0.00000000000E+000,  0.10000000000E+001
  0.18228882500E+008,  0.20003277820E+007,  0.19000000000E+002,  0.00000000000E+000,  0.10000000000E+001
  0.18228884500E+008,  0.20003317584E+007,  0.19000000000E+002,  0.00000000000E+000,  0.10000000000E+001
  0.18228886500E+008,  0.20003357348E+007,  0.19000000000E+002,  0.00000000000E+000,  0.10000000000E+001
  0.18228888500E+008,  0.20003397112E+007,  0.19000000000E+002,  0.00000000000E+000,  0.10000000000E+001
  0.18228890500E+008,  0.20003436876E+007,  0.19000000000E+002,  0.00000000000E+000,  0.10000000000E+001
  0.18228892500E+008,  0.20003476639E+007,  0.19000000000E+002,  0.00000000000E+000,  0.10000000000E+001
  0.18228894500E+008,  0.20003516401E+007,  0.19000000000E+002,  0.00000000000E+000,  0.10000000000E+001
  0.18228896500E+008,  0.20003556161E+007,  0.19000000000E+002,  0.00000000000E+000,  0.10000000000E+001
  0.18228898500E+008,  0.20003595920E+007,  0.19000000000E+002,  0.00000000000E+000,  0.10000000000E+001
  0.18228900500E+008,  0.20003635677E+007,  0.19000000000E+002,  0.00000000000E+000,  0.10000000000E+001
  0.18228902500E+008,  0.20003675430E+007,  0.19000000000E+002,  0.00000000000E+000,  0.10000000000E+001
  0.18228904500E+008,  0.20003715180E+007,  0.19000000000E+002,  0.00000000000E+000,  0.10000000000E+001
  0.18228906500E+008,  0.20003754927E+007,  0.19000000000E+002,  0.00000000000E+000,  0.10000000000E+001
  0.18228908500E+008,  0.20003794671E+007,  0.19000000000E+002,  0.00000000000E+000,  0.10000000000E+001
  0.18228910500E+008,  0.20003834410E+007,  0.19000000000E+002,  0.00000000000E+000,  0.10000000000E+001
  0.18228912500E+008,  0.20003874144E+007,  0.19000000000E+002,  0.00000000000E+000,  0.10000000000E+001
  0.18228914500E+008,  0.20003913873E+007,  0.19000000000E+002,  0.00000000000E+000,  0.10000000000E+001
  0.18228916500E+008,  0.20003953597E+007,  0.19000000000E+002,  0.00000000000E+000,  0.10000000000E+001
  0.18228918500E+008,  0.20003993315E+007,  0.19000000000E+002,  0.00000000000E+000,  0.10000000000E+001
  0.18228920500E+008,  0.20004033026E+007,  0.19000000000E+002,  0.00000000000E+000,  0.10000000000E+001
  0.18228922500E+008,  0.20004072731E+007,  0.19000000000E+002,  0.00000000000E+000,  0.10000000000E+001
  0.18228924500E+008,  0.20004112428E+007,  0.19000000000E+002,  0.00000000000E+000,  0.10000000000E+001
  0.18228926500E+008,  0.20004152118E+007,  0.19000000000E+002,  0.00000000000E+000,  0.10000000000E+001
  0.18228928500E+008,  0.20004191799E+007,  0.19000000000E+002,  0.00000000000E+000,  0.10000000000E+001
  0.18228930500E+008,  0.20004231472E+007,  0.19000000000E+002,  0.00000000000E+000,  0.10000000000E+001
  0.18228932500E+008,  0.20004271137E+007,  0.19000000000E+002,  0.00000000000E+000,  0.10000000000E+001
  0.18228934500E+008,  0.20004310792E+007,  0.19000000000E+002,  0.00000000000E+000,  0.10000000000E+001
  0.18228936500E+008,  0.20004350438E+007,  0.19000000000E+002,  0.00000000000E+000,  0.10000000000E+001
  0.18228938500E+008,  0.20004390073E+007,  0.19000000000E+002,  0.00000000000E+000,  0.10000000000E+001
  0.18228940500E+008,  0.20004429698E+007,  0.19000000000E+002,  0.00000000000E+000,  0.10000000000E+001
  0.18228942500E+008,  0.20004469313E+007,  0.19000000000E+002,  0.00000000000E+000,  0.10000000000E+001
  0.18228944500E+008,  0.20004508916E+007,  0.19000000000E+002,  0.00000000000E+000,  0.10000000000E+001
  0.18228946500E+008,  0.20004548507E+007,  0.19000000000E+002,  0.00000000000E+000,  0.10000000000E+001
  0.18228948500E+008,  0.20004588086E+007,  0.19000000000E+002,  0.00000000000E+000,  0.10000000000E+001
  0.18228950500E+008,  0.20004627654E+007,  0.19000000000E+002,  0.00000000000E+000,  0.10000000000E+001
  0.18228952500E+008,  0.20004667208E+007,  0.19000000000E+002,  0.00000000000E+000,  0.10000000000E+001
  0.18228954500E+008,  0.20004706749E+007,  0.19000000000E+002,  0.00000000000E+000,  0.10000000000E+001
  0.18228956500E+008,  0.20004746276E+007,  0.19000000000E+002,  0.00000000000E+000,  0.10000000000E+001
  0.18228958500E+008,  0.20004785790E+007,  0.19000000000E+002,  0.00000000000E+000,  0.10000000000E+001
  0.18228960500E+008,  0.20004825289E+007,  0.19000000000E+002,  0.00000000000E+000,  0.10000000000E+001
  0.18228962500E+008,  0.20004864773E+007,  0.19000000000E+002,  0.00000000000E+000,  0.10000000000E+001
  0.18228964500E+008,  0.20004904243E+007,  0.19000000000E+002,  0.00000000000E+000,  0.10000000000E+001
  0.18228966500E+008,  0.20004943697E+007,  0.19000000000E+002,  0.00000000000E+000,  0.10000000000E+001
  0.18228968500E+008,  0.20004983135E+007,  0.19000000000E+002,  0.00000000000E+000,  0.10000000000E+001
  0.18228970500E+008,  0.20005022558E+007,  0.19000000000E+002,  0.00000000000E+000,  0.10000000000E+001
  0.18228972500E+008,  0.20005061963E+007,  0.19000000000E+002,  0.00000000000E+000,  0.10000000000E+001
  0.18228974500E+008,  0.20005101352E+007,  0.19000000000E+002,  0.00000000000E+000,  0.10000000000E+001
  0.18228976500E+008,  0.20005140724E+007,  0.19000000000E+002,  0.00000000000E+000,  0.10000000000E+001
  0.18228978500E+008,  0.20005180078E+007,  0.19000000000E+002,  0.00000000000E+000,  0.10000000000E+001
  0.18228980500E+008,  0.20005219415E+007,  0.19000000000E+002,  0.00000000000E+000,  0.10000000000E+001
  0.18228982500E+008,  0.20005258733E+007,  0.19000000000E+002,  0.00000000000E+000,  0.10000000000E+001
  0.18228984500E+008,  0.20005298033E+007,  0.19000000000E+002,  0.00000000000E+000,  0.10000000000E+001
  0.18228986500E+008,  0.20005337313E+007,  0.19000000000E+002,  0.00000000000E+000,  0.10000000000E+001
  0.18228988500E+008,  0.20005376575E+007,  0.19000000000E+002,  0.00000000000E+000,  0.10000000000E+001
  0.18228990500E+008,  0.20005415817E+007,  0.19000000000E+002,  0.00000000000E+000,  0.10000000000E+001
  0.18228992500E+008,  0.20005455039E+007,  0.19000000000E+002,  0.00000000000E+000,  0.10000000000E+001
  0.18228994500E+008,  0.20005494242E+007,  0.19000000000E+002,  0.00000000000E+000,  0.10000000000E+001
  0.18228996500E+008,  0.20005533423E+007,  0.19000000000E+002,  0.00000000000E+000,  0.10000000000E+001
  0.18228998500E+008,  0.20005572584E+007,  0.19000000000E+002,  0.00000000000E+000,  0.10000000000E+001
  0.18229000500E+008,  0.20005611725E+007,  0.19000000000E+002,  0.00000000000E+000,  0.10000000000E+001
  0.18229002500E+008,  0.20005650843E+007,  0.19000000000E+002,  0.00000000000E+000,  0.10000000000E+001
  0.18229004500E+008,  0.20005689940E+007,  0.19000000000E+002,  0.00000000000E+000,  0.10000000000E+001
  0.18229006500E+008,  0.20005729016E+007,  0.19000000000E+002,  0.00000000000E+000,  0.10000000000E+001
  0.18229008500E+008,  0.20005768069E+007,  0.19000000000E+002,  0.00000000000E+000,  0.10000000000E+001
  0.18229010500E+008,  0.20005807099E+007,  0.19000000000E+002,  0.00000000000E+000,  0.10000000000E+001
  0.18229012500E+008,  0.20005846107E+007,  0.19000000000E+002,  0.00000000000E+000,  0.10000000000E+001
  0.18229014500E+008,  0.20005885092E+007,  0.19000000000E+002,  0.00000000000E+000,  0.10000000000E+001
  0.18229016500E+008,  0.20005924053E+007,  0.19000000000E+002,  0.00000000000E+000,  0.10000000000E+001
  0.18229018500E+008,  0.20005962991E+007,  0.19000000000E+002,  0.00000000000E+000,  0.10000000000E+001
  0.18229020500E+008,  0.20006001904E+007,  0.19000000000E+002,  0.00000000000E+000,  0.10000000000E+001
  0.18229022500E+008,  0.20006040794E+007,  0.19000000000E+002,  0.00000000000E+000,  0.10000000000E+001
  0.18229024500E+008,  0.20006079659E+007,  0.19000000000E+002,  0.00000000000E+000,  0.10000000000E+001
  0.18229026500E+008,  0.20006118500E+007,  0.19000000000E+002,  0.00000000000E+000,  0.10000000000E+001
  0.18229028500E+008,  0.20006157316E+007,  0.19000000000E+002,  0.00000000000E+000,  0.10000000000E+001
  0.18229030500E+008,  0.20006196106E+007,  0.19000000000E+002,  0.00000000000E+000,  0.10000000000E+001
  0.18229032500E+008,  0.20006234872E+007,  0.19000000000E+002,  0.00000000000E+000,  0.10000000000E+001
  0.18229034500E+008,  0.20006273611E+007,  0.19000000000E+002,  0.00000000000E+000,  0.10000000000E+001
  0.18229036500E+008,  0.20006312325E+007,  0.19000000000E+002,  0.00000000000E+000,  0.10000000000E+001
  0.18229038500E+008,  0.20006351012E+007,  0.19000000000E+002,  0.00000000000E+000,  0.10000000000E+001
  0.18229040500E+008,  0.20006389673E+007,  0.19000000000E+002,  0.00000000000E+000,  0.10000000000E+001
  0.18229042500E+008,  0.20006428308E+007,  0.19000000000E+002,  0.00000000000E+000,  0.10000000000E+001
  0.18229044500E+008,  0.20006466915E+007,  0.19000000000E+002,  0.00000000000E+000,  0.10000000000E+001
  0.18229046500E+008,  0.20006505496E+007,  0.19000000000E+002,  0.00000000000E+000,  0.10000000000E+001
  0.18229048500E+008,  0.20006544050E+007,  0.19000000000E+002,  0.00000000000E+000,  0.10000000000E+001
  0.18229050500E+008,  0.20006582576E+007,  0.19000000000E+002,  0.00000000000E+000,  0.10000000000E+001
  0.18229052500E+008,  0.20006621074E+007,  0.19000000000E+002,  0.00000000000E+000,  0.10000000000E+001
  0.18229054500E+008,  0.20006659544E+007,  0.19000000000E+002,  0.00000000000E+000,  0.10000000000E+001
  0.18229056500E+008,  0.20006697987E+007,  0.19000000000E+002,  0.00000000000E+000,  0.10000000000E+001
  0.18229058500E+008,  0.20006736400E+007,  0.19000000000E+002,  0.00000000000E+000,  0.10000000000E+001
  0.18229060500E+008,  0.20006774786E+007,  0.19000000000E+002,  0.00000000000E+000,  0.10000000000E+001
  0.18229062500E+008,  0.20006813142E+007,  0.19000000000E+002,  0.00000000000E+000,  0.10000000000E+001
  0.18229064500E+008,  0.20006851470E+007,  0.19000000000E+002,  0.00000000000E+000,  0.10000000000E+001
  0.18229066500E+008,  0.20006889768E+007,  0.19000000000E+002,  0.00000000000E+000,  0.10000000000E+001
  0.18229068500E+008,  0.20006928037E+007,  0.19000000000E+002,  0.00000000000E+000,  0.10000000000E+001
  0.18229070500E+008,  0.20006966277E+007,  0.19000000000E+002,  0.00000000000E+000,  0.10000000000E+001
  0.18229072500E+008,  0.20007004487E+007,  0.19000000000E+002,  0.00000000000E+000,  0.10000000000E+001
  0.18229074500E+008,  0.20007042667E+007,  0.19000000000E+002,  0.00000000000E+000,  0.10000000000E+001
  0.18229076500E+008,  0.20007080817E+007,  0.19000000000E+002,  0.00000000000E+000,  0.10000000000E+001
