"           TIME(S)","              PRES","              TEMP","             SAT_G","             SAT_L"
  0.17962950000E+008,  0.20999815522E+007,  0.19000000000E+002,  0.00000000000E+000,  0.10000000000E+001
  0.17963100000E+008,  0.20993962783E+007,  0.19000000000E+002,  0.00000000000E+000,  0.10000000000E+001
  0.17963250000E+008,  0.20983945511E+007,  0.19000000000E+002,  0.00000000000E+000,  0.10000000000E+001
  0.17963400000E+008,  0.20972121339E+007,  0.19000000000E+002,  0.00000000000E+000,  0.10000000000E+001
  0.17963550000E+008,  0.20960163267E+007,  0.19000000000E+002,  0.00000000000E+000,  0.10000000000E+001
  0.17963700000E+008,  0.20948874703E+007,  0.19000000000E+002,  0.00000000000E+000,  0.10000000000E+001
  0.17963850000E+008,  0.20938505762E+007,  0.19000000000E+002,  0.00000000000E+000,  0.10000000000E+001
  0.17964000000E+008,  0.20929040473E+007,  0.19000000000E+002,  0.00000000000E+000,  0.10000000000E+001
  0.17964150000E+008,  0.20920363946E+007,  0.19000000000E+002,  0.00000000000E+000,  0.10000000000E+001
  0.17964225000E+008,  0.20916205788E+007,  0.19000000000E+002,  0.00000000000E+000,  0.10000000000E+001
  0.17964375000E+008,  0.20908477785E+007,  0.19000000000E+002,  0.00000000000E+000,  0.10000000000E+001
  0.17964525000E+008,  0.20901226374E+007,  0.19000000000E+002,  0.00000000000E+000,  0.10000000000E+001
  0.17964675000E+008,  0.20894363053E+007,  0.19000000000E+002,  0.00000000000E+000,  0.10000000000E+001
  0.17964825000E+008,  0.20887819883E+007,  0.19000000000E+002,  0.00000000000E+000,  0.10000000000E+001
  0.17964975000E+008,  0.20881545480E+007,  0.19000000000E+002,  0.00000000000E+000,  0.10000000000E+001
  0.17965125000E+008,  0.20875501148E+007,  0.19000000000E+002,  0.00000000000E+000,  0.10000000000E+001
  0.17965275000E+008,  0.20869657666E+007,  0.19000000000E+002,  0.00000000000E+000,  0.10000000000E+001
  0.17965425000E+008,  0.20863992786E+007,  0.19000000000E+002,  0.00000000000E+000,  0.10000000000E+001
  0.17965575000E+008,  0.20858489359E+007,  0.19000000000E+002,  0.00000000000E+000,  0.10000000000E+001
  0.17965725000E+008,  0.20853133953E+007,  0.19000000000E+002,  0.00000000000E+000,  0.10000000000E+001
  0.17965800001E+008,  0.20850491748E+007,  0.19000000000E+002,  0.00000000000E+000,  0.10000000000E+001
  0.17965837501E+008,  0.20849179339E+007,  0.19000000000E+002,  0.00000000000E+000,  0.10000000000E+001
  0.17965987501E+008,  0.20844058813E+007,  0.19000000000E+002,  0.00000000000E+000,  0.10000000000E+001
  0.17966062502E+008,  0.20841529561E+007,  0.19000000000E+002,  0.00000000000E+000,  0.10000000000E+001
  0.17966100002E+008,  0.20840272530E+007,  0.19000000000E+002,  0.00000000000E+000,  0.10000000000E+001
  0.17966118753E+008,  0.20839645892E+007,  0.19000000000E+002,  0.00000000000E+000,  0.10000000000E+001
  0.17966212504E+008,  0.20836557182E+007,  0.19000000000E+002,  0.00000000000E+000,  0.10000000000E+001
  0.17966259380E+008,  0.20835023605E+007,  0.19000000000E+002,  0.00000000000E+000,  0.10000000000E+001
  0.17966409380E+008,  0.20830216197E+007,  0.19000000000E+002,  0.00000000000E+000,  0.10000000000E+001
  0.17966559380E+008,  0.20825500127E+007,  0.19000000000E+002,  0.00000000000E+000,  0.10000000000E+001
  0.17966634381E+008,  0.20823163967E+007,  0.19000000000E+002,  0.00000000000E+000,  0.10000000000E+001
  0.17966671881E+008,  0.20822001239E+007,  0.19000000000E+002,  0.00000000000E+000,  0.10000000000E+001
  0.17966690632E+008,  0.20821421198E+007,  0.19000000000E+002,  0.00000000000E+000,  0.10000000000E+001
  0.17966700007E+008,  0.20821131506E+007,  0.19000000000E+002,  0.00000000000E+000,  0.10000000000E+001
  0.17966704695E+008,  0.20820986738E+007,  0.19000000000E+002,  0.00000000000E+000,  0.10000000000E+001
  0.17966728133E+008,  0.20820264945E+007,  0.19000000000E+002,  0.00000000000E+000,  0.10000000000E+001
  0.17966845324E+008,  0.20816702692E+007,  0.19000000000E+002,  0.00000000000E+000,  0.10000000000E+001
  0.17966903920E+008,  0.20814932685E+007,  0.19000000000E+002,  0.00000000000E+000,  0.10000000000E+001
  0.17967053920E+008,  0.20810464632E+007,  0.19000000000E+002,  0.00000000000E+000,  0.10000000000E+001
  0.17967128920E+008,  0.20808245027E+007,  0.19000000000E+002,  0.00000000000E+000,  0.10000000000E+001
  0.17967278920E+008,  0.20803852774E+007,  0.19000000000E+002,  0.00000000000E+000,  0.10000000000E+001
  0.17967353921E+008,  0.20801667023E+007,  0.19000000000E+002,  0.00000000000E+000,  0.10000000000E+001
  0.17967503921E+008,  0.20797328012E+007,  0.19000000000E+002,  0.00000000000E+000,  0.10000000000E+001
  0.17967653921E+008,  0.20793014665E+007,  0.19000000000E+002,  0.00000000000E+000,  0.10000000000E+001
  0.17967803921E+008,  0.20788722260E+007,  0.19000000000E+002,  0.00000000000E+000,  0.10000000000E+001
  0.17967953921E+008,  0.20784447707E+007,  0.19000000000E+002,  0.00000000000E+000,  0.10000000000E+001
  0.17968103921E+008,  0.20780189101E+007,  0.19000000000E+002,  0.00000000000E+000,  0.10000000000E+001
  0.17968253921E+008,  0.20775945364E+007,  0.19000000000E+002,  0.00000000000E+000,  0.10000000000E+001
  0.17968403921E+008,  0.20771715975E+007,  0.19000000000E+002,  0.00000000000E+000,  0.10000000000E+001
  0.17968553921E+008,  0.20767500772E+007,  0.19000000000E+002,  0.00000000000E+000,  0.10000000000E+001
  0.17968703921E+008,  0.20763299818E+007,  0.19000000000E+002,  0.00000000000E+000,  0.10000000000E+001
  0.17968853921E+008,  0.20759113309E+007,  0.19000000000E+002,  0.00000000000E+000,  0.10000000000E+001
  0.17969003921E+008,  0.20754941515E+007,  0.19000000000E+002,  0.00000000000E+000,  0.10000000000E+001
  0.17969153921E+008,  0.20750784739E+007,  0.19000000000E+002,  0.00000000000E+000,  0.10000000000E+001
  0.17969303921E+008,  0.20746643295E+007,  0.19000000000E+002,  0.00000000000E+000,  0.10000000000E+001
  0.17969453921E+008,  0.20742517491E+007,  0.19000000000E+002,  0.00000000000E+000,  0.10000000000E+001
  0.17969603921E+008,  0.20738407621E+007,  0.19000000000E+002,  0.00000000000E+000,  0.10000000000E+001
  0.17969753921E+008,  0.20734313962E+007,  0.19000000000E+002,  0.00000000000E+000,  0.10000000000E+001
  0.17969903921E+008,  0.20730236772E+007,  0.19000000000E+002,  0.00000000000E+000,  0.10000000000E+001
  0.17970053921E+008,  0.20726176287E+007,  0.19000000000E+002,  0.00000000000E+000,  0.10000000000E+001
  0.17970203921E+008,  0.20722132727E+007,  0.19000000000E+002,  0.00000000000E+000,  0.10000000000E+001
  0.17970353921E+008,  0.20718106289E+007,  0.19000000000E+002,  0.00000000000E+000,  0.10000000000E+001
  0.17970503921E+008,  0.20714097159E+007,  0.19000000000E+002,  0.00000000000E+000,  0.10000000000E+001
  0.17970653921E+008,  0.20710105502E+007,  0.19000000000E+002,  0.00000000000E+000,  0.10000000000E+001
  0.17970803921E+008,  0.20706131474E+007,  0.19000000000E+002,  0.00000000000E+000,  0.10000000000E+001
  0.17970953921E+008,  0.20702175213E+007,  0.19000000000E+002,  0.00000000000E+000,  0.10000000000E+001
  0.17971103921E+008,  0.20698236848E+007,  0.19000000000E+002,  0.00000000000E+000,  0.10000000000E+001
  0.17971253921E+008,  0.20694316497E+007,  0.19000000000E+002,  0.00000000000E+000,  0.10000000000E+001
  0.17971403921E+008,  0.20690414266E+007,  0.19000000000E+002,  0.00000000000E+000,  0.10000000000E+001
  0.17971553921E+008,  0.20686530254E+007,  0.19000000000E+002,  0.00000000000E+000,  0.10000000000E+001
  0.17971703921E+008,  0.20682664547E+007,  0.19000000000E+002,  0.00000000000E+000,  0.10000000000E+001
  0.17971853921E+008,  0.20678817227E+007,  0.19000000000E+002,  0.00000000000E+000,  0.10000000000E+001
  0.17972003921E+008,  0.20674988366E+007,  0.19000000000E+002,  0.00000000000E+000,  0.10000000000E+001
  0.17972153921E+008,  0.20671178026E+007,  0.19000000000E+002,  0.00000000000E+000,  0.10000000000E+001
  0.17972303921E+008,  0.20667386266E+007,  0.19000000000E+002,  0.00000000000E+000,  0.10000000000E+001
  0.17972453921E+008,  0.20663613135E+007,  0.19000000000E+002,  0.00000000000E+000,  0.10000000000E+001
  0.17972603921E+008,  0.20659858675E+007,  0.19000000000E+002,  0.00000000000E+000,  0.10000000000E+001
  0.17972753921E+008,  0.20656122924E+007,  0.19000000000E+002,  0.00000000000E+000,  0.10000000000E+001
  0.17972903921E+008,  0.20652405911E+007,  0.19000000000E+002,  0.00000000000E+000,  0.10000000000E+001
  0.17973053921E+008,  0.20648707660E+007,  0.19000000000E+002,  0.00000000000E+000,  0.10000000000E+001
  0.17973203921E+008,  0.20645028190E+007,  0.19000000000E+002,  0.00000000000E+000,  0.10000000000E+001
  0.17973353921E+008,  0.20641367513E+007,  0.19000000000E+002,  0.00000000000E+000,  0.10000000000E+001
  0.17973503921E+008,  0.20637725637E+007,  0.19000000000E+002,  0.00000000000E+000,  0.10000000000E+001
  0.17973653921E+008,  0.20634102562E+007,  0.19000000000E+002,  0.00000000000E+000,  0.10000000000E+001
  0.17973803921E+008,  0.20630498288E+007,  0.19000000000E+002,  0.00000000000E+000,  0.10000000000E+001
  0.17973953921E+008,  0.20626912806E+007,  0.19000000000E+002,  0.00000000000E+000,  0.10000000000E+001
  0.17974103921E+008,  0.20623346103E+007,  0.19000000000E+002,  0.00000000000E+000,  0.10000000000E+001
  0.17974253921E+008,  0.20619798164E+007,  0.19000000000E+002,  0.00000000000E+000,  0.10000000000E+001
  0.17974403921E+008,  0.20616268968E+007,  0.19000000000E+002,  0.00000000000E+000,  0.10000000000E+001
  0.17974553921E+008,  0.20612758490E+007,  0.19000000000E+002,  0.00000000000E+000,  0.10000000000E+001
  0.17974703921E+008,  0.20609266702E+007,  0.19000000000E+002,  0.00000000000E+000,  0.10000000000E+001
  0.17974853921E+008,  0.20605793572E+007,  0.19000000000E+002,  0.00000000000E+000,  0.10000000000E+001
  0.17975003921E+008,  0.20602339066E+007,  0.19000000000E+002,  0.00000000000E+000,  0.10000000000E+001
  0.17975153921E+008,  0.20598903144E+007,  0.19000000000E+002,  0.00000000000E+000,  0.10000000000E+001
  0.17975303921E+008,  0.20595485766E+007,  0.19000000000E+002,  0.00000000000E+000,  0.10000000000E+001
  0.17975453921E+008,  0.20592086887E+007,  0.19000000000E+002,  0.00000000000E+000,  0.10000000000E+001
  0.17975603921E+008,  0.20588706461E+007,  0.19000000000E+002,  0.00000000000E+000,  0.10000000000E+001
  0.17975753921E+008,  0.20585344437E+007,  0.19000000000E+002,  0.00000000000E+000,  0.10000000000E+001
  0.17975903921E+008,  0.20582000765E+007,  0.19000000000E+002,  0.00000000000E+000,  0.10000000000E+001
  0.17976053921E+008,  0.20578675390E+007,  0.19000000000E+002,  0.00000000000E+000,  0.10000000000E+001
  0.17976203921E+008,  0.20575368257E+007,  0.19000000000E+002,  0.00000000000E+000,  0.10000000000E+001
  0.17976353921E+008,  0.20572079306E+007,  0.19000000000E+002,  0.00000000000E+000,  0.10000000000E+001
  0.17976503921E+008,  0.20568808479E+007,  0.19000000000E+002,  0.00000000000E+000,  0.10000000000E+001
  0.17976653921E+008,  0.20565555714E+007,  0.19000000000E+002,  0.00000000000E+000,  0.10000000000E+001
  0.17976803921E+008,  0.20562320947E+007,  0.19000000000E+002,  0.00000000000E+000,  0.10000000000E+001
  0.17976953921E+008,  0.20559104115E+007,  0.19000000000E+002,  0.00000000000E+000,  0.10000000000E+001
  0.17977103921E+008,  0.20555905150E+007,  0.19000000000E+002,  0.00000000000E+000,  0.10000000000E+001
  0.17977253921E+008,  0.20552723985E+007,  0.19000000000E+002,  0.00000000000E+000,  0.10000000000E+001
  0.17977403921E+008,  0.20549560552E+007,  0.19000000000E+002,  0.00000000000E+000,  0.10000000000E+001
  0.17977553921E+008,  0.20546414782E+007,  0.19000000000E+002,  0.00000000000E+000,  0.10000000000E+001
  0.17977703921E+008,  0.20543286602E+007,  0.19000000000E+002,  0.00000000000E+000,  0.10000000000E+001
  0.17977853921E+008,  0.20540175943E+007,  0.19000000000E+002,  0.00000000000E+000,  0.10000000000E+001
  0.17978003921E+008,  0.20537082730E+007,  0.19000000000E+002,  0.00000000000E+000,  0.10000000000E+001
  0.17978153921E+008,  0.20534006891E+007,  0.19000000000E+002,  0.00000000000E+000,  0.10000000000E+001
  0.17978303921E+008,  0.20530948351E+007,  0.19000000000E+002,  0.00000000000E+000,  0.10000000000E+001
  0.17978453921E+008,  0.20527907036E+007,  0.19000000000E+002,  0.00000000000E+000,  0.10000000000E+001
  0.17978603921E+008,  0.20524882871E+007,  0.19000000000E+002,  0.00000000000E+000,  0.10000000000E+001
  0.17978753921E+008,  0.20521875778E+007,  0.19000000000E+002,  0.00000000000E+000,  0.10000000000E+001
  0.17978903921E+008,  0.20518885682E+007,  0.19000000000E+002,  0.00000000000E+000,  0.10000000000E+001
  0.17979053921E+008,  0.20515912506E+007,  0.19000000000E+002,  0.00000000000E+000,  0.10000000000E+001
  0.17979203921E+008,  0.20512956171E+007,  0.19000000000E+002,  0.00000000000E+000,  0.10000000000E+001
  0.17979353921E+008,  0.20510016601E+007,  0.19000000000E+002,  0.00000000000E+000,  0.10000000000E+001
  0.17979503921E+008,  0.20507093718E+007,  0.19000000000E+002,  0.00000000000E+000,  0.10000000000E+001
  0.17979653921E+008,  0.20504187441E+007,  0.19000000000E+002,  0.00000000000E+000,  0.10000000000E+001
  0.17979803921E+008,  0.20501297694E+007,  0.19000000000E+002,  0.00000000000E+000,  0.10000000000E+001
  0.17979953921E+008,  0.20498424397E+007,  0.19000000000E+002,  0.00000000000E+000,  0.10000000000E+001
  0.17980103921E+008,  0.20495567471E+007,  0.19000000000E+002,  0.00000000000E+000,  0.10000000000E+001
  0.17980253921E+008,  0.20492726836E+007,  0.19000000000E+002,  0.00000000000E+000,  0.10000000000E+001
  0.17980403921E+008,  0.20489902414E+007,  0.19000000000E+002,  0.00000000000E+000,  0.10000000000E+001
  0.17980553921E+008,  0.20487094124E+007,  0.19000000000E+002,  0.00000000000E+000,  0.10000000000E+001
  0.17980703921E+008,  0.20484301887E+007,  0.19000000000E+002,  0.00000000000E+000,  0.10000000000E+001
  0.17980853921E+008,  0.20481525623E+007,  0.19000000000E+002,  0.00000000000E+000,  0.10000000000E+001
  0.17981003921E+008,  0.20478765254E+007,  0.19000000000E+002,  0.00000000000E+000,  0.10000000000E+001
  0.17981153921E+008,  0.20476020698E+007,  0.19000000000E+002,  0.00000000000E+000,  0.10000000000E+001
  0.17981303921E+008,  0.20473291876E+007,  0.19000000000E+002,  0.00000000000E+000,  0.10000000000E+001
  0.17981453921E+008,  0.20470578709E+007,  0.19000000000E+002,  0.00000000000E+000,  0.10000000000E+001
  0.17981603921E+008,  0.20467881118E+007,  0.19000000000E+002,  0.00000000000E+000,  0.10000000000E+001
  0.17981753921E+008,  0.20465199021E+007,  0.19000000000E+002,  0.00000000000E+000,  0.10000000000E+001
  0.17981903921E+008,  0.20462532341E+007,  0.19000000000E+002,  0.00000000000E+000,  0.10000000000E+001
  0.17982053921E+008,  0.20459880997E+007,  0.19000000000E+002,  0.00000000000E+000,  0.10000000000E+001
  0.17982203921E+008,  0.20457244910E+007,  0.19000000000E+002,  0.00000000000E+000,  0.10000000000E+001
  0.17982353921E+008,  0.20454624002E+007,  0.19000000000E+002,  0.00000000000E+000,  0.10000000000E+001
  0.17982503921E+008,  0.20452018193E+007,  0.19000000000E+002,  0.00000000000E+000,  0.10000000000E+001
  0.17982653921E+008,  0.20449427404E+007,  0.19000000000E+002,  0.00000000000E+000,  0.10000000000E+001
  0.17982803921E+008,  0.20446851557E+007,  0.19000000000E+002,  0.00000000000E+000,  0.10000000000E+001
  0.17982953921E+008,  0.20444290574E+007,  0.19000000000E+002,  0.00000000000E+000,  0.10000000000E+001
  0.17983103921E+008,  0.20441744375E+007,  0.19000000000E+002,  0.00000000000E+000,  0.10000000000E+001
  0.17983253921E+008,  0.20439212882E+007,  0.19000000000E+002,  0.00000000000E+000,  0.10000000000E+001
  0.17983403921E+008,  0.20436696019E+007,  0.19000000000E+002,  0.00000000000E+000,  0.10000000000E+001
  0.17983553921E+008,  0.20434193706E+007,  0.19000000000E+002,  0.00000000000E+000,  0.10000000000E+001
  0.17983703921E+008,  0.20431705867E+007,  0.19000000000E+002,  0.00000000000E+000,  0.10000000000E+001
  0.17983853921E+008,  0.20429232424E+007,  0.19000000000E+002,  0.00000000000E+000,  0.10000000000E+001
  0.17984003921E+008,  0.20426773300E+007,  0.19000000000E+002,  0.00000000000E+000,  0.10000000000E+001
  0.17984153921E+008,  0.20424328418E+007,  0.19000000000E+002,  0.00000000000E+000,  0.10000000000E+001
  0.17984303921E+008,  0.20421897703E+007,  0.19000000000E+002,  0.00000000000E+000,  0.10000000000E+001
  0.17984453921E+008,  0.20419481076E+007,  0.19000000000E+002,  0.00000000000E+000,  0.10000000000E+001
  0.17984603921E+008,  0.20417078462E+007,  0.19000000000E+002,  0.00000000000E+000,  0.10000000000E+001
  0.17984753921E+008,  0.20414689786E+007,  0.19000000000E+002,  0.00000000000E+000,  0.10000000000E+001
  0.17984903921E+008,  0.20412314972E+007,  0.19000000000E+002,  0.00000000000E+000,  0.10000000000E+001
  0.17985053921E+008,  0.20409953945E+007,  0.19000000000E+002,  0.00000000000E+000,  0.10000000000E+001
  0.17985203921E+008,  0.20407606629E+007,  0.19000000000E+002,  0.00000000000E+000,  0.10000000000E+001
  0.17985353921E+008,  0.20405272949E+007,  0.19000000000E+002,  0.00000000000E+000,  0.10000000000E+001
  0.17985503921E+008,  0.20402952832E+007,  0.19000000000E+002,  0.00000000000E+000,  0.10000000000E+001
  0.17985653921E+008,  0.20400646203E+007,  0.19000000000E+002,  0.00000000000E+000,  0.10000000000E+001
  0.17985803921E+008,  0.20398352988E+007,  0.19000000000E+002,  0.00000000000E+000,  0.10000000000E+001
  0.17985953921E+008,  0.20396073114E+007,  0.19000000000E+002,  0.00000000000E+000,  0.10000000000E+001
  0.17986103921E+008,  0.20393806507E+007,  0.19000000000E+002,  0.00000000000E+000,  0.10000000000E+001
  0.17986253921E+008,  0.20391553095E+007,  0.19000000000E+002,  0.00000000000E+000,  0.10000000000E+001
  0.17986403921E+008,  0.20389312804E+007,  0.19000000000E+002,  0.00000000000E+000,  0.10000000000E+001
  0.17986553921E+008,  0.20387085562E+007,  0.19000000000E+002,  0.00000000000E+000,  0.10000000000E+001
  0.17986703921E+008,  0.20384871297E+007,  0.19000000000E+002,  0.00000000000E+000,  0.10000000000E+001
  0.17986853921E+008,  0.20382669937E+007,  0.19000000000E+002,  0.00000000000E+000,  0.10000000000E+001
  0.17987003921E+008,  0.20380481411E+007,  0.19000000000E+002,  0.00000000000E+000,  0.10000000000E+001
  0.17987153921E+008,  0.20378305647E+007,  0.19000000000E+002,  0.00000000000E+000,  0.10000000000E+001
  0.17987303921E+008,  0.20376142575E+007,  0.19000000000E+002,  0.00000000000E+000,  0.10000000000E+001
  0.17987453921E+008,  0.20373992124E+007,  0.19000000000E+002,  0.00000000000E+000,  0.10000000000E+001
  0.17987603921E+008,  0.20371854223E+007,  0.19000000000E+002,  0.00000000000E+000,  0.10000000000E+001
  0.17987753921E+008,  0.20369728804E+007,  0.19000000000E+002,  0.00000000000E+000,  0.10000000000E+001
  0.17987903921E+008,  0.20367615795E+007,  0.19000000000E+002,  0.00000000000E+000,  0.10000000000E+001
  0.17988053921E+008,  0.20365515128E+007,  0.19000000000E+002,  0.00000000000E+000,  0.10000000000E+001
  0.17988203921E+008,  0.20363426734E+007,  0.19000000000E+002,  0.00000000000E+000,  0.10000000000E+001
  0.17988353921E+008,  0.20361350544E+007,  0.19000000000E+002,  0.00000000000E+000,  0.10000000000E+001
  0.17988503921E+008,  0.20359286490E+007,  0.19000000000E+002,  0.00000000000E+000,  0.10000000000E+001
  0.17988653921E+008,  0.20357234503E+007,  0.19000000000E+002,  0.00000000000E+000,  0.10000000000E+001
  0.17988803921E+008,  0.20355194516E+007,  0.19000000000E+002,  0.00000000000E+000,  0.10000000000E+001
  0.17988953921E+008,  0.20353166461E+007,  0.19000000000E+002,  0.00000000000E+000,  0.10000000000E+001
  0.17989103921E+008,  0.20351150272E+007,  0.19000000000E+002,  0.00000000000E+000,  0.10000000000E+001
  0.17989253921E+008,  0.20349145882E+007,  0.19000000000E+002,  0.00000000000E+000,  0.10000000000E+001
  0.17989403921E+008,  0.20347153223E+007,  0.19000000000E+002,  0.00000000000E+000,  0.10000000000E+001
