"           TIME(S)","              PRES","              TEMP","             SAT_G","             SAT_L"
  0.18228740000E+008,  0.20000023260E+007,  0.19000000000E+002,  0.00000000000E+000,  0.10000000000E+001
  0.18228890000E+008,  0.20000215496E+007,  0.19000000000E+002,  0.00000000000E+000,  0.10000000000E+001
  0.18229040000E+008,  0.20000424092E+007,  0.19000000000E+002,  0.00000000000E+000,  0.10000000000E+001
  0.18229190000E+008,  0.20000624802E+007,  0.19000000000E+002,  0.00000000000E+000,  0.10000000000E+001
  0.18229340000E+008,  0.20000812330E+007,  0.19000000000E+002,  0.00000000000E+000,  0.10000000000E+001
  0.18229490000E+008,  0.20000986671E+007,  0.19000000000E+002,  0.00000000000E+000,  0.10000000000E+001
  0.18229640000E+008,  0.20001149083E+007,  0.19000000000E+002,  0.00000000000E+000,  0.10000000000E+001
  0.18229790000E+008,  0.20001300991E+007,  0.19000000000E+002,  0.00000000000E+000,  0.10000000000E+001
  0.18229940000E+008,  0.20001443715E+007,  0.19000000000E+002,  0.00000000000E+000,  0.10000000000E+001
  0.18230090000E+008,  0.20001578428E+007,  0.19000000000E+002,  0.00000000000E+000,  0.10000000000E+001
  0.18230240000E+008,  0.20001696474E+007,  0.19000000000E+002,  0.00000000000E+000,  0.10000000000E+001
  0.18230315000E+008,  0.20001729578E+007,  0.19000000000E+002,  0.00000000000E+000,  0.10000000000E+001
  0.18230465000E+008,  0.20001740569E+007,  0.19000000000E+002,  0.00000000000E+000,  0.10000000000E+001
  0.18230615000E+008,  0.20001761169E+007,  0.19000000000E+002,  0.00000000000E+000,  0.10000000000E+001
  0.18230765000E+008,  0.20001801679E+007,  0.19000000000E+002,  0.00000000000E+000,  0.10000000000E+001
  0.18230915000E+008,  0.20001860525E+007,  0.19000000000E+002,  0.00000000000E+000,  0.10000000000E+001
  0.18231065000E+008,  0.20001932987E+007,  0.19000000000E+002,  0.00000000000E+000,  0.10000000000E+001
  0.18231215000E+008,  0.20002013831E+007,  0.19000000000E+002,  0.00000000000E+000,  0.10000000000E+001
  0.18231365000E+008,  0.20002099735E+007,  0.19000000000E+002,  0.00000000000E+000,  0.10000000000E+001
  0.18231515000E+008,  0.20002188189E+007,  0.19000000000E+002,  0.00000000000E+000,  0.10000000000E+001
  0.18231665000E+008,  0.20002277530E+007,  0.19000000000E+002,  0.00000000000E+000,  0.10000000000E+001
  0.18231815000E+008,  0.20002366751E+007,  0.19000000000E+002,  0.00000000000E+000,  0.10000000000E+001
  0.18231965000E+008,  0.20002455285E+007,  0.19000000000E+002,  0.00000000000E+000,  0.10000000000E+001
  0.18232115000E+008,  0.20002542832E+007,  0.19000000000E+002,  0.00000000000E+000,  0.10000000000E+001
  0.18232265000E+008,  0.20002629256E+007,  0.19000000000E+002,  0.00000000000E+000,  0.10000000000E+001
  0.18232415000E+008,  0.20002714510E+007,  0.19000000000E+002,  0.00000000000E+000,  0.10000000000E+001
  0.18232565000E+008,  0.20002798601E+007,  0.19000000000E+002,  0.00000000000E+000,  0.10000000000E+001
  0.18232715000E+008,  0.20002881566E+007,  0.19000000000E+002,  0.00000000000E+000,  0.10000000000E+001
  0.18232865000E+008,  0.20002963453E+007,  0.19000000000E+002,  0.00000000000E+000,  0.10000000000E+001
  0.18233015000E+008,  0.20003044319E+007,  0.19000000000E+002,  0.00000000000E+000,  0.10000000000E+001
  0.18233165000E+008,  0.20003124220E+007,  0.19000000000E+002,  0.00000000000E+000,  0.10000000000E+001
  0.18233315000E+008,  0.20003203214E+007,  0.19000000000E+002,  0.00000000000E+000,  0.10000000000E+001
  0.18233465000E+008,  0.20003281354E+007,  0.19000000000E+002,  0.00000000000E+000,  0.10000000000E+001
  0.18233615000E+008,  0.20003358691E+007,  0.19000000000E+002,  0.00000000000E+000,  0.10000000000E+001
  0.18233765000E+008,  0.20003435273E+007,  0.19000000000E+002,  0.00000000000E+000,  0.10000000000E+001
  0.18233915000E+008,  0.20003511144E+007,  0.19000000000E+002,  0.00000000000E+000,  0.10000000000E+001
  0.18234065000E+008,  0.20003586346E+007,  0.19000000000E+002,  0.00000000000E+000,  0.10000000000E+001
  0.18234215000E+008,  0.20003660917E+007,  0.19000000000E+002,  0.00000000000E+000,  0.10000000000E+001
  0.18234365000E+008,  0.20003731940E+007,  0.19000000000E+002,  0.00000000000E+000,  0.10000000000E+001
  0.18234440001E+008,  0.20003763801E+007,  0.19000000000E+002,  0.00000000000E+000,  0.10000000000E+001
  0.18234477501E+008,  0.20003777874E+007,  0.19000000000E+002,  0.00000000000E+000,  0.10000000000E+001
  0.18234627501E+008,  0.20003807338E+007,  0.19000000000E+002,  0.00000000000E+000,  0.10000000000E+001
  0.18234777501E+008,  0.20003830544E+007,  0.19000000000E+002,  0.00000000000E+000,  0.10000000000E+001
  0.18234927501E+008,  0.20003855822E+007,  0.19000000000E+002,  0.00000000000E+000,  0.10000000000E+001
  0.18235077501E+008,  0.20003885478E+007,  0.19000000000E+002,  0.00000000000E+000,  0.10000000000E+001
  0.18235152502E+008,  0.20003900933E+007,  0.19000000000E+002,  0.00000000000E+000,  0.10000000000E+001
  0.18235302502E+008,  0.20003921138E+007,  0.19000000000E+002,  0.00000000000E+000,  0.10000000000E+001
  0.18235452502E+008,  0.20003939936E+007,  0.19000000000E+002,  0.00000000000E+000,  0.10000000000E+001
  0.18235602502E+008,  0.20003962000E+007,  0.19000000000E+002,  0.00000000000E+000,  0.10000000000E+001
  0.18235752502E+008,  0.20003989226E+007,  0.19000000000E+002,  0.00000000000E+000,  0.10000000000E+001
  0.18235902502E+008,  0.20004022260E+007,  0.19000000000E+002,  0.00000000000E+000,  0.10000000000E+001
  0.18236052502E+008,  0.20004061119E+007,  0.19000000000E+002,  0.00000000000E+000,  0.10000000000E+001
  0.18236202502E+008,  0.20004104904E+007,  0.19000000000E+002,  0.00000000000E+000,  0.10000000000E+001
  0.18236352502E+008,  0.20004153050E+007,  0.19000000000E+002,  0.00000000000E+000,  0.10000000000E+001
  0.18236502502E+008,  0.20004204874E+007,  0.19000000000E+002,  0.00000000000E+000,  0.10000000000E+001
  0.18236652502E+008,  0.20004259670E+007,  0.19000000000E+002,  0.00000000000E+000,  0.10000000000E+001
  0.18236802502E+008,  0.20004316809E+007,  0.19000000000E+002,  0.00000000000E+000,  0.10000000000E+001
  0.18236952502E+008,  0.20004375771E+007,  0.19000000000E+002,  0.00000000000E+000,  0.10000000000E+001
  0.18237102502E+008,  0.20004436130E+007,  0.19000000000E+002,  0.00000000000E+000,  0.10000000000E+001
  0.18237252502E+008,  0.20004497547E+007,  0.19000000000E+002,  0.00000000000E+000,  0.10000000000E+001
  0.18237402502E+008,  0.20004559756E+007,  0.19000000000E+002,  0.00000000000E+000,  0.10000000000E+001
  0.18237552502E+008,  0.20004622548E+007,  0.19000000000E+002,  0.00000000000E+000,  0.10000000000E+001
  0.18237702502E+008,  0.20004685761E+007,  0.19000000000E+002,  0.00000000000E+000,  0.10000000000E+001
  0.18237852502E+008,  0.20004749272E+007,  0.19000000000E+002,  0.00000000000E+000,  0.10000000000E+001
  0.18238002502E+008,  0.20004812985E+007,  0.19000000000E+002,  0.00000000000E+000,  0.10000000000E+001
  0.18238152502E+008,  0.20004876827E+007,  0.19000000000E+002,  0.00000000000E+000,  0.10000000000E+001
  0.18238302502E+008,  0.20004940743E+007,  0.19000000000E+002,  0.00000000000E+000,  0.10000000000E+001
  0.18238452502E+008,  0.20005004689E+007,  0.19000000000E+002,  0.00000000000E+000,  0.10000000000E+001
  0.18238602502E+008,  0.20005068636E+007,  0.19000000000E+002,  0.00000000000E+000,  0.10000000000E+001
  0.18238752502E+008,  0.20005132559E+007,  0.19000000000E+002,  0.00000000000E+000,  0.10000000000E+001
  0.18238902502E+008,  0.20005196442E+007,  0.19000000000E+002,  0.00000000000E+000,  0.10000000000E+001
  0.18239052502E+008,  0.20005260272E+007,  0.19000000000E+002,  0.00000000000E+000,  0.10000000000E+001
  0.18239202502E+008,  0.20005324040E+007,  0.19000000000E+002,  0.00000000000E+000,  0.10000000000E+001
  0.18239352502E+008,  0.20005387739E+007,  0.19000000000E+002,  0.00000000000E+000,  0.10000000000E+001
  0.18239502502E+008,  0.20005451366E+007,  0.19000000000E+002,  0.00000000000E+000,  0.10000000000E+001
  0.18239652502E+008,  0.20005514918E+007,  0.19000000000E+002,  0.00000000000E+000,  0.10000000000E+001
  0.18239802502E+008,  0.20005578392E+007,  0.19000000000E+002,  0.00000000000E+000,  0.10000000000E+001
  0.18239952502E+008,  0.20005641790E+007,  0.19000000000E+002,  0.00000000000E+000,  0.10000000000E+001
  0.18240102502E+008,  0.20005705110E+007,  0.19000000000E+002,  0.00000000000E+000,  0.10000000000E+001
  0.18240252502E+008,  0.20005768353E+007,  0.19000000000E+002,  0.00000000000E+000,  0.10000000000E+001
  0.18240402502E+008,  0.20005831521E+007,  0.19000000000E+002,  0.00000000000E+000,  0.10000000000E+001
  0.18240552502E+008,  0.20005894613E+007,  0.19000000000E+002,  0.00000000000E+000,  0.10000000000E+001
  0.18240702502E+008,  0.20005957632E+007,  0.19000000000E+002,  0.00000000000E+000,  0.10000000000E+001
  0.18240852502E+008,  0.20006020579E+007,  0.19000000000E+002,  0.00000000000E+000,  0.10000000000E+001
  0.18241002502E+008,  0.20006083456E+007,  0.19000000000E+002,  0.00000000000E+000,  0.10000000000E+001
  0.18241152502E+008,  0.20006146263E+007,  0.19000000000E+002,  0.00000000000E+000,  0.10000000000E+001
  0.18241302502E+008,  0.20006209002E+007,  0.19000000000E+002,  0.00000000000E+000,  0.10000000000E+001
  0.18241452502E+008,  0.20006271676E+007,  0.19000000000E+002,  0.00000000000E+000,  0.10000000000E+001
  0.18241602502E+008,  0.20006334285E+007,  0.19000000000E+002,  0.00000000000E+000,  0.10000000000E+001
  0.18241752502E+008,  0.20006396832E+007,  0.19000000000E+002,  0.00000000000E+000,  0.10000000000E+001
  0.18241902502E+008,  0.20006459317E+007,  0.19000000000E+002,  0.00000000000E+000,  0.10000000000E+001
  0.18242052502E+008,  0.20006521743E+007,  0.19000000000E+002,  0.00000000000E+000,  0.10000000000E+001
  0.18242202502E+008,  0.20006584110E+007,  0.19000000000E+002,  0.00000000000E+000,  0.10000000000E+001
  0.18242352502E+008,  0.20006646420E+007,  0.19000000000E+002,  0.00000000000E+000,  0.10000000000E+001
  0.18242502502E+008,  0.20006708675E+007,  0.19000000000E+002,  0.00000000000E+000,  0.10000000000E+001
  0.18242652502E+008,  0.20006770875E+007,  0.19000000000E+002,  0.00000000000E+000,  0.10000000000E+001
  0.18242802502E+008,  0.20006833023E+007,  0.19000000000E+002,  0.00000000000E+000,  0.10000000000E+001
  0.18242952502E+008,  0.20006895120E+007,  0.19000000000E+002,  0.00000000000E+000,  0.10000000000E+001
  0.18243102502E+008,  0.20006957166E+007,  0.19000000000E+002,  0.00000000000E+000,  0.10000000000E+001
  0.18243252502E+008,  0.20007019163E+007,  0.19000000000E+002,  0.00000000000E+000,  0.10000000000E+001
  0.18243402502E+008,  0.20007081112E+007,  0.19000000000E+002,  0.00000000000E+000,  0.10000000000E+001
  0.18243552502E+008,  0.20007143015E+007,  0.19000000000E+002,  0.00000000000E+000,  0.10000000000E+001
  0.18243702502E+008,  0.20007204575E+007,  0.19000000000E+002,  0.00000000000E+000,  0.10000000000E+001
  0.18243777502E+008,  0.20007234987E+007,  0.19000000000E+002,  0.00000000000E+000,  0.10000000000E+001
  0.18243927502E+008,  0.20007292994E+007,  0.19000000000E+002,  0.00000000000E+000,  0.10000000000E+001
  0.18244077502E+008,  0.20007349281E+007,  0.19000000000E+002,  0.00000000000E+000,  0.10000000000E+001
  0.18244152503E+008,  0.20007377277E+007,  0.19000000000E+002,  0.00000000000E+000,  0.10000000000E+001
  0.18244302503E+008,  0.20007425708E+007,  0.19000000000E+002,  0.00000000000E+000,  0.10000000000E+001
  0.18244377503E+008,  0.20007447714E+007,  0.19000000000E+002,  0.00000000000E+000,  0.10000000000E+001
  0.18244527503E+008,  0.20007484925E+007,  0.19000000000E+002,  0.00000000000E+000,  0.10000000000E+001
  0.18244677503E+008,  0.20007518672E+007,  0.19000000000E+002,  0.00000000000E+000,  0.10000000000E+001
  0.18244827503E+008,  0.20007550892E+007,  0.19000000000E+002,  0.00000000000E+000,  0.10000000000E+001
  0.18244977503E+008,  0.20007583085E+007,  0.19000000000E+002,  0.00000000000E+000,  0.10000000000E+001
  0.18245127503E+008,  0.20007616330E+007,  0.19000000000E+002,  0.00000000000E+000,  0.10000000000E+001
  0.18245202504E+008,  0.20007632880E+007,  0.19000000000E+002,  0.00000000000E+000,  0.10000000000E+001
  0.18245352504E+008,  0.20007665685E+007,  0.19000000000E+002,  0.00000000000E+000,  0.10000000000E+001
  0.18245502504E+008,  0.20007698844E+007,  0.19000000000E+002,  0.00000000000E+000,  0.10000000000E+001
  0.18245652504E+008,  0.20007733391E+007,  0.19000000000E+002,  0.00000000000E+000,  0.10000000000E+001
  0.18245802504E+008,  0.20007770019E+007,  0.19000000000E+002,  0.00000000000E+000,  0.10000000000E+001
  0.18245952504E+008,  0.20007808529E+007,  0.19000000000E+002,  0.00000000000E+000,  0.10000000000E+001
  0.18246102504E+008,  0.20007849030E+007,  0.19000000000E+002,  0.00000000000E+000,  0.10000000000E+001
  0.18246252504E+008,  0.20007891648E+007,  0.19000000000E+002,  0.00000000000E+000,  0.10000000000E+001
  0.18246402504E+008,  0.20007935757E+007,  0.19000000000E+002,  0.00000000000E+000,  0.10000000000E+001
  0.18246477504E+008,  0.20007957673E+007,  0.19000000000E+002,  0.00000000000E+000,  0.10000000000E+001
  0.18246627504E+008,  0.20007999425E+007,  0.19000000000E+002,  0.00000000000E+000,  0.10000000000E+001
  0.18246777504E+008,  0.20008040440E+007,  0.19000000000E+002,  0.00000000000E+000,  0.10000000000E+001
  0.18246927504E+008,  0.20008081950E+007,  0.19000000000E+002,  0.00000000000E+000,  0.10000000000E+001
  0.18247077504E+008,  0.20008124486E+007,  0.19000000000E+002,  0.00000000000E+000,  0.10000000000E+001
  0.18247227504E+008,  0.20008167998E+007,  0.19000000000E+002,  0.00000000000E+000,  0.10000000000E+001
  0.18247377504E+008,  0.20008212708E+007,  0.19000000000E+002,  0.00000000000E+000,  0.10000000000E+001
  0.18247527504E+008,  0.20008258721E+007,  0.19000000000E+002,  0.00000000000E+000,  0.10000000000E+001
  0.18247677504E+008,  0.20008306042E+007,  0.19000000000E+002,  0.00000000000E+000,  0.10000000000E+001
  0.18247827504E+008,  0.20008354626E+007,  0.19000000000E+002,  0.00000000000E+000,  0.10000000000E+001
  0.18247977504E+008,  0.20008404396E+007,  0.19000000000E+002,  0.00000000000E+000,  0.10000000000E+001
  0.18248127504E+008,  0.20008455268E+007,  0.19000000000E+002,  0.00000000000E+000,  0.10000000000E+001
  0.18248277504E+008,  0.20008507186E+007,  0.19000000000E+002,  0.00000000000E+000,  0.10000000000E+001
  0.18248427504E+008,  0.20008560042E+007,  0.19000000000E+002,  0.00000000000E+000,  0.10000000000E+001
  0.18248577504E+008,  0.20008613790E+007,  0.19000000000E+002,  0.00000000000E+000,  0.10000000000E+001
  0.18248727504E+008,  0.20008668327E+007,  0.19000000000E+002,  0.00000000000E+000,  0.10000000000E+001
  0.18248877504E+008,  0.20008723573E+007,  0.19000000000E+002,  0.00000000000E+000,  0.10000000000E+001
  0.18249027504E+008,  0.20008779430E+007,  0.19000000000E+002,  0.00000000000E+000,  0.10000000000E+001
  0.18249177504E+008,  0.20008835825E+007,  0.19000000000E+002,  0.00000000000E+000,  0.10000000000E+001
  0.18249327504E+008,  0.20008892698E+007,  0.19000000000E+002,  0.00000000000E+000,  0.10000000000E+001
  0.18249477504E+008,  0.20008949985E+007,  0.19000000000E+002,  0.00000000000E+000,  0.10000000000E+001
  0.18249627504E+008,  0.20009007633E+007,  0.19000000000E+002,  0.00000000000E+000,  0.10000000000E+001
  0.18249777504E+008,  0.20009065594E+007,  0.19000000000E+002,  0.00000000000E+000,  0.10000000000E+001
  0.18249927504E+008,  0.20009123827E+007,  0.19000000000E+002,  0.00000000000E+000,  0.10000000000E+001
  0.18250077504E+008,  0.20009182299E+007,  0.19000000000E+002,  0.00000000000E+000,  0.10000000000E+001
  0.18250227504E+008,  0.20009240978E+007,  0.19000000000E+002,  0.00000000000E+000,  0.10000000000E+001
  0.18250377504E+008,  0.20009299838E+007,  0.19000000000E+002,  0.00000000000E+000,  0.10000000000E+001
  0.18250527504E+008,  0.20009358857E+007,  0.19000000000E+002,  0.00000000000E+000,  0.10000000000E+001
  0.18250677504E+008,  0.20009418016E+007,  0.19000000000E+002,  0.00000000000E+000,  0.10000000000E+001
  0.18250827504E+008,  0.20009477297E+007,  0.19000000000E+002,  0.00000000000E+000,  0.10000000000E+001
  0.18250977504E+008,  0.20009536685E+007,  0.19000000000E+002,  0.00000000000E+000,  0.10000000000E+001
  0.18251127504E+008,  0.20009596169E+007,  0.19000000000E+002,  0.00000000000E+000,  0.10000000000E+001
  0.18251277504E+008,  0.20009655736E+007,  0.19000000000E+002,  0.00000000000E+000,  0.10000000000E+001
  0.18251427504E+008,  0.20009715377E+007,  0.19000000000E+002,  0.00000000000E+000,  0.10000000000E+001
  0.18251577504E+008,  0.20009775083E+007,  0.19000000000E+002,  0.00000000000E+000,  0.10000000000E+001
  0.18251727504E+008,  0.20009834848E+007,  0.19000000000E+002,  0.00000000000E+000,  0.10000000000E+001
  0.18251877504E+008,  0.20009894665E+007,  0.19000000000E+002,  0.00000000000E+000,  0.10000000000E+001
  0.18252027504E+008,  0.20009954527E+007,  0.19000000000E+002,  0.00000000000E+000,  0.10000000000E+001
  0.18252177504E+008,  0.20010014431E+007,  0.19000000000E+002,  0.00000000000E+000,  0.10000000000E+001
  0.18252327504E+008,  0.20010074372E+007,  0.19000000000E+002,  0.00000000000E+000,  0.10000000000E+001
  0.18252477504E+008,  0.20010134346E+007,  0.19000000000E+002,  0.00000000000E+000,  0.10000000000E+001
  0.18252627504E+008,  0.20010194351E+007,  0.19000000000E+002,  0.00000000000E+000,  0.10000000000E+001
  0.18252777504E+008,  0.20010254382E+007,  0.19000000000E+002,  0.00000000000E+000,  0.10000000000E+001
  0.18252927504E+008,  0.20010314438E+007,  0.19000000000E+002,  0.00000000000E+000,  0.10000000000E+001
  0.18253077504E+008,  0.20010374525E+007,  0.19000000000E+002,  0.00000000000E+000,  0.10000000000E+001
  0.18253227504E+008,  0.20010434651E+007,  0.19000000000E+002,  0.00000000000E+000,  0.10000000000E+001
  0.18253377504E+008,  0.20010494821E+007,  0.19000000000E+002,  0.00000000000E+000,  0.10000000000E+001
  0.18253527504E+008,  0.20010555044E+007,  0.19000000000E+002,  0.00000000000E+000,  0.10000000000E+001
  0.18253677504E+008,  0.20010615238E+007,  0.19000000000E+002,  0.00000000000E+000,  0.10000000000E+001
  0.18253752505E+008,  0.20010645208E+007,  0.19000000000E+002,  0.00000000000E+000,  0.10000000000E+001
  0.18253902505E+008,  0.20010702980E+007,  0.19000000000E+002,  0.00000000000E+000,  0.10000000000E+001
  0.18254052505E+008,  0.20010758911E+007,  0.19000000000E+002,  0.00000000000E+000,  0.10000000000E+001
  0.18254202505E+008,  0.20010813658E+007,  0.19000000000E+002,  0.00000000000E+000,  0.10000000000E+001
  0.18254352505E+008,  0.20010867961E+007,  0.19000000000E+002,  0.00000000000E+000,  0.10000000000E+001
  0.18254502505E+008,  0.20010921986E+007,  0.19000000000E+002,  0.00000000000E+000,  0.10000000000E+001
  0.18254652505E+008,  0.20010975985E+007,  0.19000000000E+002,  0.00000000000E+000,  0.10000000000E+001
  0.18254802505E+008,  0.20011030143E+007,  0.19000000000E+002,  0.00000000000E+000,  0.10000000000E+001
  0.18254952505E+008,  0.20011084579E+007,  0.19000000000E+002,  0.00000000000E+000,  0.10000000000E+001
  0.18255102505E+008,  0.20011139365E+007,  0.19000000000E+002,  0.00000000000E+000,  0.10000000000E+001
  0.18255252505E+008,  0.20011194547E+007,  0.19000000000E+002,  0.00000000000E+000,  0.10000000000E+001
  0.18255402505E+008,  0.20011250143E+007,  0.19000000000E+002,  0.00000000000E+000,  0.10000000000E+001
  0.18255552505E+008,  0.20011306153E+007,  0.19000000000E+002,  0.00000000000E+000,  0.10000000000E+001
  0.18255702505E+008,  0.20011362568E+007,  0.19000000000E+002,  0.00000000000E+000,  0.10000000000E+001
  0.18255852505E+008,  0.20011419371E+007,  0.19000000000E+002,  0.00000000000E+000,  0.10000000000E+001
  0.18256002505E+008,  0.20011476539E+007,  0.19000000000E+002,  0.00000000000E+000,  0.10000000000E+001
  0.18256152505E+008,  0.20011534045E+007,  0.19000000000E+002,  0.00000000000E+000,  0.10000000000E+001
