"           TIME(S)","              PRES","              TEMP","             SAT_G","             SAT_L"
  0.17964400000E+008,  0.21004367316E+007,  0.19000000000E+002,  0.00000000000E+000,  0.10000000000E+001
  0.17971900000E+008,  0.20839448654E+007,  0.19000000000E+002,  0.00000000000E+000,  0.10000000000E+001
  0.17986900000E+008,  0.20530708575E+007,  0.19000000000E+002,  0.00000000000E+000,  0.10000000000E+001
  0.18001900000E+008,  0.20337773685E+007,  0.19000000000E+002,  0.00000000000E+000,  0.10000000000E+001
  0.18016900000E+008,  0.20217740078E+007,  0.19000000000E+002,  0.00000000000E+000,  0.10000000000E+001
  0.18031900000E+008,  0.20142844727E+007,  0.19000000000E+002,  0.00000000000E+000,  0.10000000000E+001
  0.18046900000E+008,  0.20096045045E+007,  0.19000000000E+002,  0.00000000000E+000,  0.10000000000E+001
  0.18061900000E+008,  0.20066800541E+007,  0.19000000000E+002,  0.00000000000E+000,  0.10000000000E+001
  0.18076900000E+008,  0.20049248728E+007,  0.19000000000E+002,  0.00000000000E+000,  0.10000000000E+001
  0.18091900000E+008,  0.20038619023E+007,  0.19000000000E+002,  0.00000000000E+000,  0.10000000000E+001
  0.18106900000E+008,  0.20031710659E+007,  0.19000000000E+002,  0.00000000000E+000,  0.10000000000E+001
  0.18121900000E+008,  0.20027344289E+007,  0.19000000000E+002,  0.00000000000E+000,  0.10000000000E+001
  0.18136900000E+008,  0.20026248921E+007,  0.19000000000E+002,  0.00000000000E+000,  0.10000000000E+001
  0.18151900000E+008,  0.20024880170E+007,  0.19000000000E+002,  0.00000000000E+000,  0.10000000000E+001
  0.18166900000E+008,  0.20023924595E+007,  0.19000000000E+002,  0.00000000000E+000,  0.10000000000E+001
  0.18181900000E+008,  0.20023272964E+007,  0.19000000000E+002,  0.00000000000E+000,  0.10000000000E+001
  0.18196900000E+008,  0.20022809858E+007,  0.19000000000E+002,  0.00000000000E+000,  0.10000000000E+001
  0.18211900000E+008,  0.20022436805E+007,  0.19000000000E+002,  0.00000000000E+000,  0.10000000000E+001
  0.18226900000E+008,  0.20022136346E+007,  0.19000000000E+002,  0.00000000000E+000,  0.10000000000E+001
  0.18241900000E+008,  0.20021956535E+007,  0.19000000000E+002,  0.00000000000E+000,  0.10000000000E+001
  0.18256900000E+008,  0.20021763630E+007,  0.19000000000E+002,  0.00000000000E+000,  0.10000000000E+001
  0.18271900000E+008,  0.20021584559E+007,  0.19000000000E+002,  0.00000000000E+000,  0.10000000000E+001
  0.18286900000E+008,  0.20021462388E+007,  0.19000000000E+002,  0.00000000000E+000,  0.10000000000E+001
  0.18301900000E+008,  0.20021381381E+007,  0.19000000000E+002,  0.00000000000E+000,  0.10000000000E+001
  0.18316900000E+008,  0.20021296320E+007,  0.19000000000E+002,  0.00000000000E+000,  0.10000000000E+001
  0.18331900000E+008,  0.20029476771E+007,  0.19000000000E+002,  0.00000000000E+000,  0.10000000000E+001
  0.18346900000E+008,  0.20033178588E+007,  0.19000000000E+002,  0.00000000000E+000,  0.10000000000E+001
  0.18361900000E+008,  0.20035610848E+007,  0.19000000000E+002,  0.00000000000E+000,  0.10000000000E+001
  0.18376900000E+008,  0.20037439105E+007,  0.19000000000E+002,  0.00000000000E+000,  0.10000000000E+001
  0.18391900000E+008,  0.20039046775E+007,  0.19000000000E+002,  0.00000000000E+000,  0.10000000000E+001
  0.18406900000E+008,  0.20040612473E+007,  0.19000000000E+002,  0.00000000000E+000,  0.10000000000E+001
  0.18421900000E+008,  0.20041857814E+007,  0.19000000000E+002,  0.00000000000E+000,  0.10000000000E+001
  0.18436900000E+008,  0.20042970292E+007,  0.19000000000E+002,  0.00000000000E+000,  0.10000000000E+001
  0.18451900000E+008,  0.20044252346E+007,  0.19000000000E+002,  0.00000000000E+000,  0.10000000000E+001
  0.18466900000E+008,  0.20045388617E+007,  0.19000000000E+002,  0.00000000000E+000,  0.10000000000E+001
  0.18481900000E+008,  0.20046422745E+007,  0.19000000000E+002,  0.00000000000E+000,  0.10000000000E+001
  0.18496900000E+008,  0.20047504066E+007,  0.19000000000E+002,  0.00000000000E+000,  0.10000000000E+001
  0.18511900000E+008,  0.20048748136E+007,  0.19000000000E+002,  0.00000000000E+000,  0.10000000000E+001
  0.18526900000E+008,  0.20049808762E+007,  0.19000000000E+002,  0.00000000000E+000,  0.10000000000E+001
  0.18541900000E+008,  0.20050815785E+007,  0.19000000000E+002,  0.00000000000E+000,  0.10000000000E+001
  0.18556900000E+008,  0.20052137754E+007,  0.19000000000E+002,  0.00000000000E+000,  0.10000000000E+001
  0.18571900000E+008,  0.20053351650E+007,  0.19000000000E+002,  0.00000000000E+000,  0.10000000000E+001
  0.18586900000E+008,  0.20054433300E+007,  0.19000000000E+002,  0.00000000000E+000,  0.10000000000E+001
  0.18601900000E+008,  0.20055514236E+007,  0.19000000000E+002,  0.00000000000E+000,  0.10000000000E+001
  0.18616900000E+008,  0.20056716120E+007,  0.19000000000E+002,  0.00000000000E+000,  0.10000000000E+001
  0.18631900000E+008,  0.20057781018E+007,  0.19000000000E+002,  0.00000000000E+000,  0.10000000000E+001
  0.18646900000E+008,  0.20058801877E+007,  0.19000000000E+002,  0.00000000000E+000,  0.10000000000E+001
  0.18661900000E+008,  0.20060310459E+007,  0.19000000000E+002,  0.00000000000E+000,  0.10000000000E+001
  0.18676900000E+008,  0.20061737277E+007,  0.19000000000E+002,  0.00000000000E+000,  0.10000000000E+001
  0.18691900000E+008,  0.20062939634E+007,  0.19000000000E+002,  0.00000000000E+000,  0.10000000000E+001
  0.18698900000E+008,  0.20063570523E+007,  0.19000000000E+002,  0.00000000000E+000,  0.10000000000E+001
  0.18713900000E+008,  0.20064842678E+007,  0.19000000000E+002,  0.00000000000E+000,  0.10000000000E+001
  0.18728900000E+008,  0.20066132266E+007,  0.19000000000E+002,  0.00000000000E+000,  0.10000000000E+001
  0.18743900000E+008,  0.20067366501E+007,  0.19000000000E+002,  0.00000000000E+000,  0.10000000000E+001
  0.18758900000E+008,  0.20068633866E+007,  0.19000000000E+002,  0.00000000000E+000,  0.10000000000E+001
  0.18773900000E+008,  0.20070198692E+007,  0.19000000000E+002,  0.00000000000E+000,  0.10000000000E+001
  0.18788900000E+008,  0.20071469428E+007,  0.19000000000E+002,  0.00000000000E+000,  0.10000000000E+001
  0.18803900000E+008,  0.20072647602E+007,  0.19000000000E+002,  0.00000000000E+000,  0.10000000000E+001
  0.18818900000E+008,  0.20074092161E+007,  0.19000000000E+002,  0.00000000000E+000,  0.10000000000E+001
  0.18833900000E+008,  0.20075572818E+007,  0.19000000000E+002,  0.00000000000E+000,  0.10000000000E+001
  0.18848900000E+008,  0.20076835642E+007,  0.19000000000E+002,  0.00000000000E+000,  0.10000000000E+001
  0.18863900000E+008,  0.20078038111E+007,  0.19000000000E+002,  0.00000000000E+000,  0.10000000000E+001
  0.18878900000E+008,  0.20079907295E+007,  0.19000000000E+002,  0.00000000000E+000,  0.10000000000E+001
  0.18893900000E+008,  0.20081329025E+007,  0.19000000000E+002,  0.00000000000E+000,  0.10000000000E+001
  0.18908900000E+008,  0.20082616782E+007,  0.19000000000E+002,  0.00000000000E+000,  0.10000000000E+001
  0.18923900000E+008,  0.20084220396E+007,  0.19000000000E+002,  0.00000000000E+000,  0.10000000000E+001
  0.18938900000E+008,  0.20085961874E+007,  0.19000000000E+002,  0.00000000000E+000,  0.10000000000E+001
  0.18953900000E+008,  0.20087381872E+007,  0.19000000000E+002,  0.00000000000E+000,  0.10000000000E+001
  0.18968900000E+008,  0.20088684245E+007,  0.19000000000E+002,  0.00000000000E+000,  0.10000000000E+001
  0.18983900000E+008,  0.20090870803E+007,  0.19000000000E+002,  0.00000000000E+000,  0.10000000000E+001
  0.18998900000E+008,  0.20092520592E+007,  0.19000000000E+002,  0.00000000000E+000,  0.10000000000E+001
  0.19013900000E+008,  0.20093967098E+007,  0.19000000000E+002,  0.00000000000E+000,  0.10000000000E+001
  0.19028900000E+008,  0.20095566301E+007,  0.19000000000E+002,  0.00000000000E+000,  0.10000000000E+001
  0.19043900000E+008,  0.20097297112E+007,  0.19000000000E+002,  0.00000000000E+000,  0.10000000000E+001
  0.19058900000E+008,  0.20098751181E+007,  0.19000000000E+002,  0.00000000000E+000,  0.10000000000E+001
  0.19073900000E+008,  0.20100096427E+007,  0.19000000000E+002,  0.00000000000E+000,  0.10000000000E+001
  0.19088900000E+008,  0.20102380811E+007,  0.19000000000E+002,  0.00000000000E+000,  0.10000000000E+001
  0.19103900000E+008,  0.20104185618E+007,  0.19000000000E+002,  0.00000000000E+000,  0.10000000000E+001
  0.19118900000E+008,  0.20105736043E+007,  0.19000000000E+002,  0.00000000000E+000,  0.10000000000E+001
  0.19133900000E+008,  0.20107471023E+007,  0.19000000000E+002,  0.00000000000E+000,  0.10000000000E+001
  0.19148900000E+008,  0.20109500312E+007,  0.19000000000E+002,  0.00000000000E+000,  0.10000000000E+001
  0.19163900000E+008,  0.20111132844E+007,  0.19000000000E+002,  0.00000000000E+000,  0.10000000000E+001
  0.19178900000E+008,  0.20112612254E+007,  0.19000000000E+002,  0.00000000000E+000,  0.10000000000E+001
  0.19193900000E+008,  0.20115040754E+007,  0.19000000000E+002,  0.00000000000E+000,  0.10000000000E+001
  0.19208900000E+008,  0.20117063150E+007,  0.19000000000E+002,  0.00000000000E+000,  0.10000000000E+001
  0.19223900000E+008,  0.20118759385E+007,  0.19000000000E+002,  0.00000000000E+000,  0.10000000000E+001
  0.19238900000E+008,  0.20120535555E+007,  0.19000000000E+002,  0.00000000000E+000,  0.10000000000E+001
  0.19253900000E+008,  0.20122627912E+007,  0.19000000000E+002,  0.00000000000E+000,  0.10000000000E+001
  0.19268900000E+008,  0.20124330511E+007,  0.19000000000E+002,  0.00000000000E+000,  0.10000000000E+001
  0.19283900000E+008,  0.20125875572E+007,  0.19000000000E+002,  0.00000000000E+000,  0.10000000000E+001
  0.19298900000E+008,  0.20128542162E+007,  0.19000000000E+002,  0.00000000000E+000,  0.10000000000E+001
  0.19313900000E+008,  0.20130868819E+007,  0.19000000000E+002,  0.00000000000E+000,  0.10000000000E+001
  0.19328900000E+008,  0.20132756875E+007,  0.19000000000E+002,  0.00000000000E+000,  0.10000000000E+001
  0.19343900000E+008,  0.20134790340E+007,  0.19000000000E+002,  0.00000000000E+000,  0.10000000000E+001
  0.19358900000E+008,  0.20137631637E+007,  0.19000000000E+002,  0.00000000000E+000,  0.10000000000E+001
  0.19373900000E+008,  0.20139753362E+007,  0.19000000000E+002,  0.00000000000E+000,  0.10000000000E+001
  0.19388900000E+008,  0.20141592378E+007,  0.19000000000E+002,  0.00000000000E+000,  0.10000000000E+001
  0.19403900000E+008,  0.20104304676E+007,  0.19000000000E+002,  0.00000000000E+000,  0.10000000000E+001
  0.19418900000E+008,  0.20070885189E+007,  0.19000000000E+002,  0.00000000000E+000,  0.10000000000E+001
  0.19433900000E+008,  0.20052812749E+007,  0.19000000000E+002,  0.00000000000E+000,  0.10000000000E+001
  0.19448900000E+008,  0.20041061979E+007,  0.19000000000E+002,  0.00000000000E+000,  0.10000000000E+001
  0.19463900000E+008,  0.20031889648E+007,  0.19000000000E+002,  0.00000000000E+000,  0.10000000000E+001
  0.19478900000E+008,  0.20026080133E+007,  0.19000000000E+002,  0.00000000000E+000,  0.10000000000E+001
  0.19493900000E+008,  0.20022241832E+007,  0.19000000000E+002,  0.00000000000E+000,  0.10000000000E+001
  0.19508900000E+008,  0.20020735521E+007,  0.19000000000E+002,  0.00000000000E+000,  0.10000000000E+001
  0.19523900000E+008,  0.20020097140E+007,  0.19000000000E+002,  0.00000000000E+000,  0.10000000000E+001
  0.19538900000E+008,  0.20019526970E+007,  0.19000000000E+002,  0.00000000000E+000,  0.10000000000E+001
  0.19553900000E+008,  0.20018939050E+007,  0.19000000000E+002,  0.00000000000E+000,  0.10000000000E+001
  0.19568900000E+008,  0.20017133650E+007,  0.19000000000E+002,  0.00000000000E+000,  0.10000000000E+001
  0.19583900000E+008,  0.20016214979E+007,  0.19000000000E+002,  0.00000000000E+000,  0.10000000000E+001
  0.19598900000E+008,  0.20015642677E+007,  0.19000000000E+002,  0.00000000000E+000,  0.10000000000E+001
  0.19613900000E+008,  0.20015504115E+007,  0.19000000000E+002,  0.00000000000E+000,  0.10000000000E+001
  0.19628900000E+008,  0.20015537410E+007,  0.19000000000E+002,  0.00000000000E+000,  0.10000000000E+001
  0.19643900000E+008,  0.20015519409E+007,  0.19000000000E+002,  0.00000000000E+000,  0.10000000000E+001
  0.19658900000E+008,  0.20015609943E+007,  0.19000000000E+002,  0.00000000000E+000,  0.10000000000E+001
  0.19673900000E+008,  0.20017578072E+007,  0.19000000000E+002,  0.00000000000E+000,  0.10000000000E+001
  0.19688900000E+008,  0.20018512029E+007,  0.19000000000E+002,  0.00000000000E+000,  0.10000000000E+001
  0.19703900000E+008,  0.20019081667E+007,  0.19000000000E+002,  0.00000000000E+000,  0.10000000000E+001
  0.19718900000E+008,  0.20018179712E+007,  0.19000000000E+002,  0.00000000000E+000,  0.10000000000E+001
  0.19733900000E+008,  0.20016649690E+007,  0.19000000000E+002,  0.00000000000E+000,  0.10000000000E+001
  0.19748900000E+008,  0.20015893517E+007,  0.19000000000E+002,  0.00000000000E+000,  0.10000000000E+001
  0.19763900000E+008,  0.20015428157E+007,  0.19000000000E+002,  0.00000000000E+000,  0.10000000000E+001
  0.19778900000E+008,  0.20015325796E+007,  0.19000000000E+002,  0.00000000000E+000,  0.10000000000E+001
  0.19793900000E+008,  0.20015221707E+007,  0.19000000000E+002,  0.00000000000E+000,  0.10000000000E+001
  0.19805800000E+008,  0.20015157442E+007,  0.19000000000E+002,  0.00000000000E+000,  0.10000000000E+001
  0.19820800000E+008,  0.20015051504E+007,  0.19000000000E+002,  0.00000000000E+000,  0.10000000000E+001
  0.19835800000E+008,  0.20014836459E+007,  0.19000000000E+002,  0.00000000000E+000,  0.10000000000E+001
  0.19850800000E+008,  0.20014724244E+007,  0.19000000000E+002,  0.00000000000E+000,  0.10000000000E+001
  0.19865800000E+008,  0.20014653838E+007,  0.19000000000E+002,  0.00000000000E+000,  0.10000000000E+001
  0.19880800000E+008,  0.20015931618E+007,  0.19000000000E+002,  0.00000000000E+000,  0.10000000000E+001
  0.19895800000E+008,  0.20017041417E+007,  0.19000000000E+002,  0.00000000000E+000,  0.10000000000E+001
  0.19910800000E+008,  0.20017645123E+007,  0.19000000000E+002,  0.00000000000E+000,  0.10000000000E+001
  0.19925800000E+008,  0.20018065823E+007,  0.19000000000E+002,  0.00000000000E+000,  0.10000000000E+001
  0.19940800000E+008,  0.20018502970E+007,  0.19000000000E+002,  0.00000000000E+000,  0.10000000000E+001
  0.19955800000E+008,  0.20018761635E+007,  0.19000000000E+002,  0.00000000000E+000,  0.10000000000E+001
  0.19970800000E+008,  0.20018930166E+007,  0.19000000000E+002,  0.00000000000E+000,  0.10000000000E+001
  0.19985800000E+008,  0.20017705071E+007,  0.19000000000E+002,  0.00000000000E+000,  0.10000000000E+001
  0.20000800000E+008,  0.20016438169E+007,  0.19000000000E+002,  0.00000000000E+000,  0.10000000000E+001
  0.20015800000E+008,  0.20015768150E+007,  0.19000000000E+002,  0.00000000000E+000,  0.10000000000E+001
  0.20030800000E+008,  0.20015347395E+007,  0.19000000000E+002,  0.00000000000E+000,  0.10000000000E+001
  0.20045800000E+008,  0.20015070938E+007,  0.19000000000E+002,  0.00000000000E+000,  0.10000000000E+001
  0.20060800000E+008,  0.20014886811E+007,  0.19000000000E+002,  0.00000000000E+000,  0.10000000000E+001
  0.20075800000E+008,  0.20014763725E+007,  0.19000000000E+002,  0.00000000000E+000,  0.10000000000E+001
  0.20090800000E+008,  0.20015653725E+007,  0.19000000000E+002,  0.00000000000E+000,  0.10000000000E+001
  0.20105800000E+008,  0.20016724984E+007,  0.19000000000E+002,  0.00000000000E+000,  0.10000000000E+001
  0.20120800000E+008,  0.20017283375E+007,  0.19000000000E+002,  0.00000000000E+000,  0.10000000000E+001
  0.20135800000E+008,  0.20017534614E+007,  0.19000000000E+002,  0.00000000000E+000,  0.10000000000E+001
  0.20150800000E+008,  0.20016176275E+007,  0.19000000000E+002,  0.00000000000E+000,  0.10000000000E+001
  0.20165800000E+008,  0.20015571825E+007,  0.19000000000E+002,  0.00000000000E+000,  0.10000000000E+001
  0.20180800000E+008,  0.20015211997E+007,  0.19000000000E+002,  0.00000000000E+000,  0.10000000000E+001
  0.20195800000E+008,  0.20014979613E+007,  0.19000000000E+002,  0.00000000000E+000,  0.10000000000E+001
  0.20210800000E+008,  0.20014825578E+007,  0.19000000000E+002,  0.00000000000E+000,  0.10000000000E+001
  0.20225800000E+008,  0.20014722731E+007,  0.19000000000E+002,  0.00000000000E+000,  0.10000000000E+001
  0.20240800000E+008,  0.20014653931E+007,  0.19000000000E+002,  0.00000000000E+000,  0.10000000000E+001
  0.20255800000E+008,  0.20014607882E+007,  0.19000000000E+002,  0.00000000000E+000,  0.10000000000E+001
  0.20270800000E+008,  0.20014577058E+007,  0.19000000000E+002,  0.00000000000E+000,  0.10000000000E+001
  0.20285800000E+008,  0.20014556424E+007,  0.19000000000E+002,  0.00000000000E+000,  0.10000000000E+001
  0.20300800000E+008,  0.20015213050E+007,  0.19000000000E+002,  0.00000000000E+000,  0.10000000000E+001
  0.20315800000E+008,  0.20016287262E+007,  0.19000000000E+002,  0.00000000000E+000,  0.10000000000E+001
  0.20330800000E+008,  0.20016836774E+007,  0.19000000000E+002,  0.00000000000E+000,  0.10000000000E+001
  0.20345800000E+008,  0.20017179163E+007,  0.19000000000E+002,  0.00000000000E+000,  0.10000000000E+001
  0.20360800000E+008,  0.20016062093E+007,  0.19000000000E+002,  0.00000000000E+000,  0.10000000000E+001
  0.20375800000E+008,  0.20015480974E+007,  0.19000000000E+002,  0.00000000000E+000,  0.10000000000E+001
  0.20390800000E+008,  0.20015149260E+007,  0.19000000000E+002,  0.00000000000E+000,  0.10000000000E+001
  0.20405800000E+008,  0.20015841256E+007,  0.19000000000E+002,  0.00000000000E+000,  0.10000000000E+001
  0.20420800000E+008,  0.20017485234E+007,  0.19000000000E+002,  0.00000000000E+000,  0.10000000000E+001
  0.20435800000E+008,  0.20018294523E+007,  0.19000000000E+002,  0.00000000000E+000,  0.10000000000E+001
  0.20450800000E+008,  0.20018793032E+007,  0.19000000000E+002,  0.00000000000E+000,  0.10000000000E+001
  0.20465800000E+008,  0.20018941388E+007,  0.19000000000E+002,  0.00000000000E+000,  0.10000000000E+001
  0.20480800000E+008,  0.20019047312E+007,  0.19000000000E+002,  0.00000000000E+000,  0.10000000000E+001
  0.20495800000E+008,  0.20019129027E+007,  0.19000000000E+002,  0.00000000000E+000,  0.10000000000E+001
  0.20510800000E+008,  0.20020867405E+007,  0.19000000000E+002,  0.00000000000E+000,  0.10000000000E+001
  0.20525800000E+008,  0.20024970054E+007,  0.19000000000E+002,  0.00000000000E+000,  0.10000000000E+001
  0.20540800000E+008,  0.20027035688E+007,  0.19000000000E+002,  0.00000000000E+000,  0.10000000000E+001
  0.20555800000E+008,  0.20028322086E+007,  0.19000000000E+002,  0.00000000000E+000,  0.10000000000E+001
  0.20570800000E+008,  0.20029012148E+007,  0.19000000000E+002,  0.00000000000E+000,  0.10000000000E+001
  0.20585800000E+008,  0.20029469974E+007,  0.19000000000E+002,  0.00000000000E+000,  0.10000000000E+001
  0.20600800000E+008,  0.20029794197E+007,  0.19000000000E+002,  0.00000000000E+000,  0.10000000000E+001
  0.20615800000E+008,  0.20030135932E+007,  0.19000000000E+002,  0.00000000000E+000,  0.10000000000E+001
  0.20630800000E+008,  0.20030658859E+007,  0.19000000000E+002,  0.00000000000E+000,  0.10000000000E+001
  0.20645800000E+008,  0.20030952669E+007,  0.19000000000E+002,  0.00000000000E+000,  0.10000000000E+001
  0.20660800000E+008,  0.20031147012E+007,  0.19000000000E+002,  0.00000000000E+000,  0.10000000000E+001
  0.20675800000E+008,  0.20031136143E+007,  0.19000000000E+002,  0.00000000000E+000,  0.10000000000E+001
  0.20690800000E+008,  0.20031112240E+007,  0.19000000000E+002,  0.00000000000E+000,  0.10000000000E+001
  0.20705800000E+008,  0.20031117039E+007,  0.19000000000E+002,  0.00000000000E+000,  0.10000000000E+001
  0.20720800000E+008,  0.20031176267E+007,  0.19000000000E+002,  0.00000000000E+000,  0.10000000000E+001
  0.20735800000E+008,  0.20031387694E+007,  0.19000000000E+002,  0.00000000000E+000,  0.10000000000E+001
  0.20750800000E+008,  0.20031501643E+007,  0.19000000000E+002,  0.00000000000E+000,  0.10000000000E+001
  0.20765800000E+008,  0.20031579836E+007,  0.19000000000E+002,  0.00000000000E+000,  0.10000000000E+001
