"           TIME(S)","              PRES","              TEMP","             SAT_G","             SAT_L"
  0.17592105000E+008,  0.21000000000E+007,  0.19000000000E+002,  0.00000000000E+000,  0.10000000000E+001
  0.17592130000E+008,  0.21000000075E+007,  0.19000000000E+002,  0.00000000000E+000,  0.10000000000E+001
  0.17592255000E+008,  0.20999958549E+007,  0.19000000000E+002,  0.00000000000E+000,  0.10000000000E+001
  0.17592405000E+008,  0.20999677322E+007,  0.19000000000E+002,  0.00000000000E+000,  0.10000000000E+001
  0.17592555000E+008,  0.20999022046E+007,  0.19000000000E+002,  0.00000000000E+000,  0.10000000000E+001
  0.17592705000E+008,  0.20997938068E+007,  0.19000000000E+002,  0.00000000000E+000,  0.10000000000E+001
  0.17592855000E+008,  0.20996449033E+007,  0.19000000000E+002,  0.00000000000E+000,  0.10000000000E+001
  0.17593005000E+008,  0.20994617617E+007,  0.19000000000E+002,  0.00000000000E+000,  0.10000000000E+001
  0.17593155000E+008,  0.20992518268E+007,  0.19000000000E+002,  0.00000000000E+000,  0.10000000000E+001
  0.17593305000E+008,  0.20990218798E+007,  0.19000000000E+002,  0.00000000000E+000,  0.10000000000E+001
  0.17593455000E+008,  0.20987773018E+007,  0.19000000000E+002,  0.00000000000E+000,  0.10000000000E+001
  0.17593605000E+008,  0.20985220979E+007,  0.19000000000E+002,  0.00000000000E+000,  0.10000000000E+001
  0.17593755000E+008,  0.20982591766E+007,  0.19000000000E+002,  0.00000000000E+000,  0.10000000000E+001
  0.17593905000E+008,  0.20979906530E+007,  0.19000000000E+002,  0.00000000000E+000,  0.10000000000E+001
  0.17594055000E+008,  0.20977180981E+007,  0.19000000000E+002,  0.00000000000E+000,  0.10000000000E+001
  0.17594205000E+008,  0.20974427203E+007,  0.19000000000E+002,  0.00000000000E+000,  0.10000000000E+001
  0.17594355000E+008,  0.20971654860E+007,  0.19000000000E+002,  0.00000000000E+000,  0.10000000000E+001
  0.17594505000E+008,  0.20968871977E+007,  0.19000000000E+002,  0.00000000000E+000,  0.10000000000E+001
  0.17594655000E+008,  0.20966085401E+007,  0.19000000000E+002,  0.00000000000E+000,  0.10000000000E+001
  0.17594805000E+008,  0.20963301083E+007,  0.19000000000E+002,  0.00000000000E+000,  0.10000000000E+001
  0.17594955000E+008,  0.20960524242E+007,  0.19000000000E+002,  0.00000000000E+000,  0.10000000000E+001
  0.17595105000E+008,  0.20957759460E+007,  0.19000000000E+002,  0.00000000000E+000,  0.10000000000E+001
  0.17595255000E+008,  0.20955010762E+007,  0.19000000000E+002,  0.00000000000E+000,  0.10000000000E+001
  0.17595405000E+008,  0.20952281652E+007,  0.19000000000E+002,  0.00000000000E+000,  0.10000000000E+001
  0.17595407344E+008,  0.20952239015E+007,  0.19000000000E+002,  0.00000000000E+000,  0.10000000000E+001
  0.17595408809E+008,  0.20952212368E+007,  0.19000000000E+002,  0.00000000000E+000,  0.10000000000E+001
  0.17595409724E+008,  0.20952195714E+007,  0.19000000000E+002,  0.00000000000E+000,  0.10000000000E+001
  0.17595414302E+008,  0.20952112465E+007,  0.19000000000E+002,  0.00000000000E+000,  0.10000000000E+001
  0.17595414659E+008,  0.20952105961E+007,  0.19000000000E+002,  0.00000000000E+000,  0.10000000000E+001
  0.17595414883E+008,  0.20952101897E+007,  0.19000000000E+002,  0.00000000000E+000,  0.10000000000E+001
  0.17595415023E+008,  0.20952099356E+007,  0.19000000000E+002,  0.00000000000E+000,  0.10000000000E+001
  0.17595415110E+008,  0.20952097768E+007,  0.19000000000E+002,  0.00000000000E+000,  0.10000000000E+001
  0.17595415546E+008,  0.20952089830E+007,  0.19000000000E+002,  0.00000000000E+000,  0.10000000000E+001
  0.17595415547E+008,  0.20952089830E+007,  0.19000000000E+002,  0.00000000000E+000,  0.10000000000E+001
  0.17595415547E+008,  0.20952089830E+007,  0.19000000000E+002,  0.00000000000E+000,  0.10000000000E+001
  0.17595415548E+008,  0.20952089830E+007,  0.19000000000E+002,  0.00000000000E+000,  0.10000000000E+001
