"           TIME(S)","              PRES","              TEMP","             SAT_G","             SAT_L"
  0.18228740000E+008,  0.20000000268E+007,  0.19000000000E+002,  0.00000000000E+000,  0.10000000000E+001
  0.18228890000E+008,  0.20000032391E+007,  0.19000000000E+002,  0.00000000000E+000,  0.10000000000E+001
  0.18229040000E+008,  0.20000102740E+007,  0.19000000000E+002,  0.00000000000E+000,  0.10000000000E+001
  0.18229190000E+008,  0.20000204157E+007,  0.19000000000E+002,  0.00000000000E+000,  0.10000000000E+001
  0.18229340000E+008,  0.20000325862E+007,  0.19000000000E+002,  0.00000000000E+000,  0.10000000000E+001
  0.18229490000E+008,  0.20000459029E+007,  0.19000000000E+002,  0.00000000000E+000,  0.10000000000E+001
  0.18229640000E+008,  0.20000598146E+007,  0.19000000000E+002,  0.00000000000E+000,  0.10000000000E+001
  0.18229790000E+008,  0.20000740107E+007,  0.19000000000E+002,  0.00000000000E+000,  0.10000000000E+001
  0.18229865000E+008,  0.20000811448E+007,  0.19000000000E+002,  0.00000000000E+000,  0.10000000000E+001
  0.18230015000E+008,  0.20000954032E+007,  0.19000000000E+002,  0.00000000000E+000,  0.10000000000E+001
  0.18230165000E+008,  0.20001096554E+007,  0.19000000000E+002,  0.00000000000E+000,  0.10000000000E+001
  0.18230315000E+008,  0.20001239897E+007,  0.19000000000E+002,  0.00000000000E+000,  0.10000000000E+001
  0.18230465000E+008,  0.20001385084E+007,  0.19000000000E+002,  0.00000000000E+000,  0.10000000000E+001
  0.18230615000E+008,  0.20001532904E+007,  0.19000000000E+002,  0.00000000000E+000,  0.10000000000E+001
  0.18230765000E+008,  0.20001683856E+007,  0.19000000000E+002,  0.00000000000E+000,  0.10000000000E+001
  0.18230915000E+008,  0.20001838210E+007,  0.19000000000E+002,  0.00000000000E+000,  0.10000000000E+001
  0.18231065000E+008,  0.20001996075E+007,  0.19000000000E+002,  0.00000000000E+000,  0.10000000000E+001
  0.18231215000E+008,  0.20002157456E+007,  0.19000000000E+002,  0.00000000000E+000,  0.10000000000E+001
  0.18231365000E+008,  0.20002322284E+007,  0.19000000000E+002,  0.00000000000E+000,  0.10000000000E+001
  0.18231515000E+008,  0.20002490438E+007,  0.19000000000E+002,  0.00000000000E+000,  0.10000000000E+001
  0.18231665000E+008,  0.20002661775E+007,  0.19000000000E+002,  0.00000000000E+000,  0.10000000000E+001
  0.18231815000E+008,  0.20002836153E+007,  0.19000000000E+002,  0.00000000000E+000,  0.10000000000E+001
  0.18231965000E+008,  0.20003013438E+007,  0.19000000000E+002,  0.00000000000E+000,  0.10000000000E+001
  0.18232115000E+008,  0.20003193504E+007,  0.19000000000E+002,  0.00000000000E+000,  0.10000000000E+001
  0.18232265000E+008,  0.20003376238E+007,  0.19000000000E+002,  0.00000000000E+000,  0.10000000000E+001
  0.18232415000E+008,  0.20003561536E+007,  0.19000000000E+002,  0.00000000000E+000,  0.10000000000E+001
  0.18232565000E+008,  0.20003749247E+007,  0.19000000000E+002,  0.00000000000E+000,  0.10000000000E+001
  0.18232640001E+008,  0.20003843665E+007,  0.19000000000E+002,  0.00000000000E+000,  0.10000000000E+001
  0.18232677501E+008,  0.20003891005E+007,  0.19000000000E+002,  0.00000000000E+000,  0.10000000000E+001
  0.18232827501E+008,  0.20004081769E+007,  0.19000000000E+002,  0.00000000000E+000,  0.10000000000E+001
  0.18232977501E+008,  0.20004273689E+007,  0.19000000000E+002,  0.00000000000E+000,  0.10000000000E+001
  0.18233052502E+008,  0.20004369924E+007,  0.19000000000E+002,  0.00000000000E+000,  0.10000000000E+001
  0.18233202502E+008,  0.20004563391E+007,  0.19000000000E+002,  0.00000000000E+000,  0.10000000000E+001
  0.18233352502E+008,  0.20004757949E+007,  0.19000000000E+002,  0.00000000000E+000,  0.10000000000E+001
  0.18233502502E+008,  0.20004953854E+007,  0.19000000000E+002,  0.00000000000E+000,  0.10000000000E+001
  0.18233652502E+008,  0.20005151399E+007,  0.19000000000E+002,  0.00000000000E+000,  0.10000000000E+001
  0.18233802502E+008,  0.20005350828E+007,  0.19000000000E+002,  0.00000000000E+000,  0.10000000000E+001
  0.18233952502E+008,  0.20005552300E+007,  0.19000000000E+002,  0.00000000000E+000,  0.10000000000E+001
  0.18234102502E+008,  0.20005755887E+007,  0.19000000000E+002,  0.00000000000E+000,  0.10000000000E+001
  0.18234252502E+008,  0.20005961590E+007,  0.19000000000E+002,  0.00000000000E+000,  0.10000000000E+001
  0.18234402502E+008,  0.20006169365E+007,  0.19000000000E+002,  0.00000000000E+000,  0.10000000000E+001
  0.18234552502E+008,  0.20006379141E+007,  0.19000000000E+002,  0.00000000000E+000,  0.10000000000E+001
  0.18234702502E+008,  0.20006590830E+007,  0.19000000000E+002,  0.00000000000E+000,  0.10000000000E+001
  0.18234852502E+008,  0.20006804333E+007,  0.19000000000E+002,  0.00000000000E+000,  0.10000000000E+001
  0.18235002502E+008,  0.20007019559E+007,  0.19000000000E+002,  0.00000000000E+000,  0.10000000000E+001
  0.18235152502E+008,  0.20007236418E+007,  0.19000000000E+002,  0.00000000000E+000,  0.10000000000E+001
  0.18235302502E+008,  0.20007454821E+007,  0.19000000000E+002,  0.00000000000E+000,  0.10000000000E+001
  0.18235452502E+008,  0.20007674695E+007,  0.19000000000E+002,  0.00000000000E+000,  0.10000000000E+001
  0.18235602502E+008,  0.20007895967E+007,  0.19000000000E+002,  0.00000000000E+000,  0.10000000000E+001
  0.18235752502E+008,  0.20008118569E+007,  0.19000000000E+002,  0.00000000000E+000,  0.10000000000E+001
  0.18235902502E+008,  0.20008342443E+007,  0.19000000000E+002,  0.00000000000E+000,  0.10000000000E+001
  0.18236052502E+008,  0.20008567537E+007,  0.19000000000E+002,  0.00000000000E+000,  0.10000000000E+001
  0.18236202502E+008,  0.20008793793E+007,  0.19000000000E+002,  0.00000000000E+000,  0.10000000000E+001
  0.18236352502E+008,  0.20009021170E+007,  0.19000000000E+002,  0.00000000000E+000,  0.10000000000E+001
  0.18236502502E+008,  0.20009249622E+007,  0.19000000000E+002,  0.00000000000E+000,  0.10000000000E+001
  0.18236652502E+008,  0.20009479106E+007,  0.19000000000E+002,  0.00000000000E+000,  0.10000000000E+001
  0.18236802502E+008,  0.20009709556E+007,  0.19000000000E+002,  0.00000000000E+000,  0.10000000000E+001
  0.18236877502E+008,  0.20009825006E+007,  0.19000000000E+002,  0.00000000000E+000,  0.10000000000E+001
  0.18236915003E+008,  0.20009882787E+007,  0.19000000000E+002,  0.00000000000E+000,  0.10000000000E+001
  0.18236933753E+008,  0.20009911691E+007,  0.19000000000E+002,  0.00000000000E+000,  0.10000000000E+001
  0.18237027505E+008,  0.20010056472E+007,  0.19000000000E+002,  0.00000000000E+000,  0.10000000000E+001
  0.18237074381E+008,  0.20010128914E+007,  0.19000000000E+002,  0.00000000000E+000,  0.10000000000E+001
  0.18237097819E+008,  0.20010165147E+007,  0.19000000000E+002,  0.00000000000E+000,  0.10000000000E+001
  0.18237215011E+008,  0.20010346291E+007,  0.19000000000E+002,  0.00000000000E+000,  0.10000000000E+001
  0.18237365011E+008,  0.20010577826E+007,  0.19000000000E+002,  0.00000000000E+000,  0.10000000000E+001
  0.18237440011E+008,  0.20010693504E+007,  0.19000000000E+002,  0.00000000000E+000,  0.10000000000E+001
  0.18237477511E+008,  0.20010751320E+007,  0.19000000000E+002,  0.00000000000E+000,  0.10000000000E+001
  0.18237627511E+008,  0.20010982285E+007,  0.19000000000E+002,  0.00000000000E+000,  0.10000000000E+001
  0.18237777511E+008,  0.20011213132E+007,  0.19000000000E+002,  0.00000000000E+000,  0.10000000000E+001
  0.18237852512E+008,  0.20011328546E+007,  0.19000000000E+002,  0.00000000000E+000,  0.10000000000E+001
  0.18237890012E+008,  0.20011386253E+007,  0.19000000000E+002,  0.00000000000E+000,  0.10000000000E+001
  0.18238040012E+008,  0.20011617141E+007,  0.19000000000E+002,  0.00000000000E+000,  0.10000000000E+001
  0.18238115013E+008,  0.20011732620E+007,  0.19000000000E+002,  0.00000000000E+000,  0.10000000000E+001
  0.18238152513E+008,  0.20011790370E+007,  0.19000000000E+002,  0.00000000000E+000,  0.10000000000E+001
  0.18238302513E+008,  0.20012021813E+007,  0.19000000000E+002,  0.00000000000E+000,  0.10000000000E+001
  0.18238452513E+008,  0.20012253930E+007,  0.19000000000E+002,  0.00000000000E+000,  0.10000000000E+001
  0.18238602513E+008,  0.20012486921E+007,  0.19000000000E+002,  0.00000000000E+000,  0.10000000000E+001
  0.18238677514E+008,  0.20012603658E+007,  0.19000000000E+002,  0.00000000000E+000,  0.10000000000E+001
  0.18238715014E+008,  0.20012662090E+007,  0.19000000000E+002,  0.00000000000E+000,  0.10000000000E+001
  0.18238733765E+008,  0.20012691322E+007,  0.19000000000E+002,  0.00000000000E+000,  0.10000000000E+001
  0.18238827516E+008,  0.20012837926E+007,  0.19000000000E+002,  0.00000000000E+000,  0.10000000000E+001
  0.18238977516E+008,  0.20013073714E+007,  0.19000000000E+002,  0.00000000000E+000,  0.10000000000E+001
  0.18239052517E+008,  0.20013191921E+007,  0.19000000000E+002,  0.00000000000E+000,  0.10000000000E+001
  0.18239090017E+008,  0.20013251103E+007,  0.19000000000E+002,  0.00000000000E+000,  0.10000000000E+001
  0.18239240017E+008,  0.20013489101E+007,  0.19000000000E+002,  0.00000000000E+000,  0.10000000000E+001
  0.18239390017E+008,  0.20013728336E+007,  0.19000000000E+002,  0.00000000000E+000,  0.10000000000E+001
  0.18239540017E+008,  0.20013968752E+007,  0.19000000000E+002,  0.00000000000E+000,  0.10000000000E+001
  0.18239690017E+008,  0.20014210284E+007,  0.19000000000E+002,  0.00000000000E+000,  0.10000000000E+001
  0.18239840017E+008,  0.20014452807E+007,  0.19000000000E+002,  0.00000000000E+000,  0.10000000000E+001
  0.18239915018E+008,  0.20014574284E+007,  0.19000000000E+002,  0.00000000000E+000,  0.10000000000E+001
  0.18239952518E+008,  0.20014635070E+007,  0.19000000000E+002,  0.00000000000E+000,  0.10000000000E+001
  0.18240102518E+008,  0.20014878356E+007,  0.19000000000E+002,  0.00000000000E+000,  0.10000000000E+001
  0.18240252518E+008,  0.20015121422E+007,  0.19000000000E+002,  0.00000000000E+000,  0.10000000000E+001
  0.18240402518E+008,  0.20015364186E+007,  0.19000000000E+002,  0.00000000000E+000,  0.10000000000E+001
  0.18240477519E+008,  0.20015485497E+007,  0.19000000000E+002,  0.00000000000E+000,  0.10000000000E+001
  0.18240515019E+008,  0.20015546136E+007,  0.19000000000E+002,  0.00000000000E+000,  0.10000000000E+001
  0.18240665019E+008,  0.20015788529E+007,  0.19000000000E+002,  0.00000000000E+000,  0.10000000000E+001
  0.18240740020E+008,  0.20015909698E+007,  0.19000000000E+002,  0.00000000000E+000,  0.10000000000E+001
  0.18240777520E+008,  0.20015970277E+007,  0.19000000000E+002,  0.00000000000E+000,  0.10000000000E+001
  0.18240927520E+008,  0.20016212376E+007,  0.19000000000E+002,  0.00000000000E+000,  0.10000000000E+001
  0.18241002521E+008,  0.20016333334E+007,  0.19000000000E+002,  0.00000000000E+000,  0.10000000000E+001
  0.18241040021E+008,  0.20016393786E+007,  0.19000000000E+002,  0.00000000000E+000,  0.10000000000E+001
  0.18241058771E+008,  0.20016424004E+007,  0.19000000000E+002,  0.00000000000E+000,  0.10000000000E+001
  0.18241152523E+008,  0.20016574701E+007,  0.19000000000E+002,  0.00000000000E+000,  0.10000000000E+001
  0.18241302523E+008,  0.20016814150E+007,  0.19000000000E+002,  0.00000000000E+000,  0.10000000000E+001
  0.18241377524E+008,  0.20016933384E+007,  0.19000000000E+002,  0.00000000000E+000,  0.10000000000E+001
  0.18241527524E+008,  0.20017169593E+007,  0.19000000000E+002,  0.00000000000E+000,  0.10000000000E+001
  0.18241602524E+008,  0.20017287103E+007,  0.19000000000E+002,  0.00000000000E+000,  0.10000000000E+001
  0.18241752524E+008,  0.20017519758E+007,  0.19000000000E+002,  0.00000000000E+000,  0.10000000000E+001
  0.18241902524E+008,  0.20017750264E+007,  0.19000000000E+002,  0.00000000000E+000,  0.10000000000E+001
  0.18241977525E+008,  0.20017865004E+007,  0.19000000000E+002,  0.00000000000E+000,  0.10000000000E+001
  0.18242127525E+008,  0.20018092716E+007,  0.19000000000E+002,  0.00000000000E+000,  0.10000000000E+001
  0.18242277525E+008,  0.20018319076E+007,  0.19000000000E+002,  0.00000000000E+000,  0.10000000000E+001
  0.18242427525E+008,  0.20018544568E+007,  0.19000000000E+002,  0.00000000000E+000,  0.10000000000E+001
  0.18242577525E+008,  0.20018769583E+007,  0.19000000000E+002,  0.00000000000E+000,  0.10000000000E+001
  0.18242652525E+008,  0.20018882000E+007,  0.19000000000E+002,  0.00000000000E+000,  0.10000000000E+001
  0.18242690026E+008,  0.20018938188E+007,  0.19000000000E+002,  0.00000000000E+000,  0.10000000000E+001
  0.18242840026E+008,  0.20019162569E+007,  0.19000000000E+002,  0.00000000000E+000,  0.10000000000E+001
  0.18242915026E+008,  0.20019274641E+007,  0.19000000000E+002,  0.00000000000E+000,  0.10000000000E+001
  0.18243065026E+008,  0.20019498050E+007,  0.19000000000E+002,  0.00000000000E+000,  0.10000000000E+001
  0.18243140026E+008,  0.20019609531E+007,  0.19000000000E+002,  0.00000000000E+000,  0.10000000000E+001
  0.18243290026E+008,  0.20019831193E+007,  0.19000000000E+002,  0.00000000000E+000,  0.10000000000E+001
  0.18243440026E+008,  0.20020051255E+007,  0.19000000000E+002,  0.00000000000E+000,  0.10000000000E+001
  0.18243515027E+008,  0.20020160836E+007,  0.19000000000E+002,  0.00000000000E+000,  0.10000000000E+001
  0.18243665027E+008,  0.20020377843E+007,  0.19000000000E+002,  0.00000000000E+000,  0.10000000000E+001
  0.18243815027E+008,  0.20020592652E+007,  0.19000000000E+002,  0.00000000000E+000,  0.10000000000E+001
  0.18243890027E+008,  0.20020699519E+007,  0.19000000000E+002,  0.00000000000E+000,  0.10000000000E+001
  0.18244040027E+008,  0.20020911303E+007,  0.19000000000E+002,  0.00000000000E+000,  0.10000000000E+001
  0.18244190027E+008,  0.20021121358E+007,  0.19000000000E+002,  0.00000000000E+000,  0.10000000000E+001
  0.18244265028E+008,  0.20021225968E+007,  0.19000000000E+002,  0.00000000000E+000,  0.10000000000E+001
  0.18244415028E+008,  0.20021433537E+007,  0.19000000000E+002,  0.00000000000E+000,  0.10000000000E+001
  0.18244490028E+008,  0.20021536900E+007,  0.19000000000E+002,  0.00000000000E+000,  0.10000000000E+001
  0.18244640028E+008,  0.20021741950E+007,  0.19000000000E+002,  0.00000000000E+000,  0.10000000000E+001
  0.18244790028E+008,  0.20021945485E+007,  0.19000000000E+002,  0.00000000000E+000,  0.10000000000E+001
  0.18244940028E+008,  0.20022147768E+007,  0.19000000000E+002,  0.00000000000E+000,  0.10000000000E+001
  0.18245090028E+008,  0.20022349111E+007,  0.19000000000E+002,  0.00000000000E+000,  0.10000000000E+001
  0.18245240028E+008,  0.20022549831E+007,  0.19000000000E+002,  0.00000000000E+000,  0.10000000000E+001
  0.18245390028E+008,  0.20022750258E+007,  0.19000000000E+002,  0.00000000000E+000,  0.10000000000E+001
  0.18245540028E+008,  0.20022950624E+007,  0.19000000000E+002,  0.00000000000E+000,  0.10000000000E+001
  0.18245690028E+008,  0.20023151157E+007,  0.19000000000E+002,  0.00000000000E+000,  0.10000000000E+001
  0.18245840028E+008,  0.20023352068E+007,  0.19000000000E+002,  0.00000000000E+000,  0.10000000000E+001
  0.18245990028E+008,  0.20023553534E+007,  0.19000000000E+002,  0.00000000000E+000,  0.10000000000E+001
  0.18246140028E+008,  0.20023755698E+007,  0.19000000000E+002,  0.00000000000E+000,  0.10000000000E+001
  0.18246290028E+008,  0.20023958676E+007,  0.19000000000E+002,  0.00000000000E+000,  0.10000000000E+001
  0.18246440028E+008,  0.20024162559E+007,  0.19000000000E+002,  0.00000000000E+000,  0.10000000000E+001
  0.18246590028E+008,  0.20024367422E+007,  0.19000000000E+002,  0.00000000000E+000,  0.10000000000E+001
  0.18246740028E+008,  0.20024573320E+007,  0.19000000000E+002,  0.00000000000E+000,  0.10000000000E+001
  0.18246890028E+008,  0.20024780296E+007,  0.19000000000E+002,  0.00000000000E+000,  0.10000000000E+001
  0.18247040028E+008,  0.20024988384E+007,  0.19000000000E+002,  0.00000000000E+000,  0.10000000000E+001
  0.18247190028E+008,  0.20025197613E+007,  0.19000000000E+002,  0.00000000000E+000,  0.10000000000E+001
  0.18247340028E+008,  0.20025407989E+007,  0.19000000000E+002,  0.00000000000E+000,  0.10000000000E+001
  0.18247490028E+008,  0.20025619524E+007,  0.19000000000E+002,  0.00000000000E+000,  0.10000000000E+001
  0.18247640028E+008,  0.20025832222E+007,  0.19000000000E+002,  0.00000000000E+000,  0.10000000000E+001
  0.18247790028E+008,  0.20026046076E+007,  0.19000000000E+002,  0.00000000000E+000,  0.10000000000E+001
  0.18247940028E+008,  0.20026261085E+007,  0.19000000000E+002,  0.00000000000E+000,  0.10000000000E+001
  0.18248090028E+008,  0.20026477245E+007,  0.19000000000E+002,  0.00000000000E+000,  0.10000000000E+001
  0.18248240028E+008,  0.20026694542E+007,  0.19000000000E+002,  0.00000000000E+000,  0.10000000000E+001
  0.18248390028E+008,  0.20026912966E+007,  0.19000000000E+002,  0.00000000000E+000,  0.10000000000E+001
  0.18248540028E+008,  0.20027132507E+007,  0.19000000000E+002,  0.00000000000E+000,  0.10000000000E+001
  0.18248690028E+008,  0.20027353148E+007,  0.19000000000E+002,  0.00000000000E+000,  0.10000000000E+001
  0.18248840028E+008,  0.20027574873E+007,  0.19000000000E+002,  0.00000000000E+000,  0.10000000000E+001
  0.18248990028E+008,  0.20027797666E+007,  0.19000000000E+002,  0.00000000000E+000,  0.10000000000E+001
  0.18249140028E+008,  0.20028021513E+007,  0.19000000000E+002,  0.00000000000E+000,  0.10000000000E+001
  0.18249290028E+008,  0.20028246396E+007,  0.19000000000E+002,  0.00000000000E+000,  0.10000000000E+001
  0.18249440028E+008,  0.20028472296E+007,  0.19000000000E+002,  0.00000000000E+000,  0.10000000000E+001
  0.18249590028E+008,  0.20028699197E+007,  0.19000000000E+002,  0.00000000000E+000,  0.10000000000E+001
  0.18249740028E+008,  0.20028927082E+007,  0.19000000000E+002,  0.00000000000E+000,  0.10000000000E+001
  0.18249890028E+008,  0.20029155934E+007,  0.19000000000E+002,  0.00000000000E+000,  0.10000000000E+001
  0.18250040028E+008,  0.20029385734E+007,  0.19000000000E+002,  0.00000000000E+000,  0.10000000000E+001
  0.18250190028E+008,  0.20029616466E+007,  0.19000000000E+002,  0.00000000000E+000,  0.10000000000E+001
  0.18250340028E+008,  0.20029848112E+007,  0.19000000000E+002,  0.00000000000E+000,  0.10000000000E+001
  0.18250490028E+008,  0.20030080659E+007,  0.19000000000E+002,  0.00000000000E+000,  0.10000000000E+001
  0.18250640028E+008,  0.20030314085E+007,  0.19000000000E+002,  0.00000000000E+000,  0.10000000000E+001
  0.18250790028E+008,  0.20030548376E+007,  0.19000000000E+002,  0.00000000000E+000,  0.10000000000E+001
  0.18250940028E+008,  0.20030783518E+007,  0.19000000000E+002,  0.00000000000E+000,  0.10000000000E+001
  0.18251090028E+008,  0.20031019494E+007,  0.19000000000E+002,  0.00000000000E+000,  0.10000000000E+001
  0.18251240028E+008,  0.20031256288E+007,  0.19000000000E+002,  0.00000000000E+000,  0.10000000000E+001
  0.18251390028E+008,  0.20031493884E+007,  0.19000000000E+002,  0.00000000000E+000,  0.10000000000E+001
  0.18251540028E+008,  0.20031732270E+007,  0.19000000000E+002,  0.00000000000E+000,  0.10000000000E+001
  0.18251690028E+008,  0.20031971430E+007,  0.19000000000E+002,  0.00000000000E+000,  0.10000000000E+001
  0.18251840028E+008,  0.20032211350E+007,  0.19000000000E+002,  0.00000000000E+000,  0.10000000000E+001
  0.18251990028E+008,  0.20032452015E+007,  0.19000000000E+002,  0.00000000000E+000,  0.10000000000E+001
  0.18252140028E+008,  0.20032693413E+007,  0.19000000000E+002,  0.00000000000E+000,  0.10000000000E+001
  0.18252290028E+008,  0.20032935532E+007,  0.19000000000E+002,  0.00000000000E+000,  0.10000000000E+001
  0.18252440028E+008,  0.20033178356E+007,  0.19000000000E+002,  0.00000000000E+000,  0.10000000000E+001
  0.18252590028E+008,  0.20033421872E+007,  0.19000000000E+002,  0.00000000000E+000,  0.10000000000E+001
  0.18252740028E+008,  0.20033666071E+007,  0.19000000000E+002,  0.00000000000E+000,  0.10000000000E+001
  0.18252890028E+008,  0.20033910939E+007,  0.19000000000E+002,  0.00000000000E+000,  0.10000000000E+001
  0.18253040028E+008,  0.20034156464E+007,  0.19000000000E+002,  0.00000000000E+000,  0.10000000000E+001
