"           TIME(S)","              PRES","              TEMP","             SAT_G","             SAT_L"
  0.17592150000E+008,  0.21000002460E+007,  0.19000000000E+002,  0.00000000000E+000,  0.10000000000E+001
  0.17592300000E+008,  0.21000010577E+007,  0.19000000000E+002,  0.00000000000E+000,  0.10000000000E+001
  0.17592450000E+008,  0.20999970958E+007,  0.19000000000E+002,  0.00000000000E+000,  0.10000000000E+001
  0.17592600000E+008,  0.20999865468E+007,  0.19000000000E+002,  0.00000000000E+000,  0.10000000000E+001
  0.17592750000E+008,  0.20999678238E+007,  0.19000000000E+002,  0.00000000000E+000,  0.10000000000E+001
  0.17592900000E+008,  0.20999407974E+007,  0.19000000000E+002,  0.00000000000E+000,  0.10000000000E+001
  0.17593050000E+008,  0.20999059112E+007,  0.19000000000E+002,  0.00000000000E+000,  0.10000000000E+001
  0.17593200000E+008,  0.20998639967E+007,  0.19000000000E+002,  0.00000000000E+000,  0.10000000000E+001
  0.17593350000E+008,  0.20998160282E+007,  0.19000000000E+002,  0.00000000000E+000,  0.10000000000E+001
  0.17593500000E+008,  0.20997629274E+007,  0.19000000000E+002,  0.00000000000E+000,  0.10000000000E+001
  0.17593650000E+008,  0.20997054816E+007,  0.19000000000E+002,  0.00000000000E+000,  0.10000000000E+001
  0.17593800000E+008,  0.20996443333E+007,  0.19000000000E+002,  0.00000000000E+000,  0.10000000000E+001
  0.17593950000E+008,  0.20995800010E+007,  0.19000000000E+002,  0.00000000000E+000,  0.10000000000E+001
  0.17594100000E+008,  0.20995129067E+007,  0.19000000000E+002,  0.00000000000E+000,  0.10000000000E+001
  0.17594250000E+008,  0.20994434020E+007,  0.19000000000E+002,  0.00000000000E+000,  0.10000000000E+001
  0.17594400000E+008,  0.20993717865E+007,  0.19000000000E+002,  0.00000000000E+000,  0.10000000000E+001
  0.17594550000E+008,  0.20992983210E+007,  0.19000000000E+002,  0.00000000000E+000,  0.10000000000E+001
  0.17594700000E+008,  0.20992232364E+007,  0.19000000000E+002,  0.00000000000E+000,  0.10000000000E+001
  0.17594850000E+008,  0.20991467387E+007,  0.19000000000E+002,  0.00000000000E+000,  0.10000000000E+001
  0.17595000000E+008,  0.20990690130E+007,  0.19000000000E+002,  0.00000000000E+000,  0.10000000000E+001
  0.17595150000E+008,  0.20989902674E+007,  0.19000000000E+002,  0.00000000000E+000,  0.10000000000E+001
  0.17595225000E+008,  0.20989507874E+007,  0.19000000000E+002,  0.00000000000E+000,  0.10000000000E+001
  0.17595262501E+008,  0.20989310187E+007,  0.19000000000E+002,  0.00000000000E+000,  0.10000000000E+001
  0.17595412501E+008,  0.20988515125E+007,  0.19000000000E+002,  0.00000000000E+000,  0.10000000000E+001
  0.17595487501E+008,  0.20988118700E+007,  0.19000000000E+002,  0.00000000000E+000,  0.10000000000E+001
  0.17595525002E+008,  0.20987921070E+007,  0.19000000000E+002,  0.00000000000E+000,  0.10000000000E+001
  0.17595543752E+008,  0.20987822392E+007,  0.19000000000E+002,  0.00000000000E+000,  0.10000000000E+001
  0.17595553127E+008,  0.20987773141E+007,  0.19000000000E+002,  0.00000000000E+000,  0.10000000000E+001
  0.17595557815E+008,  0.20987748543E+007,  0.19000000000E+002,  0.00000000000E+000,  0.10000000000E+001
  0.17595560159E+008,  0.20987736252E+007,  0.19000000000E+002,  0.00000000000E+000,  0.10000000000E+001
  0.17595571878E+008,  0.20987674967E+007,  0.19000000000E+002,  0.00000000000E+000,  0.10000000000E+001
  0.17595630474E+008,  0.20987369726E+007,  0.19000000000E+002,  0.00000000000E+000,  0.10000000000E+001
  0.17595780474E+008,  0.20986592617E+007,  0.19000000000E+002,  0.00000000000E+000,  0.10000000000E+001
  0.17595930474E+008,  0.20985819286E+007,  0.19000000000E+002,  0.00000000000E+000,  0.10000000000E+001
  0.17596080474E+008,  0.20985048569E+007,  0.19000000000E+002,  0.00000000000E+000,  0.10000000000E+001
  0.17596230474E+008,  0.20984279369E+007,  0.19000000000E+002,  0.00000000000E+000,  0.10000000000E+001
  0.17596380474E+008,  0.20983511038E+007,  0.19000000000E+002,  0.00000000000E+000,  0.10000000000E+001
  0.17596455475E+008,  0.20983129356E+007,  0.19000000000E+002,  0.00000000000E+000,  0.10000000000E+001
  0.17596492975E+008,  0.20982939617E+007,  0.19000000000E+002,  0.00000000000E+000,  0.10000000000E+001
  0.17596511725E+008,  0.20982845487E+007,  0.19000000000E+002,  0.00000000000E+000,  0.10000000000E+001
  0.17596521101E+008,  0.20982798630E+007,  0.19000000000E+002,  0.00000000000E+000,  0.10000000000E+001
  0.17596567977E+008,  0.20982564561E+007,  0.19000000000E+002,  0.00000000000E+000,  0.10000000000E+001
  0.17596717977E+008,  0.20981818440E+007,  0.19000000000E+002,  0.00000000000E+000,  0.10000000000E+001
  0.17596792977E+008,  0.20981455377E+007,  0.19000000000E+002,  0.00000000000E+000,  0.10000000000E+001
  0.17596830478E+008,  0.20981280200E+007,  0.19000000000E+002,  0.00000000000E+000,  0.10000000000E+001
  0.17596849228E+008,  0.20981202260E+007,  0.19000000000E+002,  0.00000000000E+000,  0.10000000000E+001
  0.17596858603E+008,  0.20981165358E+007,  0.19000000000E+002,  0.00000000000E+000,  0.10000000000E+001
  0.17596863291E+008,  0.20981147971E+007,  0.19000000000E+002,  0.00000000000E+000,  0.10000000000E+001
  0.17596886729E+008,  0.20981046451E+007,  0.19000000000E+002,  0.00000000000E+000,  0.10000000000E+001
  0.17596898449E+008,  0.20981023630E+007,  0.19000000000E+002,  0.00000000000E+000,  0.10000000000E+001
  0.17596957045E+008,  0.20980772059E+007,  0.19000000000E+002,  0.00000000000E+000,  0.10000000000E+001
  0.17597107045E+008,  0.20980028120E+007,  0.19000000000E+002,  0.00000000000E+000,  0.10000000000E+001
  0.17597257045E+008,  0.20979270265E+007,  0.19000000000E+002,  0.00000000000E+000,  0.10000000000E+001
  0.17597407045E+008,  0.20978501927E+007,  0.19000000000E+002,  0.00000000000E+000,  0.10000000000E+001
  0.17597557045E+008,  0.20977723768E+007,  0.19000000000E+002,  0.00000000000E+000,  0.10000000000E+001
  0.17597707045E+008,  0.20976935967E+007,  0.19000000000E+002,  0.00000000000E+000,  0.10000000000E+001
  0.17597857045E+008,  0.20976138553E+007,  0.19000000000E+002,  0.00000000000E+000,  0.10000000000E+001
  0.17598007045E+008,  0.20975331462E+007,  0.19000000000E+002,  0.00000000000E+000,  0.10000000000E+001
  0.17598157045E+008,  0.20974514517E+007,  0.19000000000E+002,  0.00000000000E+000,  0.10000000000E+001
  0.17598307045E+008,  0.20973687463E+007,  0.19000000000E+002,  0.00000000000E+000,  0.10000000000E+001
  0.17598457045E+008,  0.20972849990E+007,  0.19000000000E+002,  0.00000000000E+000,  0.10000000000E+001
  0.17598607045E+008,  0.20972001757E+007,  0.19000000000E+002,  0.00000000000E+000,  0.10000000000E+001
  0.17598757045E+008,  0.20971142398E+007,  0.19000000000E+002,  0.00000000000E+000,  0.10000000000E+001
  0.17598907045E+008,  0.20970271539E+007,  0.19000000000E+002,  0.00000000000E+000,  0.10000000000E+001
  0.17599057045E+008,  0.20969388797E+007,  0.19000000000E+002,  0.00000000000E+000,  0.10000000000E+001
  0.17599207045E+008,  0.20968493787E+007,  0.19000000000E+002,  0.00000000000E+000,  0.10000000000E+001
  0.17599357045E+008,  0.20967586123E+007,  0.19000000000E+002,  0.00000000000E+000,  0.10000000000E+001
  0.17599507045E+008,  0.20966665424E+007,  0.19000000000E+002,  0.00000000000E+000,  0.10000000000E+001
  0.17599657045E+008,  0.20965731309E+007,  0.19000000000E+002,  0.00000000000E+000,  0.10000000000E+001
  0.17599807045E+008,  0.20964783405E+007,  0.19000000000E+002,  0.00000000000E+000,  0.10000000000E+001
  0.17599957045E+008,  0.20963821340E+007,  0.19000000000E+002,  0.00000000000E+000,  0.10000000000E+001
  0.17600107045E+008,  0.20962844753E+007,  0.19000000000E+002,  0.00000000000E+000,  0.10000000000E+001
  0.17600257045E+008,  0.20961853287E+007,  0.19000000000E+002,  0.00000000000E+000,  0.10000000000E+001
  0.17600407045E+008,  0.20960846591E+007,  0.19000000000E+002,  0.00000000000E+000,  0.10000000000E+001
  0.17600557045E+008,  0.20959824325E+007,  0.19000000000E+002,  0.00000000000E+000,  0.10000000000E+001
  0.17600707045E+008,  0.20958786155E+007,  0.19000000000E+002,  0.00000000000E+000,  0.10000000000E+001
  0.17600857045E+008,  0.20957731755E+007,  0.19000000000E+002,  0.00000000000E+000,  0.10000000000E+001
  0.17601007045E+008,  0.20956660809E+007,  0.19000000000E+002,  0.00000000000E+000,  0.10000000000E+001
  0.17601157045E+008,  0.20955573010E+007,  0.19000000000E+002,  0.00000000000E+000,  0.10000000000E+001
  0.17601307045E+008,  0.20954468059E+007,  0.19000000000E+002,  0.00000000000E+000,  0.10000000000E+001
  0.17601457045E+008,  0.20953345668E+007,  0.19000000000E+002,  0.00000000000E+000,  0.10000000000E+001
  0.17601607045E+008,  0.20952205559E+007,  0.19000000000E+002,  0.00000000000E+000,  0.10000000000E+001
  0.17601757045E+008,  0.20951047463E+007,  0.19000000000E+002,  0.00000000000E+000,  0.10000000000E+001
  0.17601907045E+008,  0.20949871124E+007,  0.19000000000E+002,  0.00000000000E+000,  0.10000000000E+001
  0.17602057045E+008,  0.20948676296E+007,  0.19000000000E+002,  0.00000000000E+000,  0.10000000000E+001
  0.17602207045E+008,  0.20947462741E+007,  0.19000000000E+002,  0.00000000000E+000,  0.10000000000E+001
  0.17602357045E+008,  0.20946230238E+007,  0.19000000000E+002,  0.00000000000E+000,  0.10000000000E+001
  0.17602507045E+008,  0.20944978573E+007,  0.19000000000E+002,  0.00000000000E+000,  0.10000000000E+001
  0.17602657045E+008,  0.20943707546E+007,  0.19000000000E+002,  0.00000000000E+000,  0.10000000000E+001
  0.17602807045E+008,  0.20942416970E+007,  0.19000000000E+002,  0.00000000000E+000,  0.10000000000E+001
  0.17602957045E+008,  0.20941106668E+007,  0.19000000000E+002,  0.00000000000E+000,  0.10000000000E+001
  0.17603107045E+008,  0.20939776479E+007,  0.19000000000E+002,  0.00000000000E+000,  0.10000000000E+001
  0.17603257045E+008,  0.20938426251E+007,  0.19000000000E+002,  0.00000000000E+000,  0.10000000000E+001
  0.17603407045E+008,  0.20937055849E+007,  0.19000000000E+002,  0.00000000000E+000,  0.10000000000E+001
  0.17603557045E+008,  0.20935666607E+007,  0.19000000000E+002,  0.00000000000E+000,  0.10000000000E+001
  0.17603707045E+008,  0.20934262586E+007,  0.19000000000E+002,  0.00000000000E+000,  0.10000000000E+001
  0.17603857045E+008,  0.20932842944E+007,  0.19000000000E+002,  0.00000000000E+000,  0.10000000000E+001
  0.17604007045E+008,  0.20931406414E+007,  0.19000000000E+002,  0.00000000000E+000,  0.10000000000E+001
  0.17604157045E+008,  0.20929957265E+007,  0.19000000000E+002,  0.00000000000E+000,  0.10000000000E+001
  0.17604307045E+008,  0.20928498479E+007,  0.19000000000E+002,  0.00000000000E+000,  0.10000000000E+001
  0.17604457045E+008,  0.20927028961E+007,  0.19000000000E+002,  0.00000000000E+000,  0.10000000000E+001
  0.17604607045E+008,  0.20925549841E+007,  0.19000000000E+002,  0.00000000000E+000,  0.10000000000E+001
  0.17604757045E+008,  0.20924062589E+007,  0.19000000000E+002,  0.00000000000E+000,  0.10000000000E+001
  0.17604907045E+008,  0.20922575485E+007,  0.19000000000E+002,  0.00000000000E+000,  0.10000000000E+001
  0.17605057045E+008,  0.20921084981E+007,  0.19000000000E+002,  0.00000000000E+000,  0.10000000000E+001
  0.17605207045E+008,  0.20919587218E+007,  0.19000000000E+002,  0.00000000000E+000,  0.10000000000E+001
  0.17605357045E+008,  0.20918080214E+007,  0.19000000000E+002,  0.00000000000E+000,  0.10000000000E+001
  0.17605507045E+008,  0.20916563081E+007,  0.19000000000E+002,  0.00000000000E+000,  0.10000000000E+001
  0.17605657045E+008,  0.20915035466E+007,  0.19000000000E+002,  0.00000000000E+000,  0.10000000000E+001
  0.17605807045E+008,  0.20913497909E+007,  0.19000000000E+002,  0.00000000000E+000,  0.10000000000E+001
  0.17605957045E+008,  0.20911950902E+007,  0.19000000000E+002,  0.00000000000E+000,  0.10000000000E+001
  0.17606107045E+008,  0.20910402296E+007,  0.19000000000E+002,  0.00000000000E+000,  0.10000000000E+001
  0.17606257045E+008,  0.20908850565E+007,  0.19000000000E+002,  0.00000000000E+000,  0.10000000000E+001
  0.17606407045E+008,  0.20907293631E+007,  0.19000000000E+002,  0.00000000000E+000,  0.10000000000E+001
  0.17606557045E+008,  0.20905737329E+007,  0.19000000000E+002,  0.00000000000E+000,  0.10000000000E+001
  0.17606707045E+008,  0.20904191673E+007,  0.19000000000E+002,  0.00000000000E+000,  0.10000000000E+001
  0.17606857045E+008,  0.20902651546E+007,  0.19000000000E+002,  0.00000000000E+000,  0.10000000000E+001
  0.17607007045E+008,  0.20901111116E+007,  0.19000000000E+002,  0.00000000000E+000,  0.10000000000E+001
  0.17607157045E+008,  0.20899568454E+007,  0.19000000000E+002,  0.00000000000E+000,  0.10000000000E+001
  0.17607307045E+008,  0.20898023127E+007,  0.19000000000E+002,  0.00000000000E+000,  0.10000000000E+001
  0.17607457045E+008,  0.20896475205E+007,  0.19000000000E+002,  0.00000000000E+000,  0.10000000000E+001
  0.17607607045E+008,  0.20894924948E+007,  0.19000000000E+002,  0.00000000000E+000,  0.10000000000E+001
  0.17607757045E+008,  0.20893373501E+007,  0.19000000000E+002,  0.00000000000E+000,  0.10000000000E+001
  0.17607907045E+008,  0.20891828167E+007,  0.19000000000E+002,  0.00000000000E+000,  0.10000000000E+001
  0.17608057045E+008,  0.20890288447E+007,  0.19000000000E+002,  0.00000000000E+000,  0.10000000000E+001
  0.17608207045E+008,  0.20888758612E+007,  0.19000000000E+002,  0.00000000000E+000,  0.10000000000E+001
  0.17608357045E+008,  0.20887235617E+007,  0.19000000000E+002,  0.00000000000E+000,  0.10000000000E+001
  0.17608507045E+008,  0.20885733953E+007,  0.19000000000E+002,  0.00000000000E+000,  0.10000000000E+001
  0.17608657045E+008,  0.20884278336E+007,  0.19000000000E+002,  0.00000000000E+000,  0.10000000000E+001
  0.17608807045E+008,  0.20882854421E+007,  0.19000000000E+002,  0.00000000000E+000,  0.10000000000E+001
  0.17608957045E+008,  0.20881447971E+007,  0.19000000000E+002,  0.00000000000E+000,  0.10000000000E+001
  0.17609107045E+008,  0.20880112131E+007,  0.19000000000E+002,  0.00000000000E+000,  0.10000000000E+001
  0.17609257045E+008,  0.20878850497E+007,  0.19000000000E+002,  0.00000000000E+000,  0.10000000000E+001
  0.17609407045E+008,  0.20877680678E+007,  0.19000000000E+002,  0.00000000000E+000,  0.10000000000E+001
  0.17609557045E+008,  0.20876573203E+007,  0.19000000000E+002,  0.00000000000E+000,  0.10000000000E+001
  0.17609707045E+008,  0.20875757067E+007,  0.19000000000E+002,  0.00000000000E+000,  0.10000000000E+001
  0.17609857045E+008,  0.20874967511E+007,  0.19000000000E+002,  0.00000000000E+000,  0.10000000000E+001
  0.17610007045E+008,  0.20874185450E+007,  0.19000000000E+002,  0.00000000000E+000,  0.10000000000E+001
  0.17610157045E+008,  0.20873408380E+007,  0.19000000000E+002,  0.00000000000E+000,  0.10000000000E+001
  0.17610307045E+008,  0.20872635654E+007,  0.19000000000E+002,  0.00000000000E+000,  0.10000000000E+001
  0.17610457045E+008,  0.20871867000E+007,  0.19000000000E+002,  0.00000000000E+000,  0.10000000000E+001
  0.17610607045E+008,  0.20871102265E+007,  0.19000000000E+002,  0.00000000000E+000,  0.10000000000E+001
  0.17610757045E+008,  0.20870341346E+007,  0.19000000000E+002,  0.00000000000E+000,  0.10000000000E+001
  0.17610907045E+008,  0.20869584169E+007,  0.19000000000E+002,  0.00000000000E+000,  0.10000000000E+001
  0.17611057045E+008,  0.20868830671E+007,  0.19000000000E+002,  0.00000000000E+000,  0.10000000000E+001
  0.17611207045E+008,  0.20868080801E+007,  0.19000000000E+002,  0.00000000000E+000,  0.10000000000E+001
  0.17611357045E+008,  0.20867334512E+007,  0.19000000000E+002,  0.00000000000E+000,  0.10000000000E+001
  0.17611507045E+008,  0.20866591762E+007,  0.19000000000E+002,  0.00000000000E+000,  0.10000000000E+001
  0.17611657045E+008,  0.20865852512E+007,  0.19000000000E+002,  0.00000000000E+000,  0.10000000000E+001
  0.17611807045E+008,  0.20865116724E+007,  0.19000000000E+002,  0.00000000000E+000,  0.10000000000E+001
  0.17611957045E+008,  0.20864384362E+007,  0.19000000000E+002,  0.00000000000E+000,  0.10000000000E+001
  0.17612107045E+008,  0.20863655392E+007,  0.19000000000E+002,  0.00000000000E+000,  0.10000000000E+001
  0.17612257045E+008,  0.20862929781E+007,  0.19000000000E+002,  0.00000000000E+000,  0.10000000000E+001
  0.17612407045E+008,  0.20862207495E+007,  0.19000000000E+002,  0.00000000000E+000,  0.10000000000E+001
  0.17612557045E+008,  0.20861488504E+007,  0.19000000000E+002,  0.00000000000E+000,  0.10000000000E+001
  0.17612707045E+008,  0.20860772776E+007,  0.19000000000E+002,  0.00000000000E+000,  0.10000000000E+001
  0.17612857045E+008,  0.20860060280E+007,  0.19000000000E+002,  0.00000000000E+000,  0.10000000000E+001
  0.17613007045E+008,  0.20859350986E+007,  0.19000000000E+002,  0.00000000000E+000,  0.10000000000E+001
  0.17613157045E+008,  0.20858644865E+007,  0.19000000000E+002,  0.00000000000E+000,  0.10000000000E+001
  0.17613307045E+008,  0.20857941887E+007,  0.19000000000E+002,  0.00000000000E+000,  0.10000000000E+001
  0.17613457045E+008,  0.20857242024E+007,  0.19000000000E+002,  0.00000000000E+000,  0.10000000000E+001
  0.17613607045E+008,  0.20856545247E+007,  0.19000000000E+002,  0.00000000000E+000,  0.10000000000E+001
  0.17613757045E+008,  0.20855851528E+007,  0.19000000000E+002,  0.00000000000E+000,  0.10000000000E+001
  0.17613907045E+008,  0.20855160840E+007,  0.19000000000E+002,  0.00000000000E+000,  0.10000000000E+001
  0.17614057045E+008,  0.20854473155E+007,  0.19000000000E+002,  0.00000000000E+000,  0.10000000000E+001
  0.17614207045E+008,  0.20853788447E+007,  0.19000000000E+002,  0.00000000000E+000,  0.10000000000E+001
  0.17614357045E+008,  0.20853106688E+007,  0.19000000000E+002,  0.00000000000E+000,  0.10000000000E+001
  0.17614507045E+008,  0.20852427852E+007,  0.19000000000E+002,  0.00000000000E+000,  0.10000000000E+001
  0.17614657045E+008,  0.20851751913E+007,  0.19000000000E+002,  0.00000000000E+000,  0.10000000000E+001
  0.17614807045E+008,  0.20851078846E+007,  0.19000000000E+002,  0.00000000000E+000,  0.10000000000E+001
  0.17614957045E+008,  0.20850408624E+007,  0.19000000000E+002,  0.00000000000E+000,  0.10000000000E+001
  0.17615107045E+008,  0.20849741222E+007,  0.19000000000E+002,  0.00000000000E+000,  0.10000000000E+001
  0.17615257045E+008,  0.20849076616E+007,  0.19000000000E+002,  0.00000000000E+000,  0.10000000000E+001
  0.17615407045E+008,  0.20848414780E+007,  0.19000000000E+002,  0.00000000000E+000,  0.10000000000E+001
  0.17615557045E+008,  0.20847755691E+007,  0.19000000000E+002,  0.00000000000E+000,  0.10000000000E+001
  0.17615707045E+008,  0.20847099323E+007,  0.19000000000E+002,  0.00000000000E+000,  0.10000000000E+001
  0.17615857045E+008,  0.20846445652E+007,  0.19000000000E+002,  0.00000000000E+000,  0.10000000000E+001
  0.17616007045E+008,  0.20845794656E+007,  0.19000000000E+002,  0.00000000000E+000,  0.10000000000E+001
  0.17616157045E+008,  0.20845146310E+007,  0.19000000000E+002,  0.00000000000E+000,  0.10000000000E+001
  0.17616307045E+008,  0.20844500591E+007,  0.19000000000E+002,  0.00000000000E+000,  0.10000000000E+001
  0.17616457045E+008,  0.20843857476E+007,  0.19000000000E+002,  0.00000000000E+000,  0.10000000000E+001
  0.17616607045E+008,  0.20843216942E+007,  0.19000000000E+002,  0.00000000000E+000,  0.10000000000E+001
  0.17616757045E+008,  0.20842578967E+007,  0.19000000000E+002,  0.00000000000E+000,  0.10000000000E+001
  0.17616907045E+008,  0.20841943528E+007,  0.19000000000E+002,  0.00000000000E+000,  0.10000000000E+001
  0.17617057045E+008,  0.20841310603E+007,  0.19000000000E+002,  0.00000000000E+000,  0.10000000000E+001
  0.17617207045E+008,  0.20840680170E+007,  0.19000000000E+002,  0.00000000000E+000,  0.10000000000E+001
  0.17617357045E+008,  0.20840052207E+007,  0.19000000000E+002,  0.00000000000E+000,  0.10000000000E+001
  0.17617507045E+008,  0.20839426694E+007,  0.19000000000E+002,  0.00000000000E+000,  0.10000000000E+001
  0.17617657045E+008,  0.20838803608E+007,  0.19000000000E+002,  0.00000000000E+000,  0.10000000000E+001
