"           TIME(S)","              PRES","              TEMP","             SAT_G","             SAT_L"
  0.17592105000E+008,  0.21000000000E+007,  0.19000000000E+002,  0.00000000000E+000,  0.10000000000E+001
  0.17592130000E+008,  0.21000000221E+007,  0.19000000000E+002,  0.00000000000E+000,  0.10000000000E+001
  0.17592255000E+008,  0.20999996643E+007,  0.19000000000E+002,  0.00000000000E+000,  0.10000000000E+001
  0.17592405000E+008,  0.20999893393E+007,  0.19000000000E+002,  0.00000000000E+000,  0.10000000000E+001
  0.17592555000E+008,  0.20999601730E+007,  0.19000000000E+002,  0.00000000000E+000,  0.10000000000E+001
  0.17592705000E+008,  0.20999072330E+007,  0.19000000000E+002,  0.00000000000E+000,  0.10000000000E+001
  0.17592855000E+008,  0.20998299874E+007,  0.19000000000E+002,  0.00000000000E+000,  0.10000000000E+001
  0.17593005000E+008,  0.20997304311E+007,  0.19000000000E+002,  0.00000000000E+000,  0.10000000000E+001
  0.17593155000E+008,  0.20996120698E+007,  0.19000000000E+002,  0.00000000000E+000,  0.10000000000E+001
  0.17593305000E+008,  0.20994785914E+007,  0.19000000000E+002,  0.00000000000E+000,  0.10000000000E+001
  0.17593455000E+008,  0.20993331802E+007,  0.19000000000E+002,  0.00000000000E+000,  0.10000000000E+001
  0.17593605000E+008,  0.20991783953E+007,  0.19000000000E+002,  0.00000000000E+000,  0.10000000000E+001
  0.17593755000E+008,  0.20990162314E+007,  0.19000000000E+002,  0.00000000000E+000,  0.10000000000E+001
  0.17593905000E+008,  0.20988482308E+007,  0.19000000000E+002,  0.00000000000E+000,  0.10000000000E+001
  0.17594055000E+008,  0.20986755978E+007,  0.19000000000E+002,  0.00000000000E+000,  0.10000000000E+001
  0.17594205000E+008,  0.20984992932E+007,  0.19000000000E+002,  0.00000000000E+000,  0.10000000000E+001
  0.17594355000E+008,  0.20983201047E+007,  0.19000000000E+002,  0.00000000000E+000,  0.10000000000E+001
  0.17594505000E+008,  0.20981386947E+007,  0.19000000000E+002,  0.00000000000E+000,  0.10000000000E+001
  0.17594655000E+008,  0.20979556320E+007,  0.19000000000E+002,  0.00000000000E+000,  0.10000000000E+001
  0.17594805000E+008,  0.20977714116E+007,  0.19000000000E+002,  0.00000000000E+000,  0.10000000000E+001
  0.17594955000E+008,  0.20975864678E+007,  0.19000000000E+002,  0.00000000000E+000,  0.10000000000E+001
  0.17595105000E+008,  0.20974011821E+007,  0.19000000000E+002,  0.00000000000E+000,  0.10000000000E+001
  0.17595255000E+008,  0.20972158904E+007,  0.19000000000E+002,  0.00000000000E+000,  0.10000000000E+001
  0.17595405000E+008,  0.20970308865E+007,  0.19000000000E+002,  0.00000000000E+000,  0.10000000000E+001
  0.17595555000E+008,  0.20968286240E+007,  0.19000000000E+002,  0.00000000000E+000,  0.10000000000E+001
  0.17595630000E+008,  0.20967226750E+007,  0.19000000000E+002,  0.00000000000E+000,  0.10000000000E+001
  0.17595667501E+008,  0.20966686440E+007,  0.19000000000E+002,  0.00000000000E+000,  0.10000000000E+001
  0.17595817501E+008,  0.20964475853E+007,  0.19000000000E+002,  0.00000000000E+000,  0.10000000000E+001
  0.17595892501E+008,  0.20963361243E+007,  0.19000000000E+002,  0.00000000000E+000,  0.10000000000E+001
  0.17595930002E+008,  0.20962800944E+007,  0.19000000000E+002,  0.00000000000E+000,  0.10000000000E+001
  0.17596080002E+008,  0.20960476436E+007,  0.19000000000E+002,  0.00000000000E+000,  0.10000000000E+001
  0.17596230002E+008,  0.20958084222E+007,  0.19000000000E+002,  0.00000000000E+000,  0.10000000000E+001
  0.17596305002E+008,  0.20956867160E+007,  0.19000000000E+002,  0.00000000000E+000,  0.10000000000E+001
  0.17596342503E+008,  0.20956251540E+007,  0.19000000000E+002,  0.00000000000E+000,  0.10000000000E+001
  0.17596361253E+008,  0.20955941956E+007,  0.19000000000E+002,  0.00000000000E+000,  0.10000000000E+001
  0.17596370628E+008,  0.20955786694E+007,  0.19000000000E+002,  0.00000000000E+000,  0.10000000000E+001
  0.17596417504E+008,  0.20954990164E+007,  0.19000000000E+002,  0.00000000000E+000,  0.10000000000E+001
  0.17596440943E+008,  0.20954586049E+007,  0.19000000000E+002,  0.00000000000E+000,  0.10000000000E+001
  0.17596558134E+008,  0.20952430855E+007,  0.19000000000E+002,  0.00000000000E+000,  0.10000000000E+001
  0.17596616730E+008,  0.20951318424E+007,  0.19000000000E+002,  0.00000000000E+000,  0.10000000000E+001
  0.17596766730E+008,  0.20948228270E+007,  0.19000000000E+002,  0.00000000000E+000,  0.10000000000E+001
  0.17596841730E+008,  0.20946577268E+007,  0.19000000000E+002,  0.00000000000E+000,  0.10000000000E+001
  0.17596879231E+008,  0.20945716220E+007,  0.19000000000E+002,  0.00000000000E+000,  0.10000000000E+001
  0.17596897981E+008,  0.20945273867E+007,  0.19000000000E+002,  0.00000000000E+000,  0.10000000000E+001
  0.17596907356E+008,  0.20945050138E+007,  0.19000000000E+002,  0.00000000000E+000,  0.10000000000E+001
  0.17596912044E+008,  0.20944937613E+007,  0.19000000000E+002,  0.00000000000E+000,  0.10000000000E+001
  0.17596935482E+008,  0.20944351836E+007,  0.19000000000E+002,  0.00000000000E+000,  0.10000000000E+001
  0.17597052673E+008,  0.20941014241E+007,  0.19000000000E+002,  0.00000000000E+000,  0.10000000000E+001
  0.17597202673E+008,  0.20936196759E+007,  0.19000000000E+002,  0.00000000000E+000,  0.10000000000E+001
  0.17597352673E+008,  0.20930920992E+007,  0.19000000000E+002,  0.00000000000E+000,  0.10000000000E+001
  0.17597502673E+008,  0.20925302372E+007,  0.19000000000E+002,  0.00000000000E+000,  0.10000000000E+001
  0.17597652673E+008,  0.20919451409E+007,  0.19000000000E+002,  0.00000000000E+000,  0.10000000000E+001
  0.17597802673E+008,  0.20913459825E+007,  0.19000000000E+002,  0.00000000000E+000,  0.10000000000E+001
  0.17597952673E+008,  0.20907398231E+007,  0.19000000000E+002,  0.00000000000E+000,  0.10000000000E+001
  0.17598102673E+008,  0.20901318363E+007,  0.19000000000E+002,  0.00000000000E+000,  0.10000000000E+001
  0.17598252673E+008,  0.20895256704E+007,  0.19000000000E+002,  0.00000000000E+000,  0.10000000000E+001
  0.17598402673E+008,  0.20889238102E+007,  0.19000000000E+002,  0.00000000000E+000,  0.10000000000E+001
  0.17598552673E+008,  0.20883278833E+007,  0.19000000000E+002,  0.00000000000E+000,  0.10000000000E+001
  0.17598702673E+008,  0.20877389001E+007,  0.19000000000E+002,  0.00000000000E+000,  0.10000000000E+001
  0.17598852673E+008,  0.20871574338E+007,  0.19000000000E+002,  0.00000000000E+000,  0.10000000000E+001
  0.17599002673E+008,  0.20865837519E+007,  0.19000000000E+002,  0.00000000000E+000,  0.10000000000E+001
  0.17599152673E+008,  0.20860179107E+007,  0.19000000000E+002,  0.00000000000E+000,  0.10000000000E+001
  0.17599302673E+008,  0.20854598236E+007,  0.19000000000E+002,  0.00000000000E+000,  0.10000000000E+001
  0.17599452673E+008,  0.20849093094E+007,  0.19000000000E+002,  0.00000000000E+000,  0.10000000000E+001
  0.17599602673E+008,  0.20843661271E+007,  0.19000000000E+002,  0.00000000000E+000,  0.10000000000E+001
  0.17599752673E+008,  0.20838300007E+007,  0.19000000000E+002,  0.00000000000E+000,  0.10000000000E+001
  0.17599902673E+008,  0.20833006365E+007,  0.19000000000E+002,  0.00000000000E+000,  0.10000000000E+001
  0.17600052673E+008,  0.20827777359E+007,  0.19000000000E+002,  0.00000000000E+000,  0.10000000000E+001
  0.17600202673E+008,  0.20822610034E+007,  0.19000000000E+002,  0.00000000000E+000,  0.10000000000E+001
  0.17600352673E+008,  0.20817501531E+007,  0.19000000000E+002,  0.00000000000E+000,  0.10000000000E+001
  0.17600502673E+008,  0.20812449118E+007,  0.19000000000E+002,  0.00000000000E+000,  0.10000000000E+001
  0.17600652673E+008,  0.20807450218E+007,  0.19000000000E+002,  0.00000000000E+000,  0.10000000000E+001
  0.17600802673E+008,  0.20802502418E+007,  0.19000000000E+002,  0.00000000000E+000,  0.10000000000E+001
  0.17600952673E+008,  0.20797603474E+007,  0.19000000000E+002,  0.00000000000E+000,  0.10000000000E+001
  0.17601102673E+008,  0.20792751310E+007,  0.19000000000E+002,  0.00000000000E+000,  0.10000000000E+001
  0.17601252673E+008,  0.20787944015E+007,  0.19000000000E+002,  0.00000000000E+000,  0.10000000000E+001
  0.17601402673E+008,  0.20783179829E+007,  0.19000000000E+002,  0.00000000000E+000,  0.10000000000E+001
  0.17601552673E+008,  0.20778457141E+007,  0.19000000000E+002,  0.00000000000E+000,  0.10000000000E+001
  0.17601702673E+008,  0.20773774475E+007,  0.19000000000E+002,  0.00000000000E+000,  0.10000000000E+001
  0.17601852673E+008,  0.20769130479E+007,  0.19000000000E+002,  0.00000000000E+000,  0.10000000000E+001
  0.17602002673E+008,  0.20764523920E+007,  0.19000000000E+002,  0.00000000000E+000,  0.10000000000E+001
  0.17602152673E+008,  0.20759953665E+007,  0.19000000000E+002,  0.00000000000E+000,  0.10000000000E+001
  0.17602302673E+008,  0.20755418679E+007,  0.19000000000E+002,  0.00000000000E+000,  0.10000000000E+001
  0.17602452673E+008,  0.20750918016E+007,  0.19000000000E+002,  0.00000000000E+000,  0.10000000000E+001
  0.17602602673E+008,  0.20746450803E+007,  0.19000000000E+002,  0.00000000000E+000,  0.10000000000E+001
  0.17602752673E+008,  0.20742016241E+007,  0.19000000000E+002,  0.00000000000E+000,  0.10000000000E+001
  0.17602902673E+008,  0.20737613595E+007,  0.19000000000E+002,  0.00000000000E+000,  0.10000000000E+001
  0.17603052673E+008,  0.20733242185E+007,  0.19000000000E+002,  0.00000000000E+000,  0.10000000000E+001
  0.17603202673E+008,  0.20728901383E+007,  0.19000000000E+002,  0.00000000000E+000,  0.10000000000E+001
  0.17603352673E+008,  0.20724590609E+007,  0.19000000000E+002,  0.00000000000E+000,  0.10000000000E+001
  0.17603502673E+008,  0.20720309321E+007,  0.19000000000E+002,  0.00000000000E+000,  0.10000000000E+001
  0.17603652673E+008,  0.20716057019E+007,  0.19000000000E+002,  0.00000000000E+000,  0.10000000000E+001
  0.17603802673E+008,  0.20711833232E+007,  0.19000000000E+002,  0.00000000000E+000,  0.10000000000E+001
  0.17603952673E+008,  0.20707637522E+007,  0.19000000000E+002,  0.00000000000E+000,  0.10000000000E+001
  0.17604102673E+008,  0.20703469479E+007,  0.19000000000E+002,  0.00000000000E+000,  0.10000000000E+001
  0.17604252673E+008,  0.20699328715E+007,  0.19000000000E+002,  0.00000000000E+000,  0.10000000000E+001
  0.17604402673E+008,  0.20695214866E+007,  0.19000000000E+002,  0.00000000000E+000,  0.10000000000E+001
  0.17604552673E+008,  0.20691127587E+007,  0.19000000000E+002,  0.00000000000E+000,  0.10000000000E+001
  0.17604702673E+008,  0.20687066553E+007,  0.19000000000E+002,  0.00000000000E+000,  0.10000000000E+001
  0.17604852673E+008,  0.20683031455E+007,  0.19000000000E+002,  0.00000000000E+000,  0.10000000000E+001
  0.17605002673E+008,  0.20679021997E+007,  0.19000000000E+002,  0.00000000000E+000,  0.10000000000E+001
  0.17605152673E+008,  0.20675037899E+007,  0.19000000000E+002,  0.00000000000E+000,  0.10000000000E+001
  0.17605302673E+008,  0.20671078893E+007,  0.19000000000E+002,  0.00000000000E+000,  0.10000000000E+001
  0.17605452673E+008,  0.20667144722E+007,  0.19000000000E+002,  0.00000000000E+000,  0.10000000000E+001
  0.17605602673E+008,  0.20663235139E+007,  0.19000000000E+002,  0.00000000000E+000,  0.10000000000E+001
  0.17605752673E+008,  0.20659349908E+007,  0.19000000000E+002,  0.00000000000E+000,  0.10000000000E+001
  0.17605902673E+008,  0.20655488800E+007,  0.19000000000E+002,  0.00000000000E+000,  0.10000000000E+001
  0.17606052673E+008,  0.20651651597E+007,  0.19000000000E+002,  0.00000000000E+000,  0.10000000000E+001
  0.17606202673E+008,  0.20647838084E+007,  0.19000000000E+002,  0.00000000000E+000,  0.10000000000E+001
  0.17606352673E+008,  0.20644048056E+007,  0.19000000000E+002,  0.00000000000E+000,  0.10000000000E+001
  0.17606502673E+008,  0.20640281315E+007,  0.19000000000E+002,  0.00000000000E+000,  0.10000000000E+001
  0.17606652673E+008,  0.20636537666E+007,  0.19000000000E+002,  0.00000000000E+000,  0.10000000000E+001
  0.17606802673E+008,  0.20632816921E+007,  0.19000000000E+002,  0.00000000000E+000,  0.10000000000E+001
  0.17606952673E+008,  0.20629118898E+007,  0.19000000000E+002,  0.00000000000E+000,  0.10000000000E+001
  0.17607102673E+008,  0.20625443418E+007,  0.19000000000E+002,  0.00000000000E+000,  0.10000000000E+001
  0.17607252673E+008,  0.20621790306E+007,  0.19000000000E+002,  0.00000000000E+000,  0.10000000000E+001
  0.17607402673E+008,  0.20618159394E+007,  0.19000000000E+002,  0.00000000000E+000,  0.10000000000E+001
  0.17607552673E+008,  0.20614550515E+007,  0.19000000000E+002,  0.00000000000E+000,  0.10000000000E+001
  0.17607702673E+008,  0.20610963506E+007,  0.19000000000E+002,  0.00000000000E+000,  0.10000000000E+001
  0.17607852673E+008,  0.20607398209E+007,  0.19000000000E+002,  0.00000000000E+000,  0.10000000000E+001
  0.17608002673E+008,  0.20603854466E+007,  0.19000000000E+002,  0.00000000000E+000,  0.10000000000E+001
  0.17608152673E+008,  0.20600332126E+007,  0.19000000000E+002,  0.00000000000E+000,  0.10000000000E+001
  0.17608302673E+008,  0.20596831038E+007,  0.19000000000E+002,  0.00000000000E+000,  0.10000000000E+001
  0.17608452673E+008,  0.20593351053E+007,  0.19000000000E+002,  0.00000000000E+000,  0.10000000000E+001
  0.17608602673E+008,  0.20589892028E+007,  0.19000000000E+002,  0.00000000000E+000,  0.10000000000E+001
  0.17608752673E+008,  0.20586453817E+007,  0.19000000000E+002,  0.00000000000E+000,  0.10000000000E+001
  0.17608902673E+008,  0.20583036282E+007,  0.19000000000E+002,  0.00000000000E+000,  0.10000000000E+001
  0.17609052673E+008,  0.20579639283E+007,  0.19000000000E+002,  0.00000000000E+000,  0.10000000000E+001
  0.17609202673E+008,  0.20576262684E+007,  0.19000000000E+002,  0.00000000000E+000,  0.10000000000E+001
  0.17609352673E+008,  0.20572906349E+007,  0.19000000000E+002,  0.00000000000E+000,  0.10000000000E+001
  0.17609502673E+008,  0.20569570146E+007,  0.19000000000E+002,  0.00000000000E+000,  0.10000000000E+001
  0.17609652673E+008,  0.20566253944E+007,  0.19000000000E+002,  0.00000000000E+000,  0.10000000000E+001
  0.17609802673E+008,  0.20562957612E+007,  0.19000000000E+002,  0.00000000000E+000,  0.10000000000E+001
  0.17609952673E+008,  0.20559681023E+007,  0.19000000000E+002,  0.00000000000E+000,  0.10000000000E+001
  0.17610102673E+008,  0.20556424049E+007,  0.19000000000E+002,  0.00000000000E+000,  0.10000000000E+001
  0.17610252673E+008,  0.20553186566E+007,  0.19000000000E+002,  0.00000000000E+000,  0.10000000000E+001
  0.17610402673E+008,  0.20549968450E+007,  0.19000000000E+002,  0.00000000000E+000,  0.10000000000E+001
  0.17610552673E+008,  0.20546769579E+007,  0.19000000000E+002,  0.00000000000E+000,  0.10000000000E+001
  0.17610702673E+008,  0.20543589830E+007,  0.19000000000E+002,  0.00000000000E+000,  0.10000000000E+001
  0.17610852673E+008,  0.20540429084E+007,  0.19000000000E+002,  0.00000000000E+000,  0.10000000000E+001
  0.17611002673E+008,  0.20537287223E+007,  0.19000000000E+002,  0.00000000000E+000,  0.10000000000E+001
  0.17611152673E+008,  0.20534164128E+007,  0.19000000000E+002,  0.00000000000E+000,  0.10000000000E+001
  0.17611302673E+008,  0.20531059683E+007,  0.19000000000E+002,  0.00000000000E+000,  0.10000000000E+001
  0.17611452673E+008,  0.20527973772E+007,  0.19000000000E+002,  0.00000000000E+000,  0.10000000000E+001
  0.17611602673E+008,  0.20524906281E+007,  0.19000000000E+002,  0.00000000000E+000,  0.10000000000E+001
  0.17611752673E+008,  0.20521857097E+007,  0.19000000000E+002,  0.00000000000E+000,  0.10000000000E+001
  0.17611902673E+008,  0.20518826106E+007,  0.19000000000E+002,  0.00000000000E+000,  0.10000000000E+001
  0.17612052673E+008,  0.20515813197E+007,  0.19000000000E+002,  0.00000000000E+000,  0.10000000000E+001
  0.17612202673E+008,  0.20512818260E+007,  0.19000000000E+002,  0.00000000000E+000,  0.10000000000E+001
  0.17612352673E+008,  0.20509841185E+007,  0.19000000000E+002,  0.00000000000E+000,  0.10000000000E+001
  0.17612502673E+008,  0.20506881862E+007,  0.19000000000E+002,  0.00000000000E+000,  0.10000000000E+001
  0.17612652673E+008,  0.20503940184E+007,  0.19000000000E+002,  0.00000000000E+000,  0.10000000000E+001
  0.17612802673E+008,  0.20501016044E+007,  0.19000000000E+002,  0.00000000000E+000,  0.10000000000E+001
  0.17612952673E+008,  0.20498109336E+007,  0.19000000000E+002,  0.00000000000E+000,  0.10000000000E+001
  0.17613102673E+008,  0.20495219953E+007,  0.19000000000E+002,  0.00000000000E+000,  0.10000000000E+001
  0.17613252673E+008,  0.20492347791E+007,  0.19000000000E+002,  0.00000000000E+000,  0.10000000000E+001
  0.17613402673E+008,  0.20489492746E+007,  0.19000000000E+002,  0.00000000000E+000,  0.10000000000E+001
  0.17613552673E+008,  0.20486654714E+007,  0.19000000000E+002,  0.00000000000E+000,  0.10000000000E+001
  0.17613702673E+008,  0.20483833594E+007,  0.19000000000E+002,  0.00000000000E+000,  0.10000000000E+001
  0.17613852673E+008,  0.20481029283E+007,  0.19000000000E+002,  0.00000000000E+000,  0.10000000000E+001
  0.17614002673E+008,  0.20478241680E+007,  0.19000000000E+002,  0.00000000000E+000,  0.10000000000E+001
  0.17614152673E+008,  0.20475470686E+007,  0.19000000000E+002,  0.00000000000E+000,  0.10000000000E+001
  0.17614302673E+008,  0.20472716199E+007,  0.19000000000E+002,  0.00000000000E+000,  0.10000000000E+001
  0.17614452673E+008,  0.20469978122E+007,  0.19000000000E+002,  0.00000000000E+000,  0.10000000000E+001
  0.17614602673E+008,  0.20467256355E+007,  0.19000000000E+002,  0.00000000000E+000,  0.10000000000E+001
  0.17614752673E+008,  0.20464550802E+007,  0.19000000000E+002,  0.00000000000E+000,  0.10000000000E+001
  0.17614902673E+008,  0.20461861365E+007,  0.19000000000E+002,  0.00000000000E+000,  0.10000000000E+001
  0.17615052673E+008,  0.20459187948E+007,  0.19000000000E+002,  0.00000000000E+000,  0.10000000000E+001
  0.17615202673E+008,  0.20456530455E+007,  0.19000000000E+002,  0.00000000000E+000,  0.10000000000E+001
  0.17615352673E+008,  0.20453888791E+007,  0.19000000000E+002,  0.00000000000E+000,  0.10000000000E+001
  0.17615502673E+008,  0.20451262861E+007,  0.19000000000E+002,  0.00000000000E+000,  0.10000000000E+001
  0.17615652673E+008,  0.20448652572E+007,  0.19000000000E+002,  0.00000000000E+000,  0.10000000000E+001
  0.17615802673E+008,  0.20446057831E+007,  0.19000000000E+002,  0.00000000000E+000,  0.10000000000E+001
  0.17615952673E+008,  0.20443478544E+007,  0.19000000000E+002,  0.00000000000E+000,  0.10000000000E+001
  0.17616102673E+008,  0.20440914620E+007,  0.19000000000E+002,  0.00000000000E+000,  0.10000000000E+001
  0.17616252673E+008,  0.20438365966E+007,  0.19000000000E+002,  0.00000000000E+000,  0.10000000000E+001
  0.17616402673E+008,  0.20435832493E+007,  0.19000000000E+002,  0.00000000000E+000,  0.10000000000E+001
  0.17616552673E+008,  0.20433314110E+007,  0.19000000000E+002,  0.00000000000E+000,  0.10000000000E+001
  0.17616702673E+008,  0.20430810726E+007,  0.19000000000E+002,  0.00000000000E+000,  0.10000000000E+001
  0.17616852673E+008,  0.20428322254E+007,  0.19000000000E+002,  0.00000000000E+000,  0.10000000000E+001
  0.17617002673E+008,  0.20425848603E+007,  0.19000000000E+002,  0.00000000000E+000,  0.10000000000E+001
  0.17617152673E+008,  0.20423389687E+007,  0.19000000000E+002,  0.00000000000E+000,  0.10000000000E+001
  0.17617302673E+008,  0.20420945417E+007,  0.19000000000E+002,  0.00000000000E+000,  0.10000000000E+001
  0.17617452673E+008,  0.20418515706E+007,  0.19000000000E+002,  0.00000000000E+000,  0.10000000000E+001
  0.17617602673E+008,  0.20416100468E+007,  0.19000000000E+002,  0.00000000000E+000,  0.10000000000E+001
  0.17617752673E+008,  0.20413699617E+007,  0.19000000000E+002,  0.00000000000E+000,  0.10000000000E+001
  0.17617902673E+008,  0.20411313068E+007,  0.19000000000E+002,  0.00000000000E+000,  0.10000000000E+001
  0.17618052673E+008,  0.20408940735E+007,  0.19000000000E+002,  0.00000000000E+000,  0.10000000000E+001
  0.17618202673E+008,  0.20406582534E+007,  0.19000000000E+002,  0.00000000000E+000,  0.10000000000E+001
