"           TIME(S)","              PRES","              TEMP","             SAT_G","             SAT_L"
  0.17592105000E+008,  0.21000000000E+007,  0.19000000000E+002,  0.00000000000E+000,  0.10000000000E+001
  0.17592130000E+008,  0.21000000075E+007,  0.19000000000E+002,  0.00000000000E+000,  0.10000000000E+001
  0.17592255000E+008,  0.20999958566E+007,  0.19000000000E+002,  0.00000000000E+000,  0.10000000000E+001
  0.17592405000E+008,  0.20999677384E+007,  0.19000000000E+002,  0.00000000000E+000,  0.10000000000E+001
  0.17592555000E+008,  0.20999022174E+007,  0.19000000000E+002,  0.00000000000E+000,  0.10000000000E+001
  0.17592705000E+008,  0.20997938238E+007,  0.19000000000E+002,  0.00000000000E+000,  0.10000000000E+001
  0.17592855000E+008,  0.20996449135E+007,  0.19000000000E+002,  0.00000000000E+000,  0.10000000000E+001
  0.17593005000E+008,  0.20994617425E+007,  0.19000000000E+002,  0.00000000000E+000,  0.10000000000E+001
  0.17593155000E+008,  0.20992517363E+007,  0.19000000000E+002,  0.00000000000E+000,  0.10000000000E+001
  0.17593305000E+008,  0.20990216560E+007,  0.19000000000E+002,  0.00000000000E+000,  0.10000000000E+001
  0.17593455000E+008,  0.20987768640E+007,  0.19000000000E+002,  0.00000000000E+000,  0.10000000000E+001
  0.17593605000E+008,  0.20985213478E+007,  0.19000000000E+002,  0.00000000000E+000,  0.10000000000E+001
  0.17593755000E+008,  0.20982579993E+007,  0.19000000000E+002,  0.00000000000E+000,  0.10000000000E+001
  0.17593905000E+008,  0.20979889188E+007,  0.19000000000E+002,  0.00000000000E+000,  0.10000000000E+001
  0.17594055000E+008,  0.20977156636E+007,  0.19000000000E+002,  0.00000000000E+000,  0.10000000000E+001
  0.17594205000E+008,  0.20974394296E+007,  0.19000000000E+002,  0.00000000000E+000,  0.10000000000E+001
  0.17594355000E+008,  0.20971611722E+007,  0.19000000000E+002,  0.00000000000E+000,  0.10000000000E+001
  0.17594505000E+008,  0.20968816841E+007,  0.19000000000E+002,  0.00000000000E+000,  0.10000000000E+001
  0.17594655000E+008,  0.20966016414E+007,  0.19000000000E+002,  0.00000000000E+000,  0.10000000000E+001
  0.17594805000E+008,  0.20963216317E+007,  0.19000000000E+002,  0.00000000000E+000,  0.10000000000E+001
  0.17594955000E+008,  0.20960421702E+007,  0.19000000000E+002,  0.00000000000E+000,  0.10000000000E+001
  0.17595105000E+008,  0.20957637101E+007,  0.19000000000E+002,  0.00000000000E+000,  0.10000000000E+001
  0.17595255000E+008,  0.20954866487E+007,  0.19000000000E+002,  0.00000000000E+000,  0.10000000000E+001
  0.17595405000E+008,  0.20952113329E+007,  0.19000000000E+002,  0.00000000000E+000,  0.10000000000E+001
  0.17595555000E+008,  0.20949240311E+007,  0.19000000000E+002,  0.00000000000E+000,  0.10000000000E+001
  0.17595630000E+008,  0.20947762334E+007,  0.19000000000E+002,  0.00000000000E+000,  0.10000000000E+001
  0.17595667501E+008,  0.20947012876E+007,  0.19000000000E+002,  0.00000000000E+000,  0.10000000000E+001
  0.17595817501E+008,  0.20943942755E+007,  0.19000000000E+002,  0.00000000000E+000,  0.10000000000E+001
  0.17595826876E+008,  0.20943750615E+007,  0.19000000000E+002,  0.00000000000E+000,  0.10000000000E+001
  0.17595831564E+008,  0.20943654482E+007,  0.19000000000E+002,  0.00000000000E+000,  0.10000000000E+001
  0.17595855001E+008,  0.20943172658E+007,  0.19000000000E+002,  0.00000000000E+000,  0.10000000000E+001
  0.17595866720E+008,  0.20942931485E+007,  0.19000000000E+002,  0.00000000000E+000,  0.10000000000E+001
  0.17595872580E+008,  0.20942810837E+007,  0.19000000000E+002,  0.00000000000E+000,  0.10000000000E+001
  0.17595901877E+008,  0.20942206154E+007,  0.19000000000E+002,  0.00000000000E+000,  0.10000000000E+001
  0.17595916526E+008,  0.20941903453E+007,  0.19000000000E+002,  0.00000000000E+000,  0.10000000000E+001
  0.17595989771E+008,  0.20940376711E+007,  0.19000000000E+002,  0.00000000000E+000,  0.10000000000E+001
  0.17596139771E+008,  0.20937191131E+007,  0.19000000000E+002,  0.00000000000E+000,  0.10000000000E+001
  0.17596289771E+008,  0.20933956691E+007,  0.19000000000E+002,  0.00000000000E+000,  0.10000000000E+001
  0.17596364771E+008,  0.20932323051E+007,  0.19000000000E+002,  0.00000000000E+000,  0.10000000000E+001
  0.17596402272E+008,  0.20931501045E+007,  0.19000000000E+002,  0.00000000000E+000,  0.10000000000E+001
  0.17596421022E+008,  0.20931088531E+007,  0.19000000000E+002,  0.00000000000E+000,  0.10000000000E+001
  0.17596514774E+008,  0.20928968663E+007,  0.19000000000E+002,  0.00000000000E+000,  0.10000000000E+001
  0.17596664774E+008,  0.20925429946E+007,  0.19000000000E+002,  0.00000000000E+000,  0.10000000000E+001
  0.17596739774E+008,  0.20923616220E+007,  0.19000000000E+002,  0.00000000000E+000,  0.10000000000E+001
  0.17596777275E+008,  0.20922696655E+007,  0.19000000000E+002,  0.00000000000E+000,  0.10000000000E+001
  0.17596927275E+008,  0.20918771554E+007,  0.19000000000E+002,  0.00000000000E+000,  0.10000000000E+001
  0.17597002275E+008,  0.20916728374E+007,  0.19000000000E+002,  0.00000000000E+000,  0.10000000000E+001
  0.17597152275E+008,  0.20912325657E+007,  0.19000000000E+002,  0.00000000000E+000,  0.10000000000E+001
  0.17597302275E+008,  0.20907644188E+007,  0.19000000000E+002,  0.00000000000E+000,  0.10000000000E+001
  0.17597452275E+008,  0.20902734731E+007,  0.19000000000E+002,  0.00000000000E+000,  0.10000000000E+001
  0.17597602275E+008,  0.20897650287E+007,  0.19000000000E+002,  0.00000000000E+000,  0.10000000000E+001
  0.17597752275E+008,  0.20892439514E+007,  0.19000000000E+002,  0.00000000000E+000,  0.10000000000E+001
  0.17597902275E+008,  0.20887143902E+007,  0.19000000000E+002,  0.00000000000E+000,  0.10000000000E+001
  0.17598052275E+008,  0.20881797222E+007,  0.19000000000E+002,  0.00000000000E+000,  0.10000000000E+001
  0.17598202275E+008,  0.20876426093E+007,  0.19000000000E+002,  0.00000000000E+000,  0.10000000000E+001
  0.17598352275E+008,  0.20871050992E+007,  0.19000000000E+002,  0.00000000000E+000,  0.10000000000E+001
  0.17598502275E+008,  0.20865687360E+007,  0.19000000000E+002,  0.00000000000E+000,  0.10000000000E+001
  0.17598652275E+008,  0.20860346609E+007,  0.19000000000E+002,  0.00000000000E+000,  0.10000000000E+001
  0.17598802275E+008,  0.20855036998E+007,  0.19000000000E+002,  0.00000000000E+000,  0.10000000000E+001
  0.17598952275E+008,  0.20849764337E+007,  0.19000000000E+002,  0.00000000000E+000,  0.10000000000E+001
  0.17599102275E+008,  0.20844532560E+007,  0.19000000000E+002,  0.00000000000E+000,  0.10000000000E+001
  0.17599252275E+008,  0.20839344174E+007,  0.19000000000E+002,  0.00000000000E+000,  0.10000000000E+001
  0.17599402275E+008,  0.20834200608E+007,  0.19000000000E+002,  0.00000000000E+000,  0.10000000000E+001
  0.17599552275E+008,  0.20829102490E+007,  0.19000000000E+002,  0.00000000000E+000,  0.10000000000E+001
  0.17599702275E+008,  0.20824049863E+007,  0.19000000000E+002,  0.00000000000E+000,  0.10000000000E+001
  0.17599852275E+008,  0.20819042343E+007,  0.19000000000E+002,  0.00000000000E+000,  0.10000000000E+001
  0.17600002275E+008,  0.20814079256E+007,  0.19000000000E+002,  0.00000000000E+000,  0.10000000000E+001
  0.17600152275E+008,  0.20809159725E+007,  0.19000000000E+002,  0.00000000000E+000,  0.10000000000E+001
  0.17600302275E+008,  0.20804282753E+007,  0.19000000000E+002,  0.00000000000E+000,  0.10000000000E+001
  0.17600452275E+008,  0.20799447270E+007,  0.19000000000E+002,  0.00000000000E+000,  0.10000000000E+001
  0.17600602275E+008,  0.20794652182E+007,  0.19000000000E+002,  0.00000000000E+000,  0.10000000000E+001
  0.17600752275E+008,  0.20789896393E+007,  0.19000000000E+002,  0.00000000000E+000,  0.10000000000E+001
  0.17600902275E+008,  0.20785178832E+007,  0.19000000000E+002,  0.00000000000E+000,  0.10000000000E+001
  0.17601052275E+008,  0.20780498463E+007,  0.19000000000E+002,  0.00000000000E+000,  0.10000000000E+001
  0.17601202275E+008,  0.20775854297E+007,  0.19000000000E+002,  0.00000000000E+000,  0.10000000000E+001
  0.17601352275E+008,  0.20771245395E+007,  0.19000000000E+002,  0.00000000000E+000,  0.10000000000E+001
  0.17601502275E+008,  0.20766670873E+007,  0.19000000000E+002,  0.00000000000E+000,  0.10000000000E+001
  0.17601652275E+008,  0.20762129901E+007,  0.19000000000E+002,  0.00000000000E+000,  0.10000000000E+001
  0.17601802275E+008,  0.20757621701E+007,  0.19000000000E+002,  0.00000000000E+000,  0.10000000000E+001
  0.17601952275E+008,  0.20753145549E+007,  0.19000000000E+002,  0.00000000000E+000,  0.10000000000E+001
  0.17602102275E+008,  0.20748700768E+007,  0.19000000000E+002,  0.00000000000E+000,  0.10000000000E+001
  0.17602252275E+008,  0.20744286728E+007,  0.19000000000E+002,  0.00000000000E+000,  0.10000000000E+001
  0.17602402275E+008,  0.20739902841E+007,  0.19000000000E+002,  0.00000000000E+000,  0.10000000000E+001
  0.17602552275E+008,  0.20735548562E+007,  0.19000000000E+002,  0.00000000000E+000,  0.10000000000E+001
  0.17602702275E+008,  0.20731223378E+007,  0.19000000000E+002,  0.00000000000E+000,  0.10000000000E+001
  0.17602852275E+008,  0.20726926813E+007,  0.19000000000E+002,  0.00000000000E+000,  0.10000000000E+001
  0.17603002275E+008,  0.20722658422E+007,  0.19000000000E+002,  0.00000000000E+000,  0.10000000000E+001
  0.17603152275E+008,  0.20718417785E+007,  0.19000000000E+002,  0.00000000000E+000,  0.10000000000E+001
  0.17603302275E+008,  0.20714204512E+007,  0.19000000000E+002,  0.00000000000E+000,  0.10000000000E+001
  0.17603452275E+008,  0.20710018233E+007,  0.19000000000E+002,  0.00000000000E+000,  0.10000000000E+001
  0.17603602275E+008,  0.20705858601E+007,  0.19000000000E+002,  0.00000000000E+000,  0.10000000000E+001
  0.17603752275E+008,  0.20701725287E+007,  0.19000000000E+002,  0.00000000000E+000,  0.10000000000E+001
  0.17603902275E+008,  0.20697617981E+007,  0.19000000000E+002,  0.00000000000E+000,  0.10000000000E+001
  0.17604052275E+008,  0.20693536389E+007,  0.19000000000E+002,  0.00000000000E+000,  0.10000000000E+001
  0.17604202275E+008,  0.20689480230E+007,  0.19000000000E+002,  0.00000000000E+000,  0.10000000000E+001
  0.17604352275E+008,  0.20685449238E+007,  0.19000000000E+002,  0.00000000000E+000,  0.10000000000E+001
  0.17604502275E+008,  0.20681443158E+007,  0.19000000000E+002,  0.00000000000E+000,  0.10000000000E+001
  0.17604652275E+008,  0.20677461746E+007,  0.19000000000E+002,  0.00000000000E+000,  0.10000000000E+001
  0.17604802275E+008,  0.20673504769E+007,  0.19000000000E+002,  0.00000000000E+000,  0.10000000000E+001
  0.17604952275E+008,  0.20669572002E+007,  0.19000000000E+002,  0.00000000000E+000,  0.10000000000E+001
  0.17605102275E+008,  0.20665663229E+007,  0.19000000000E+002,  0.00000000000E+000,  0.10000000000E+001
  0.17605252275E+008,  0.20661778242E+007,  0.19000000000E+002,  0.00000000000E+000,  0.10000000000E+001
  0.17605402275E+008,  0.20657916840E+007,  0.19000000000E+002,  0.00000000000E+000,  0.10000000000E+001
  0.17605552275E+008,  0.20654078828E+007,  0.19000000000E+002,  0.00000000000E+000,  0.10000000000E+001
  0.17605702275E+008,  0.20650264018E+007,  0.19000000000E+002,  0.00000000000E+000,  0.10000000000E+001
  0.17605852275E+008,  0.20646472226E+007,  0.19000000000E+002,  0.00000000000E+000,  0.10000000000E+001
  0.17606002275E+008,  0.20642703275E+007,  0.19000000000E+002,  0.00000000000E+000,  0.10000000000E+001
  0.17606152275E+008,  0.20638956990E+007,  0.19000000000E+002,  0.00000000000E+000,  0.10000000000E+001
  0.17606302275E+008,  0.20635233204E+007,  0.19000000000E+002,  0.00000000000E+000,  0.10000000000E+001
  0.17606452275E+008,  0.20631531750E+007,  0.19000000000E+002,  0.00000000000E+000,  0.10000000000E+001
  0.17606602275E+008,  0.20627852469E+007,  0.19000000000E+002,  0.00000000000E+000,  0.10000000000E+001
  0.17606752275E+008,  0.20624195203E+007,  0.19000000000E+002,  0.00000000000E+000,  0.10000000000E+001
  0.17606902275E+008,  0.20620559797E+007,  0.19000000000E+002,  0.00000000000E+000,  0.10000000000E+001
  0.17607052275E+008,  0.20616946100E+007,  0.19000000000E+002,  0.00000000000E+000,  0.10000000000E+001
  0.17607202275E+008,  0.20613353963E+007,  0.19000000000E+002,  0.00000000000E+000,  0.10000000000E+001
  0.17607352275E+008,  0.20609783242E+007,  0.19000000000E+002,  0.00000000000E+000,  0.10000000000E+001
  0.17607502275E+008,  0.20606233792E+007,  0.19000000000E+002,  0.00000000000E+000,  0.10000000000E+001
  0.17607652275E+008,  0.20602705473E+007,  0.19000000000E+002,  0.00000000000E+000,  0.10000000000E+001
  0.17607802275E+008,  0.20599198146E+007,  0.19000000000E+002,  0.00000000000E+000,  0.10000000000E+001
  0.17607952275E+008,  0.20595711675E+007,  0.19000000000E+002,  0.00000000000E+000,  0.10000000000E+001
  0.17608102275E+008,  0.20592245925E+007,  0.19000000000E+002,  0.00000000000E+000,  0.10000000000E+001
  0.17608252275E+008,  0.20588800764E+007,  0.19000000000E+002,  0.00000000000E+000,  0.10000000000E+001
  0.17608402275E+008,  0.20585376059E+007,  0.19000000000E+002,  0.00000000000E+000,  0.10000000000E+001
  0.17608552275E+008,  0.20581971683E+007,  0.19000000000E+002,  0.00000000000E+000,  0.10000000000E+001
  0.17608702275E+008,  0.20578587508E+007,  0.19000000000E+002,  0.00000000000E+000,  0.10000000000E+001
  0.17608852275E+008,  0.20575223406E+007,  0.19000000000E+002,  0.00000000000E+000,  0.10000000000E+001
  0.17609002275E+008,  0.20571879254E+007,  0.19000000000E+002,  0.00000000000E+000,  0.10000000000E+001
  0.17609152275E+008,  0.20568554929E+007,  0.19000000000E+002,  0.00000000000E+000,  0.10000000000E+001
  0.17609302275E+008,  0.20565250307E+007,  0.19000000000E+002,  0.00000000000E+000,  0.10000000000E+001
  0.17609452275E+008,  0.20561965268E+007,  0.19000000000E+002,  0.00000000000E+000,  0.10000000000E+001
  0.17609602275E+008,  0.20558699694E+007,  0.19000000000E+002,  0.00000000000E+000,  0.10000000000E+001
  0.17609752275E+008,  0.20555453464E+007,  0.19000000000E+002,  0.00000000000E+000,  0.10000000000E+001
  0.17609902275E+008,  0.20552226463E+007,  0.19000000000E+002,  0.00000000000E+000,  0.10000000000E+001
  0.17610052275E+008,  0.20549018573E+007,  0.19000000000E+002,  0.00000000000E+000,  0.10000000000E+001
  0.17610202275E+008,  0.20545829679E+007,  0.19000000000E+002,  0.00000000000E+000,  0.10000000000E+001
  0.17610352275E+008,  0.20542659668E+007,  0.19000000000E+002,  0.00000000000E+000,  0.10000000000E+001
  0.17610502275E+008,  0.20539508425E+007,  0.19000000000E+002,  0.00000000000E+000,  0.10000000000E+001
  0.17610652275E+008,  0.20536375839E+007,  0.19000000000E+002,  0.00000000000E+000,  0.10000000000E+001
  0.17610802275E+008,  0.20533261799E+007,  0.19000000000E+002,  0.00000000000E+000,  0.10000000000E+001
  0.17610952275E+008,  0.20530166192E+007,  0.19000000000E+002,  0.00000000000E+000,  0.10000000000E+001
  0.17611102275E+008,  0.20527088911E+007,  0.19000000000E+002,  0.00000000000E+000,  0.10000000000E+001
  0.17611252275E+008,  0.20524029846E+007,  0.19000000000E+002,  0.00000000000E+000,  0.10000000000E+001
  0.17611402275E+008,  0.20520988888E+007,  0.19000000000E+002,  0.00000000000E+000,  0.10000000000E+001
  0.17611552275E+008,  0.20517965931E+007,  0.19000000000E+002,  0.00000000000E+000,  0.10000000000E+001
  0.17611702275E+008,  0.20514960869E+007,  0.19000000000E+002,  0.00000000000E+000,  0.10000000000E+001
  0.17611852275E+008,  0.20511973595E+007,  0.19000000000E+002,  0.00000000000E+000,  0.10000000000E+001
  0.17612002275E+008,  0.20509004004E+007,  0.19000000000E+002,  0.00000000000E+000,  0.10000000000E+001
  0.17612152275E+008,  0.20506051992E+007,  0.19000000000E+002,  0.00000000000E+000,  0.10000000000E+001
  0.17612302275E+008,  0.20503117456E+007,  0.19000000000E+002,  0.00000000000E+000,  0.10000000000E+001
  0.17612452275E+008,  0.20500200292E+007,  0.19000000000E+002,  0.00000000000E+000,  0.10000000000E+001
  0.17612602275E+008,  0.20497300399E+007,  0.19000000000E+002,  0.00000000000E+000,  0.10000000000E+001
  0.17612752275E+008,  0.20494417675E+007,  0.19000000000E+002,  0.00000000000E+000,  0.10000000000E+001
  0.17612902275E+008,  0.20491552019E+007,  0.19000000000E+002,  0.00000000000E+000,  0.10000000000E+001
  0.17613052275E+008,  0.20488703331E+007,  0.19000000000E+002,  0.00000000000E+000,  0.10000000000E+001
  0.17613202275E+008,  0.20485871511E+007,  0.19000000000E+002,  0.00000000000E+000,  0.10000000000E+001
  0.17613352275E+008,  0.20483056460E+007,  0.19000000000E+002,  0.00000000000E+000,  0.10000000000E+001
  0.17613502275E+008,  0.20480258080E+007,  0.19000000000E+002,  0.00000000000E+000,  0.10000000000E+001
  0.17613652275E+008,  0.20477476273E+007,  0.19000000000E+002,  0.00000000000E+000,  0.10000000000E+001
  0.17613802275E+008,  0.20474710942E+007,  0.19000000000E+002,  0.00000000000E+000,  0.10000000000E+001
  0.17613952275E+008,  0.20471961991E+007,  0.19000000000E+002,  0.00000000000E+000,  0.10000000000E+001
  0.17614102275E+008,  0.20469229323E+007,  0.19000000000E+002,  0.00000000000E+000,  0.10000000000E+001
  0.17614252275E+008,  0.20466512844E+007,  0.19000000000E+002,  0.00000000000E+000,  0.10000000000E+001
  0.17614402275E+008,  0.20463812458E+007,  0.19000000000E+002,  0.00000000000E+000,  0.10000000000E+001
  0.17614552275E+008,  0.20461128071E+007,  0.19000000000E+002,  0.00000000000E+000,  0.10000000000E+001
  0.17614702275E+008,  0.20458459590E+007,  0.19000000000E+002,  0.00000000000E+000,  0.10000000000E+001
  0.17614852275E+008,  0.20455806922E+007,  0.19000000000E+002,  0.00000000000E+000,  0.10000000000E+001
  0.17615002275E+008,  0.20453169973E+007,  0.19000000000E+002,  0.00000000000E+000,  0.10000000000E+001
  0.17615152275E+008,  0.20450548653E+007,  0.19000000000E+002,  0.00000000000E+000,  0.10000000000E+001
  0.17615302275E+008,  0.20447942868E+007,  0.19000000000E+002,  0.00000000000E+000,  0.10000000000E+001
  0.17615452275E+008,  0.20445352530E+007,  0.19000000000E+002,  0.00000000000E+000,  0.10000000000E+001
  0.17615602275E+008,  0.20442777547E+007,  0.19000000000E+002,  0.00000000000E+000,  0.10000000000E+001
  0.17615752275E+008,  0.20440217829E+007,  0.19000000000E+002,  0.00000000000E+000,  0.10000000000E+001
  0.17615902275E+008,  0.20437673288E+007,  0.19000000000E+002,  0.00000000000E+000,  0.10000000000E+001
  0.17616052275E+008,  0.20435143833E+007,  0.19000000000E+002,  0.00000000000E+000,  0.10000000000E+001
  0.17616202275E+008,  0.20432629378E+007,  0.19000000000E+002,  0.00000000000E+000,  0.10000000000E+001
  0.17616352275E+008,  0.20430129834E+007,  0.19000000000E+002,  0.00000000000E+000,  0.10000000000E+001
  0.17616502275E+008,  0.20427645114E+007,  0.19000000000E+002,  0.00000000000E+000,  0.10000000000E+001
  0.17616652275E+008,  0.20425175132E+007,  0.19000000000E+002,  0.00000000000E+000,  0.10000000000E+001
  0.17616802275E+008,  0.20422719800E+007,  0.19000000000E+002,  0.00000000000E+000,  0.10000000000E+001
  0.17616952275E+008,  0.20420279033E+007,  0.19000000000E+002,  0.00000000000E+000,  0.10000000000E+001
  0.17617102275E+008,  0.20417852747E+007,  0.19000000000E+002,  0.00000000000E+000,  0.10000000000E+001
  0.17617252275E+008,  0.20415440856E+007,  0.19000000000E+002,  0.00000000000E+000,  0.10000000000E+001
  0.17617402275E+008,  0.20413043275E+007,  0.19000000000E+002,  0.00000000000E+000,  0.10000000000E+001
  0.17617552275E+008,  0.20410659922E+007,  0.19000000000E+002,  0.00000000000E+000,  0.10000000000E+001
  0.17617702275E+008,  0.20408290712E+007,  0.19000000000E+002,  0.00000000000E+000,  0.10000000000E+001
  0.17617852275E+008,  0.20405935564E+007,  0.19000000000E+002,  0.00000000000E+000,  0.10000000000E+001
  0.17618002275E+008,  0.20403594394E+007,  0.19000000000E+002,  0.00000000000E+000,  0.10000000000E+001
  0.17618152275E+008,  0.20401267121E+007,  0.19000000000E+002,  0.00000000000E+000,  0.10000000000E+001
  0.17618302275E+008,  0.20398953663E+007,  0.19000000000E+002,  0.00000000000E+000,  0.10000000000E+001
