"           TIME(S)","              PRES","              TEMP","             SAT_G","             SAT_L"
  0.17812600500E+008,  0.20000000342E+007,  0.19000000000E+002,  0.00000000000E+000,  0.10000000000E+001
  0.17812602500E+008,  0.20000048442E+007,  0.19000000000E+002,  0.00000000000E+000,  0.10000000000E+001
  0.17812604500E+008,  0.20000152562E+007,  0.19000000000E+002,  0.00000000000E+000,  0.10000000000E+001
  0.17812606500E+008,  0.20000298308E+007,  0.19000000000E+002,  0.00000000000E+000,  0.10000000000E+001
  0.17812608500E+008,  0.20000465505E+007,  0.19000000000E+002,  0.00000000000E+000,  0.10000000000E+001
  0.17812610500E+008,  0.20000637665E+007,  0.19000000000E+002,  0.00000000000E+000,  0.10000000000E+001
  0.17812612500E+008,  0.20000804189E+007,  0.19000000000E+002,  0.00000000000E+000,  0.10000000000E+001
  0.17812614500E+008,  0.20000959414E+007,  0.19000000000E+002,  0.00000000000E+000,  0.10000000000E+001
  0.17812616500E+008,  0.20001101002E+007,  0.19000000000E+002,  0.00000000000E+000,  0.10000000000E+001
  0.17812618500E+008,  0.20001228571E+007,  0.19000000000E+002,  0.00000000000E+000,  0.10000000000E+001
  0.17812620500E+008,  0.20001342772E+007,  0.19000000000E+002,  0.00000000000E+000,  0.10000000000E+001
  0.17812622500E+008,  0.20001444721E+007,  0.19000000000E+002,  0.00000000000E+000,  0.10000000000E+001
  0.17812624500E+008,  0.20001535691E+007,  0.19000000000E+002,  0.00000000000E+000,  0.10000000000E+001
  0.17812626500E+008,  0.20001616940E+007,  0.19000000000E+002,  0.00000000000E+000,  0.10000000000E+001
  0.17812628500E+008,  0.20001689639E+007,  0.19000000000E+002,  0.00000000000E+000,  0.10000000000E+001
  0.17812630500E+008,  0.20001754840E+007,  0.19000000000E+002,  0.00000000000E+000,  0.10000000000E+001
  0.17812632500E+008,  0.20001813467E+007,  0.19000000000E+002,  0.00000000000E+000,  0.10000000000E+001
  0.17812634500E+008,  0.20001866327E+007,  0.19000000000E+002,  0.00000000000E+000,  0.10000000000E+001
  0.17812636500E+008,  0.20001914122E+007,  0.19000000000E+002,  0.00000000000E+000,  0.10000000000E+001
  0.17812638500E+008,  0.20001957457E+007,  0.19000000000E+002,  0.00000000000E+000,  0.10000000000E+001
  0.17812640500E+008,  0.20001996856E+007,  0.19000000000E+002,  0.00000000000E+000,  0.10000000000E+001
  0.17812642500E+008,  0.20002032773E+007,  0.19000000000E+002,  0.00000000000E+000,  0.10000000000E+001
  0.17812644500E+008,  0.20002065604E+007,  0.19000000000E+002,  0.00000000000E+000,  0.10000000000E+001
  0.17812646500E+008,  0.20002095690E+007,  0.19000000000E+002,  0.00000000000E+000,  0.10000000000E+001
  0.17812648500E+008,  0.20002123331E+007,  0.19000000000E+002,  0.00000000000E+000,  0.10000000000E+001
  0.17812650500E+008,  0.20002148789E+007,  0.19000000000E+002,  0.00000000000E+000,  0.10000000000E+001
  0.17812652500E+008,  0.20002172294E+007,  0.19000000000E+002,  0.00000000000E+000,  0.10000000000E+001
  0.17812654500E+008,  0.20002194047E+007,  0.19000000000E+002,  0.00000000000E+000,  0.10000000000E+001
  0.17812656500E+008,  0.20002214228E+007,  0.19000000000E+002,  0.00000000000E+000,  0.10000000000E+001
  0.17812658500E+008,  0.20002232994E+007,  0.19000000000E+002,  0.00000000000E+000,  0.10000000000E+001
  0.17812660500E+008,  0.20002250485E+007,  0.19000000000E+002,  0.00000000000E+000,  0.10000000000E+001
  0.17812662500E+008,  0.20002266826E+007,  0.19000000000E+002,  0.00000000000E+000,  0.10000000000E+001
  0.17812664500E+008,  0.20002282127E+007,  0.19000000000E+002,  0.00000000000E+000,  0.10000000000E+001
  0.17812666500E+008,  0.20002296489E+007,  0.19000000000E+002,  0.00000000000E+000,  0.10000000000E+001
  0.17812668500E+008,  0.20002310000E+007,  0.19000000000E+002,  0.00000000000E+000,  0.10000000000E+001
  0.17812670500E+008,  0.20002322739E+007,  0.19000000000E+002,  0.00000000000E+000,  0.10000000000E+001
  0.17812672500E+008,  0.20002334778E+007,  0.19000000000E+002,  0.00000000000E+000,  0.10000000000E+001
  0.17812674500E+008,  0.20002346182E+007,  0.19000000000E+002,  0.00000000000E+000,  0.10000000000E+001
  0.17812676500E+008,  0.20002357010E+007,  0.19000000000E+002,  0.00000000000E+000,  0.10000000000E+001
  0.17812678500E+008,  0.20002367312E+007,  0.19000000000E+002,  0.00000000000E+000,  0.10000000000E+001
  0.17812680500E+008,  0.20002377138E+007,  0.19000000000E+002,  0.00000000000E+000,  0.10000000000E+001
  0.17812682500E+008,  0.20002386530E+007,  0.19000000000E+002,  0.00000000000E+000,  0.10000000000E+001
  0.17812684500E+008,  0.20002395527E+007,  0.19000000000E+002,  0.00000000000E+000,  0.10000000000E+001
  0.17812686500E+008,  0.20002404165E+007,  0.19000000000E+002,  0.00000000000E+000,  0.10000000000E+001
  0.17812688500E+008,  0.20002412476E+007,  0.19000000000E+002,  0.00000000000E+000,  0.10000000000E+001
  0.17812690500E+008,  0.20002420488E+007,  0.19000000000E+002,  0.00000000000E+000,  0.10000000000E+001
  0.17812692500E+008,  0.20002428230E+007,  0.19000000000E+002,  0.00000000000E+000,  0.10000000000E+001
  0.17812694500E+008,  0.20002435725E+007,  0.19000000000E+002,  0.00000000000E+000,  0.10000000000E+001
  0.17812696500E+008,  0.20002442995E+007,  0.19000000000E+002,  0.00000000000E+000,  0.10000000000E+001
  0.17812698500E+008,  0.20002450061E+007,  0.19000000000E+002,  0.00000000000E+000,  0.10000000000E+001
  0.17812700500E+008,  0.20002456940E+007,  0.19000000000E+002,  0.00000000000E+000,  0.10000000000E+001
  0.17812702500E+008,  0.20002463651E+007,  0.19000000000E+002,  0.00000000000E+000,  0.10000000000E+001
  0.17812704500E+008,  0.20002470208E+007,  0.19000000000E+002,  0.00000000000E+000,  0.10000000000E+001
  0.17812706500E+008,  0.20002476625E+007,  0.19000000000E+002,  0.00000000000E+000,  0.10000000000E+001
  0.17812708500E+008,  0.20002482915E+007,  0.19000000000E+002,  0.00000000000E+000,  0.10000000000E+001
  0.17812710500E+008,  0.20002489091E+007,  0.19000000000E+002,  0.00000000000E+000,  0.10000000000E+001
  0.17812712500E+008,  0.20002495162E+007,  0.19000000000E+002,  0.00000000000E+000,  0.10000000000E+001
  0.17812714500E+008,  0.20002501140E+007,  0.19000000000E+002,  0.00000000000E+000,  0.10000000000E+001
  0.17812716500E+008,  0.20002507032E+007,  0.19000000000E+002,  0.00000000000E+000,  0.10000000000E+001
  0.17812718500E+008,  0.20002512847E+007,  0.19000000000E+002,  0.00000000000E+000,  0.10000000000E+001
  0.17812720500E+008,  0.20002518593E+007,  0.19000000000E+002,  0.00000000000E+000,  0.10000000000E+001
  0.17812722500E+008,  0.20002524277E+007,  0.19000000000E+002,  0.00000000000E+000,  0.10000000000E+001
  0.17812724500E+008,  0.20002529904E+007,  0.19000000000E+002,  0.00000000000E+000,  0.10000000000E+001
  0.17812726500E+008,  0.20002535481E+007,  0.19000000000E+002,  0.00000000000E+000,  0.10000000000E+001
  0.17812728500E+008,  0.20002541014E+007,  0.19000000000E+002,  0.00000000000E+000,  0.10000000000E+001
  0.17812730500E+008,  0.20002546506E+007,  0.19000000000E+002,  0.00000000000E+000,  0.10000000000E+001
  0.17812732500E+008,  0.20002551963E+007,  0.19000000000E+002,  0.00000000000E+000,  0.10000000000E+001
  0.17812734500E+008,  0.20002557388E+007,  0.19000000000E+002,  0.00000000000E+000,  0.10000000000E+001
  0.17812736500E+008,  0.20002562786E+007,  0.19000000000E+002,  0.00000000000E+000,  0.10000000000E+001
  0.17812738500E+008,  0.20002568159E+007,  0.19000000000E+002,  0.00000000000E+000,  0.10000000000E+001
  0.17812740500E+008,  0.20002573511E+007,  0.19000000000E+002,  0.00000000000E+000,  0.10000000000E+001
  0.17812742500E+008,  0.20002578845E+007,  0.19000000000E+002,  0.00000000000E+000,  0.10000000000E+001
  0.17812744500E+008,  0.20002584163E+007,  0.19000000000E+002,  0.00000000000E+000,  0.10000000000E+001
  0.17812746500E+008,  0.20002589467E+007,  0.19000000000E+002,  0.00000000000E+000,  0.10000000000E+001
  0.17812748500E+008,  0.20002594760E+007,  0.19000000000E+002,  0.00000000000E+000,  0.10000000000E+001
  0.17812750500E+008,  0.20002600044E+007,  0.19000000000E+002,  0.00000000000E+000,  0.10000000000E+001
  0.17812752500E+008,  0.20002605320E+007,  0.19000000000E+002,  0.00000000000E+000,  0.10000000000E+001
  0.17812754500E+008,  0.20002610589E+007,  0.19000000000E+002,  0.00000000000E+000,  0.10000000000E+001
  0.17812756500E+008,  0.20002615855E+007,  0.19000000000E+002,  0.00000000000E+000,  0.10000000000E+001
  0.17812758500E+008,  0.20002621117E+007,  0.19000000000E+002,  0.00000000000E+000,  0.10000000000E+001
  0.17812760500E+008,  0.20002626377E+007,  0.19000000000E+002,  0.00000000000E+000,  0.10000000000E+001
  0.17812762500E+008,  0.20002631636E+007,  0.19000000000E+002,  0.00000000000E+000,  0.10000000000E+001
  0.17812764500E+008,  0.20002636895E+007,  0.19000000000E+002,  0.00000000000E+000,  0.10000000000E+001
  0.17812766500E+008,  0.20002642155E+007,  0.19000000000E+002,  0.00000000000E+000,  0.10000000000E+001
  0.17812768500E+008,  0.20002647416E+007,  0.19000000000E+002,  0.00000000000E+000,  0.10000000000E+001
  0.17812770500E+008,  0.20002652679E+007,  0.19000000000E+002,  0.00000000000E+000,  0.10000000000E+001
  0.17812772500E+008,  0.20002657946E+007,  0.19000000000E+002,  0.00000000000E+000,  0.10000000000E+001
  0.17812774500E+008,  0.20002663216E+007,  0.19000000000E+002,  0.00000000000E+000,  0.10000000000E+001
  0.17812776500E+008,  0.20002668489E+007,  0.19000000000E+002,  0.00000000000E+000,  0.10000000000E+001
  0.17812778500E+008,  0.20002673767E+007,  0.19000000000E+002,  0.00000000000E+000,  0.10000000000E+001
  0.17812780500E+008,  0.20002679049E+007,  0.19000000000E+002,  0.00000000000E+000,  0.10000000000E+001
  0.17812782500E+008,  0.20002684336E+007,  0.19000000000E+002,  0.00000000000E+000,  0.10000000000E+001
  0.17812784500E+008,  0.20002689629E+007,  0.19000000000E+002,  0.00000000000E+000,  0.10000000000E+001
  0.17812786500E+008,  0.20002694926E+007,  0.19000000000E+002,  0.00000000000E+000,  0.10000000000E+001
  0.17812788500E+008,  0.20002700230E+007,  0.19000000000E+002,  0.00000000000E+000,  0.10000000000E+001
  0.17812790500E+008,  0.20002705539E+007,  0.19000000000E+002,  0.00000000000E+000,  0.10000000000E+001
  0.17812792500E+008,  0.20002710853E+007,  0.19000000000E+002,  0.00000000000E+000,  0.10000000000E+001
  0.17812794500E+008,  0.20002716173E+007,  0.19000000000E+002,  0.00000000000E+000,  0.10000000000E+001
  0.17812796500E+008,  0.20002721500E+007,  0.19000000000E+002,  0.00000000000E+000,  0.10000000000E+001
  0.17812798500E+008,  0.20002726832E+007,  0.19000000000E+002,  0.00000000000E+000,  0.10000000000E+001
  0.17812800500E+008,  0.20002732170E+007,  0.19000000000E+002,  0.00000000000E+000,  0.10000000000E+001
  0.17812802500E+008,  0.20002737513E+007,  0.19000000000E+002,  0.00000000000E+000,  0.10000000000E+001
  0.17812804500E+008,  0.20002742863E+007,  0.19000000000E+002,  0.00000000000E+000,  0.10000000000E+001
  0.17812806500E+008,  0.20002748218E+007,  0.19000000000E+002,  0.00000000000E+000,  0.10000000000E+001
  0.17812808500E+008,  0.20002753579E+007,  0.19000000000E+002,  0.00000000000E+000,  0.10000000000E+001
  0.17812810500E+008,  0.20002758946E+007,  0.19000000000E+002,  0.00000000000E+000,  0.10000000000E+001
  0.17812812500E+008,  0.20002764318E+007,  0.19000000000E+002,  0.00000000000E+000,  0.10000000000E+001
  0.17812814500E+008,  0.20002769695E+007,  0.19000000000E+002,  0.00000000000E+000,  0.10000000000E+001
  0.17812816500E+008,  0.20002775078E+007,  0.19000000000E+002,  0.00000000000E+000,  0.10000000000E+001
  0.17812818500E+008,  0.20002780465E+007,  0.19000000000E+002,  0.00000000000E+000,  0.10000000000E+001
  0.17812820500E+008,  0.20002785858E+007,  0.19000000000E+002,  0.00000000000E+000,  0.10000000000E+001
  0.17812822500E+008,  0.20002791255E+007,  0.19000000000E+002,  0.00000000000E+000,  0.10000000000E+001
  0.17812824500E+008,  0.20002796657E+007,  0.19000000000E+002,  0.00000000000E+000,  0.10000000000E+001
  0.17812826500E+008,  0.20002802064E+007,  0.19000000000E+002,  0.00000000000E+000,  0.10000000000E+001
  0.17812828500E+008,  0.20002807475E+007,  0.19000000000E+002,  0.00000000000E+000,  0.10000000000E+001
  0.17812830500E+008,  0.20002812890E+007,  0.19000000000E+002,  0.00000000000E+000,  0.10000000000E+001
  0.17812832500E+008,  0.20002818309E+007,  0.19000000000E+002,  0.00000000000E+000,  0.10000000000E+001
  0.17812834500E+008,  0.20002823732E+007,  0.19000000000E+002,  0.00000000000E+000,  0.10000000000E+001
  0.17812836500E+008,  0.20002829159E+007,  0.19000000000E+002,  0.00000000000E+000,  0.10000000000E+001
  0.17812838500E+008,  0.20002834589E+007,  0.19000000000E+002,  0.00000000000E+000,  0.10000000000E+001
  0.17812840500E+008,  0.20002840023E+007,  0.19000000000E+002,  0.00000000000E+000,  0.10000000000E+001
  0.17812842500E+008,  0.20002845459E+007,  0.19000000000E+002,  0.00000000000E+000,  0.10000000000E+001
  0.17812844500E+008,  0.20002850899E+007,  0.19000000000E+002,  0.00000000000E+000,  0.10000000000E+001
  0.17812846500E+008,  0.20002856341E+007,  0.19000000000E+002,  0.00000000000E+000,  0.10000000000E+001
  0.17812848500E+008,  0.20002861786E+007,  0.19000000000E+002,  0.00000000000E+000,  0.10000000000E+001
  0.17812850500E+008,  0.20002867234E+007,  0.19000000000E+002,  0.00000000000E+000,  0.10000000000E+001
  0.17812852500E+008,  0.20002872683E+007,  0.19000000000E+002,  0.00000000000E+000,  0.10000000000E+001
  0.17812854500E+008,  0.20002878135E+007,  0.19000000000E+002,  0.00000000000E+000,  0.10000000000E+001
  0.17812856500E+008,  0.20002883589E+007,  0.19000000000E+002,  0.00000000000E+000,  0.10000000000E+001
  0.17812858500E+008,  0.20002889045E+007,  0.19000000000E+002,  0.00000000000E+000,  0.10000000000E+001
  0.17812860500E+008,  0.20002894502E+007,  0.19000000000E+002,  0.00000000000E+000,  0.10000000000E+001
  0.17812862500E+008,  0.20002899961E+007,  0.19000000000E+002,  0.00000000000E+000,  0.10000000000E+001
  0.17812864500E+008,  0.20002905420E+007,  0.19000000000E+002,  0.00000000000E+000,  0.10000000000E+001
  0.17812866500E+008,  0.20002910881E+007,  0.19000000000E+002,  0.00000000000E+000,  0.10000000000E+001
  0.17812868500E+008,  0.20002916343E+007,  0.19000000000E+002,  0.00000000000E+000,  0.10000000000E+001
  0.17812870500E+008,  0.20002921806E+007,  0.19000000000E+002,  0.00000000000E+000,  0.10000000000E+001
  0.17812872500E+008,  0.20002927269E+007,  0.19000000000E+002,  0.00000000000E+000,  0.10000000000E+001
  0.17812874500E+008,  0.20002932733E+007,  0.19000000000E+002,  0.00000000000E+000,  0.10000000000E+001
  0.17812876500E+008,  0.20002938197E+007,  0.19000000000E+002,  0.00000000000E+000,  0.10000000000E+001
  0.17812878500E+008,  0.20002943661E+007,  0.19000000000E+002,  0.00000000000E+000,  0.10000000000E+001
  0.17812880500E+008,  0.20002949126E+007,  0.19000000000E+002,  0.00000000000E+000,  0.10000000000E+001
  0.17812882500E+008,  0.20002954590E+007,  0.19000000000E+002,  0.00000000000E+000,  0.10000000000E+001
  0.17812884500E+008,  0.20002960054E+007,  0.19000000000E+002,  0.00000000000E+000,  0.10000000000E+001
  0.17812886500E+008,  0.20002965517E+007,  0.19000000000E+002,  0.00000000000E+000,  0.10000000000E+001
  0.17812888500E+008,  0.20002970980E+007,  0.19000000000E+002,  0.00000000000E+000,  0.10000000000E+001
  0.17812890500E+008,  0.20002976443E+007,  0.19000000000E+002,  0.00000000000E+000,  0.10000000000E+001
  0.17812892500E+008,  0.20002981904E+007,  0.19000000000E+002,  0.00000000000E+000,  0.10000000000E+001
  0.17812894500E+008,  0.20002987365E+007,  0.19000000000E+002,  0.00000000000E+000,  0.10000000000E+001
  0.17812896500E+008,  0.20002992824E+007,  0.19000000000E+002,  0.00000000000E+000,  0.10000000000E+001
  0.17812898500E+008,  0.20002998283E+007,  0.19000000000E+002,  0.00000000000E+000,  0.10000000000E+001
  0.17812900500E+008,  0.20003003740E+007,  0.19000000000E+002,  0.00000000000E+000,  0.10000000000E+001
  0.17812902500E+008,  0.20003009195E+007,  0.19000000000E+002,  0.00000000000E+000,  0.10000000000E+001
  0.17812904500E+008,  0.20003014650E+007,  0.19000000000E+002,  0.00000000000E+000,  0.10000000000E+001
  0.17812906500E+008,  0.20003020102E+007,  0.19000000000E+002,  0.00000000000E+000,  0.10000000000E+001
  0.17812908500E+008,  0.20003025553E+007,  0.19000000000E+002,  0.00000000000E+000,  0.10000000000E+001
  0.17812910500E+008,  0.20003031002E+007,  0.19000000000E+002,  0.00000000000E+000,  0.10000000000E+001
  0.17812912500E+008,  0.20003036449E+007,  0.19000000000E+002,  0.00000000000E+000,  0.10000000000E+001
  0.17812914500E+008,  0.20003041894E+007,  0.19000000000E+002,  0.00000000000E+000,  0.10000000000E+001
  0.17812916500E+008,  0.20003047337E+007,  0.19000000000E+002,  0.00000000000E+000,  0.10000000000E+001
  0.17812918500E+008,  0.20003052778E+007,  0.19000000000E+002,  0.00000000000E+000,  0.10000000000E+001
  0.17812920500E+008,  0.20003058216E+007,  0.19000000000E+002,  0.00000000000E+000,  0.10000000000E+001
  0.17812922500E+008,  0.20003063652E+007,  0.19000000000E+002,  0.00000000000E+000,  0.10000000000E+001
  0.17812924500E+008,  0.20003069085E+007,  0.19000000000E+002,  0.00000000000E+000,  0.10000000000E+001
  0.17812926500E+008,  0.20003074515E+007,  0.19000000000E+002,  0.00000000000E+000,  0.10000000000E+001
  0.17812928500E+008,  0.20003079943E+007,  0.19000000000E+002,  0.00000000000E+000,  0.10000000000E+001
  0.17812930500E+008,  0.20003085369E+007,  0.19000000000E+002,  0.00000000000E+000,  0.10000000000E+001
  0.17812932500E+008,  0.20003090791E+007,  0.19000000000E+002,  0.00000000000E+000,  0.10000000000E+001
  0.17812934500E+008,  0.20003096210E+007,  0.19000000000E+002,  0.00000000000E+000,  0.10000000000E+001
  0.17812936500E+008,  0.20003101627E+007,  0.19000000000E+002,  0.00000000000E+000,  0.10000000000E+001
  0.17812938500E+008,  0.20003107040E+007,  0.19000000000E+002,  0.00000000000E+000,  0.10000000000E+001
  0.17812940500E+008,  0.20003112450E+007,  0.19000000000E+002,  0.00000000000E+000,  0.10000000000E+001
  0.17812942500E+008,  0.20003117857E+007,  0.19000000000E+002,  0.00000000000E+000,  0.10000000000E+001
  0.17812944500E+008,  0.20003123261E+007,  0.19000000000E+002,  0.00000000000E+000,  0.10000000000E+001
  0.17812946500E+008,  0.20003128661E+007,  0.19000000000E+002,  0.00000000000E+000,  0.10000000000E+001
  0.17812948500E+008,  0.20003134058E+007,  0.19000000000E+002,  0.00000000000E+000,  0.10000000000E+001
  0.17812950500E+008,  0.20003139451E+007,  0.19000000000E+002,  0.00000000000E+000,  0.10000000000E+001
  0.17812952500E+008,  0.20003144841E+007,  0.19000000000E+002,  0.00000000000E+000,  0.10000000000E+001
  0.17812954500E+008,  0.20003150227E+007,  0.19000000000E+002,  0.00000000000E+000,  0.10000000000E+001
  0.17812956500E+008,  0.20003155610E+007,  0.19000000000E+002,  0.00000000000E+000,  0.10000000000E+001
  0.17812958500E+008,  0.20003160988E+007,  0.19000000000E+002,  0.00000000000E+000,  0.10000000000E+001
  0.17812960500E+008,  0.20003166363E+007,  0.19000000000E+002,  0.00000000000E+000,  0.10000000000E+001
  0.17812962500E+008,  0.20003171735E+007,  0.19000000000E+002,  0.00000000000E+000,  0.10000000000E+001
  0.17812964500E+008,  0.20003177102E+007,  0.19000000000E+002,  0.00000000000E+000,  0.10000000000E+001
  0.17812966500E+008,  0.20003182465E+007,  0.19000000000E+002,  0.00000000000E+000,  0.10000000000E+001
  0.17812968500E+008,  0.20003187825E+007,  0.19000000000E+002,  0.00000000000E+000,  0.10000000000E+001
  0.17812970500E+008,  0.20003193180E+007,  0.19000000000E+002,  0.00000000000E+000,  0.10000000000E+001
  0.17812972500E+008,  0.20003198531E+007,  0.19000000000E+002,  0.00000000000E+000,  0.10000000000E+001
  0.17812974500E+008,  0.20003203878E+007,  0.19000000000E+002,  0.00000000000E+000,  0.10000000000E+001
  0.17812976500E+008,  0.20003209221E+007,  0.19000000000E+002,  0.00000000000E+000,  0.10000000000E+001
