"           TIME(S)","              PRES","              TEMP","             SAT_G","             SAT_L"
  0.17963400000E+008,  0.20972442634E+007,  0.19000000000E+002,  0.00000000000E+000,  0.10000000000E+001
  0.17964900000E+008,  0.20895669019E+007,  0.19000000000E+002,  0.00000000000E+000,  0.10000000000E+001
  0.17966400000E+008,  0.20840486413E+007,  0.19000000000E+002,  0.00000000000E+000,  0.10000000000E+001
  0.17967900000E+008,  0.20796917480E+007,  0.19000000000E+002,  0.00000000000E+000,  0.10000000000E+001
  0.17969400000E+008,  0.20759679123E+007,  0.19000000000E+002,  0.00000000000E+000,  0.10000000000E+001
  0.17970900000E+008,  0.20726277156E+007,  0.19000000000E+002,  0.00000000000E+000,  0.10000000000E+001
  0.17972400000E+008,  0.20695362369E+007,  0.19000000000E+002,  0.00000000000E+000,  0.10000000000E+001
  0.17973900000E+008,  0.20666153735E+007,  0.19000000000E+002,  0.00000000000E+000,  0.10000000000E+001
  0.17975400000E+008,  0.20638203668E+007,  0.19000000000E+002,  0.00000000000E+000,  0.10000000000E+001
  0.17976900000E+008,  0.20611269577E+007,  0.19000000000E+002,  0.00000000000E+000,  0.10000000000E+001
  0.17978400000E+008,  0.20585232234E+007,  0.19000000000E+002,  0.00000000000E+000,  0.10000000000E+001
  0.17979900000E+008,  0.20560042582E+007,  0.19000000000E+002,  0.00000000000E+000,  0.10000000000E+001
  0.17981400000E+008,  0.20535782584E+007,  0.19000000000E+002,  0.00000000000E+000,  0.10000000000E+001
  0.17982900000E+008,  0.20513655890E+007,  0.19000000000E+002,  0.00000000000E+000,  0.10000000000E+001
  0.17984400000E+008,  0.20493753719E+007,  0.19000000000E+002,  0.00000000000E+000,  0.10000000000E+001
  0.17985900000E+008,  0.20475720165E+007,  0.19000000000E+002,  0.00000000000E+000,  0.10000000000E+001
  0.17987400000E+008,  0.20459259185E+007,  0.19000000000E+002,  0.00000000000E+000,  0.10000000000E+001
  0.17988900000E+008,  0.20444145699E+007,  0.19000000000E+002,  0.00000000000E+000,  0.10000000000E+001
  0.17990400000E+008,  0.20430200300E+007,  0.19000000000E+002,  0.00000000000E+000,  0.10000000000E+001
  0.17991900000E+008,  0.20417276321E+007,  0.19000000000E+002,  0.00000000000E+000,  0.10000000000E+001
  0.17993400000E+008,  0.20405252508E+007,  0.19000000000E+002,  0.00000000000E+000,  0.10000000000E+001
  0.17994900000E+008,  0.20394027801E+007,  0.19000000000E+002,  0.00000000000E+000,  0.10000000000E+001
  0.17996400000E+008,  0.20383517300E+007,  0.19000000000E+002,  0.00000000000E+000,  0.10000000000E+001
  0.17997900000E+008,  0.20373649087E+007,  0.19000000000E+002,  0.00000000000E+000,  0.10000000000E+001
  0.17999400000E+008,  0.20364361743E+007,  0.19000000000E+002,  0.00000000000E+000,  0.10000000000E+001
  0.18000900000E+008,  0.20355602406E+007,  0.19000000000E+002,  0.00000000000E+000,  0.10000000000E+001
  0.18002400000E+008,  0.20347325237E+007,  0.19000000000E+002,  0.00000000000E+000,  0.10000000000E+001
  0.18003900000E+008,  0.20339490211E+007,  0.19000000000E+002,  0.00000000000E+000,  0.10000000000E+001
  0.18005400000E+008,  0.20332062160E+007,  0.19000000000E+002,  0.00000000000E+000,  0.10000000000E+001
  0.18006900000E+008,  0.20325009993E+007,  0.19000000000E+002,  0.00000000000E+000,  0.10000000000E+001
  0.18008400000E+008,  0.20318306079E+007,  0.19000000000E+002,  0.00000000000E+000,  0.10000000000E+001
  0.18009900000E+008,  0.20311925736E+007,  0.19000000000E+002,  0.00000000000E+000,  0.10000000000E+001
  0.18011400000E+008,  0.20305846813E+007,  0.19000000000E+002,  0.00000000000E+000,  0.10000000000E+001
  0.18012900000E+008,  0.20300049346E+007,  0.19000000000E+002,  0.00000000000E+000,  0.10000000000E+001
  0.18014400000E+008,  0.20294515271E+007,  0.19000000000E+002,  0.00000000000E+000,  0.10000000000E+001
  0.18015900000E+008,  0.20289228182E+007,  0.19000000000E+002,  0.00000000000E+000,  0.10000000000E+001
  0.18017400000E+008,  0.20284178584E+007,  0.19000000000E+002,  0.00000000000E+000,  0.10000000000E+001
  0.18018900000E+008,  0.20279352458E+007,  0.19000000000E+002,  0.00000000000E+000,  0.10000000000E+001
  0.18020400000E+008,  0.20274736266E+007,  0.19000000000E+002,  0.00000000000E+000,  0.10000000000E+001
  0.18021900000E+008,  0.20270317612E+007,  0.19000000000E+002,  0.00000000000E+000,  0.10000000000E+001
  0.18023400000E+008,  0.20266085157E+007,  0.19000000000E+002,  0.00000000000E+000,  0.10000000000E+001
  0.18024900000E+008,  0.20262028508E+007,  0.19000000000E+002,  0.00000000000E+000,  0.10000000000E+001
  0.18026400000E+008,  0.20258138119E+007,  0.19000000000E+002,  0.00000000000E+000,  0.10000000000E+001
  0.18027900000E+008,  0.20254405195E+007,  0.19000000000E+002,  0.00000000000E+000,  0.10000000000E+001
  0.18029400000E+008,  0.20250821613E+007,  0.19000000000E+002,  0.00000000000E+000,  0.10000000000E+001
  0.18030900000E+008,  0.20247379849E+007,  0.19000000000E+002,  0.00000000000E+000,  0.10000000000E+001
  0.18032400000E+008,  0.20244072917E+007,  0.19000000000E+002,  0.00000000000E+000,  0.10000000000E+001
  0.18033900000E+008,  0.20240894316E+007,  0.19000000000E+002,  0.00000000000E+000,  0.10000000000E+001
  0.18035400000E+008,  0.20237837984E+007,  0.19000000000E+002,  0.00000000000E+000,  0.10000000000E+001
  0.18036900000E+008,  0.20234898254E+007,  0.19000000000E+002,  0.00000000000E+000,  0.10000000000E+001
  0.18038400000E+008,  0.20232069822E+007,  0.19000000000E+002,  0.00000000000E+000,  0.10000000000E+001
  0.18039900000E+008,  0.20229347715E+007,  0.19000000000E+002,  0.00000000000E+000,  0.10000000000E+001
  0.18041400000E+008,  0.20226727259E+007,  0.19000000000E+002,  0.00000000000E+000,  0.10000000000E+001
  0.18042900000E+008,  0.20224204061E+007,  0.19000000000E+002,  0.00000000000E+000,  0.10000000000E+001
  0.18044400000E+008,  0.20221773981E+007,  0.19000000000E+002,  0.00000000000E+000,  0.10000000000E+001
  0.18045900000E+008,  0.20219433115E+007,  0.19000000000E+002,  0.00000000000E+000,  0.10000000000E+001
  0.18047400000E+008,  0.20217177776E+007,  0.19000000000E+002,  0.00000000000E+000,  0.10000000000E+001
  0.18048900000E+008,  0.20215004480E+007,  0.19000000000E+002,  0.00000000000E+000,  0.10000000000E+001
  0.18050400000E+008,  0.20212909928E+007,  0.19000000000E+002,  0.00000000000E+000,  0.10000000000E+001
  0.18051900000E+008,  0.20210890998E+007,  0.19000000000E+002,  0.00000000000E+000,  0.10000000000E+001
  0.18053400000E+008,  0.20208944726E+007,  0.19000000000E+002,  0.00000000000E+000,  0.10000000000E+001
  0.18054900000E+008,  0.20207068301E+007,  0.19000000000E+002,  0.00000000000E+000,  0.10000000000E+001
  0.18056400000E+008,  0.20205259053E+007,  0.19000000000E+002,  0.00000000000E+000,  0.10000000000E+001
  0.18057900000E+008,  0.20203514443E+007,  0.19000000000E+002,  0.00000000000E+000,  0.10000000000E+001
  0.18059400000E+008,  0.20201832056E+007,  0.19000000000E+002,  0.00000000000E+000,  0.10000000000E+001
  0.18060900000E+008,  0.20200209592E+007,  0.19000000000E+002,  0.00000000000E+000,  0.10000000000E+001
  0.18062400000E+008,  0.20198644859E+007,  0.19000000000E+002,  0.00000000000E+000,  0.10000000000E+001
  0.18063900000E+008,  0.20197135769E+007,  0.19000000000E+002,  0.00000000000E+000,  0.10000000000E+001
  0.18065400000E+008,  0.20195680328E+007,  0.19000000000E+002,  0.00000000000E+000,  0.10000000000E+001
  0.18066900000E+008,  0.20194276632E+007,  0.19000000000E+002,  0.00000000000E+000,  0.10000000000E+001
  0.18068400000E+008,  0.20192922863E+007,  0.19000000000E+002,  0.00000000000E+000,  0.10000000000E+001
  0.18069900000E+008,  0.20191774144E+007,  0.19000000000E+002,  0.00000000000E+000,  0.10000000000E+001
  0.18071400000E+008,  0.20190900515E+007,  0.19000000000E+002,  0.00000000000E+000,  0.10000000000E+001
  0.18072900000E+008,  0.20190270292E+007,  0.19000000000E+002,  0.00000000000E+000,  0.10000000000E+001
  0.18074400000E+008,  0.20189844279E+007,  0.19000000000E+002,  0.00000000000E+000,  0.10000000000E+001
  0.18075900000E+008,  0.20189588252E+007,  0.19000000000E+002,  0.00000000000E+000,  0.10000000000E+001
  0.18077400000E+008,  0.20189473362E+007,  0.19000000000E+002,  0.00000000000E+000,  0.10000000000E+001
  0.18078900000E+008,  0.20189475645E+007,  0.19000000000E+002,  0.00000000000E+000,  0.10000000000E+001
  0.18080400000E+008,  0.20189575392E+007,  0.19000000000E+002,  0.00000000000E+000,  0.10000000000E+001
  0.18081900000E+008,  0.20189756474E+007,  0.19000000000E+002,  0.00000000000E+000,  0.10000000000E+001
  0.18083400000E+008,  0.20190005713E+007,  0.19000000000E+002,  0.00000000000E+000,  0.10000000000E+001
  0.18084900000E+008,  0.20190312343E+007,  0.19000000000E+002,  0.00000000000E+000,  0.10000000000E+001
  0.18086400000E+008,  0.20190667555E+007,  0.19000000000E+002,  0.00000000000E+000,  0.10000000000E+001
  0.18087900000E+008,  0.20191064125E+007,  0.19000000000E+002,  0.00000000000E+000,  0.10000000000E+001
  0.18089400000E+008,  0.20191496116E+007,  0.19000000000E+002,  0.00000000000E+000,  0.10000000000E+001
  0.18090900000E+008,  0.20191958632E+007,  0.19000000000E+002,  0.00000000000E+000,  0.10000000000E+001
  0.18092400000E+008,  0.20192447625E+007,  0.19000000000E+002,  0.00000000000E+000,  0.10000000000E+001
  0.18093900000E+008,  0.20192959736E+007,  0.19000000000E+002,  0.00000000000E+000,  0.10000000000E+001
  0.18095400000E+008,  0.20193492167E+007,  0.19000000000E+002,  0.00000000000E+000,  0.10000000000E+001
  0.18096900000E+008,  0.20194042578E+007,  0.19000000000E+002,  0.00000000000E+000,  0.10000000000E+001
  0.18098400000E+008,  0.20194609003E+007,  0.19000000000E+002,  0.00000000000E+000,  0.10000000000E+001
  0.18099900000E+008,  0.20195189784E+007,  0.19000000000E+002,  0.00000000000E+000,  0.10000000000E+001
  0.18101400000E+008,  0.20195783517E+007,  0.19000000000E+002,  0.00000000000E+000,  0.10000000000E+001
  0.18102900000E+008,  0.20196389003E+007,  0.19000000000E+002,  0.00000000000E+000,  0.10000000000E+001
  0.18104400000E+008,  0.20197005216E+007,  0.19000000000E+002,  0.00000000000E+000,  0.10000000000E+001
  0.18105900000E+008,  0.20197631271E+007,  0.19000000000E+002,  0.00000000000E+000,  0.10000000000E+001
  0.18107400000E+008,  0.20198266401E+007,  0.19000000000E+002,  0.00000000000E+000,  0.10000000000E+001
  0.18108900000E+008,  0.20198909938E+007,  0.19000000000E+002,  0.00000000000E+000,  0.10000000000E+001
  0.18110400000E+008,  0.20199561295E+007,  0.19000000000E+002,  0.00000000000E+000,  0.10000000000E+001
  0.18111900000E+008,  0.20200219953E+007,  0.19000000000E+002,  0.00000000000E+000,  0.10000000000E+001
  0.18113400000E+008,  0.20200885451E+007,  0.19000000000E+002,  0.00000000000E+000,  0.10000000000E+001
  0.18114900000E+008,  0.20201557377E+007,  0.19000000000E+002,  0.00000000000E+000,  0.10000000000E+001
  0.18116400000E+008,  0.20202235360E+007,  0.19000000000E+002,  0.00000000000E+000,  0.10000000000E+001
  0.18117900000E+008,  0.20202919063E+007,  0.19000000000E+002,  0.00000000000E+000,  0.10000000000E+001
  0.18119400000E+008,  0.20203608179E+007,  0.19000000000E+002,  0.00000000000E+000,  0.10000000000E+001
  0.18120900000E+008,  0.20204302429E+007,  0.19000000000E+002,  0.00000000000E+000,  0.10000000000E+001
  0.18122400000E+008,  0.20205108207E+007,  0.19000000000E+002,  0.00000000000E+000,  0.10000000000E+001
  0.18123900000E+008,  0.20206235311E+007,  0.19000000000E+002,  0.00000000000E+000,  0.10000000000E+001
  0.18125400000E+008,  0.20207660048E+007,  0.19000000000E+002,  0.00000000000E+000,  0.10000000000E+001
  0.18126900000E+008,  0.20209331909E+007,  0.19000000000E+002,  0.00000000000E+000,  0.10000000000E+001
  0.18128400000E+008,  0.20211205113E+007,  0.19000000000E+002,  0.00000000000E+000,  0.10000000000E+001
  0.18129900000E+008,  0.20213240431E+007,  0.19000000000E+002,  0.00000000000E+000,  0.10000000000E+001
  0.18131400000E+008,  0.20215404884E+007,  0.19000000000E+002,  0.00000000000E+000,  0.10000000000E+001
  0.18132900000E+008,  0.20217671134E+007,  0.19000000000E+002,  0.00000000000E+000,  0.10000000000E+001
  0.18134400000E+008,  0.20220016719E+007,  0.19000000000E+002,  0.00000000000E+000,  0.10000000000E+001
  0.18135900000E+008,  0.20222423275E+007,  0.19000000000E+002,  0.00000000000E+000,  0.10000000000E+001
  0.18137400000E+008,  0.20224875837E+007,  0.19000000000E+002,  0.00000000000E+000,  0.10000000000E+001
  0.18138900000E+008,  0.20227362225E+007,  0.19000000000E+002,  0.00000000000E+000,  0.10000000000E+001
  0.18140400000E+008,  0.20229872541E+007,  0.19000000000E+002,  0.00000000000E+000,  0.10000000000E+001
  0.18141900000E+008,  0.20232398753E+007,  0.19000000000E+002,  0.00000000000E+000,  0.10000000000E+001
  0.18143400000E+008,  0.20234934349E+007,  0.19000000000E+002,  0.00000000000E+000,  0.10000000000E+001
  0.18144900000E+008,  0.20237474063E+007,  0.19000000000E+002,  0.00000000000E+000,  0.10000000000E+001
  0.18146400000E+008,  0.20240013641E+007,  0.19000000000E+002,  0.00000000000E+000,  0.10000000000E+001
  0.18147900000E+008,  0.20242549662E+007,  0.19000000000E+002,  0.00000000000E+000,  0.10000000000E+001
  0.18149400000E+008,  0.20245079383E+007,  0.19000000000E+002,  0.00000000000E+000,  0.10000000000E+001
  0.18150900000E+008,  0.20247600615E+007,  0.19000000000E+002,  0.00000000000E+000,  0.10000000000E+001
  0.18152400000E+008,  0.20250111624E+007,  0.19000000000E+002,  0.00000000000E+000,  0.10000000000E+001
  0.18153900000E+008,  0.20252611046E+007,  0.19000000000E+002,  0.00000000000E+000,  0.10000000000E+001
  0.18155400000E+008,  0.20255097821E+007,  0.19000000000E+002,  0.00000000000E+000,  0.10000000000E+001
  0.18156900000E+008,  0.20257571138E+007,  0.19000000000E+002,  0.00000000000E+000,  0.10000000000E+001
  0.18158400000E+008,  0.20260030388E+007,  0.19000000000E+002,  0.00000000000E+000,  0.10000000000E+001
  0.18159900000E+008,  0.20262475127E+007,  0.19000000000E+002,  0.00000000000E+000,  0.10000000000E+001
  0.18161400000E+008,  0.20264905046E+007,  0.19000000000E+002,  0.00000000000E+000,  0.10000000000E+001
  0.18162900000E+008,  0.20267319946E+007,  0.19000000000E+002,  0.00000000000E+000,  0.10000000000E+001
  0.18164400000E+008,  0.20269719717E+007,  0.19000000000E+002,  0.00000000000E+000,  0.10000000000E+001
  0.18165900000E+008,  0.20272104321E+007,  0.19000000000E+002,  0.00000000000E+000,  0.10000000000E+001
  0.18167400000E+008,  0.20274473777E+007,  0.19000000000E+002,  0.00000000000E+000,  0.10000000000E+001
  0.18168900000E+008,  0.20276828151E+007,  0.19000000000E+002,  0.00000000000E+000,  0.10000000000E+001
  0.18170400000E+008,  0.20279167549E+007,  0.19000000000E+002,  0.00000000000E+000,  0.10000000000E+001
  0.18171900000E+008,  0.20281492103E+007,  0.19000000000E+002,  0.00000000000E+000,  0.10000000000E+001
  0.18173400000E+008,  0.20283801968E+007,  0.19000000000E+002,  0.00000000000E+000,  0.10000000000E+001
  0.18174900000E+008,  0.20286098167E+007,  0.19000000000E+002,  0.00000000000E+000,  0.10000000000E+001
  0.18176400000E+008,  0.20288392717E+007,  0.19000000000E+002,  0.00000000000E+000,  0.10000000000E+001
  0.18177900000E+008,  0.20290685472E+007,  0.19000000000E+002,  0.00000000000E+000,  0.10000000000E+001
  0.18179400000E+008,  0.20292974703E+007,  0.19000000000E+002,  0.00000000000E+000,  0.10000000000E+001
  0.18180900000E+008,  0.20295258806E+007,  0.19000000000E+002,  0.00000000000E+000,  0.10000000000E+001
  0.18182400000E+008,  0.20297536412E+007,  0.19000000000E+002,  0.00000000000E+000,  0.10000000000E+001
  0.18183900000E+008,  0.20299806382E+007,  0.19000000000E+002,  0.00000000000E+000,  0.10000000000E+001
  0.18185400000E+008,  0.20302067795E+007,  0.19000000000E+002,  0.00000000000E+000,  0.10000000000E+001
  0.18186900000E+008,  0.20304319917E+007,  0.19000000000E+002,  0.00000000000E+000,  0.10000000000E+001
  0.18188400000E+008,  0.20306562178E+007,  0.19000000000E+002,  0.00000000000E+000,  0.10000000000E+001
  0.18189900000E+008,  0.20308794142E+007,  0.19000000000E+002,  0.00000000000E+000,  0.10000000000E+001
  0.18191400000E+008,  0.20311015483E+007,  0.19000000000E+002,  0.00000000000E+000,  0.10000000000E+001
  0.18192900000E+008,  0.20313225970E+007,  0.19000000000E+002,  0.00000000000E+000,  0.10000000000E+001
  0.18194400000E+008,  0.20315425441E+007,  0.19000000000E+002,  0.00000000000E+000,  0.10000000000E+001
  0.18195900000E+008,  0.20317613799E+007,  0.19000000000E+002,  0.00000000000E+000,  0.10000000000E+001
  0.18197400000E+008,  0.20319790993E+007,  0.19000000000E+002,  0.00000000000E+000,  0.10000000000E+001
  0.18198900000E+008,  0.20321957015E+007,  0.19000000000E+002,  0.00000000000E+000,  0.10000000000E+001
  0.18200400000E+008,  0.20324111884E+007,  0.19000000000E+002,  0.00000000000E+000,  0.10000000000E+001
  0.18201900000E+008,  0.20326255650E+007,  0.19000000000E+002,  0.00000000000E+000,  0.10000000000E+001
  0.18203400000E+008,  0.20328388380E+007,  0.19000000000E+002,  0.00000000000E+000,  0.10000000000E+001
  0.18204900000E+008,  0.20330510156E+007,  0.19000000000E+002,  0.00000000000E+000,  0.10000000000E+001
  0.18206400000E+008,  0.20332621076E+007,  0.19000000000E+002,  0.00000000000E+000,  0.10000000000E+001
  0.18207900000E+008,  0.20334721245E+007,  0.19000000000E+002,  0.00000000000E+000,  0.10000000000E+001
  0.18209400000E+008,  0.20336810776E+007,  0.19000000000E+002,  0.00000000000E+000,  0.10000000000E+001
  0.18210900000E+008,  0.20338889788E+007,  0.19000000000E+002,  0.00000000000E+000,  0.10000000000E+001
  0.18212400000E+008,  0.20340958401E+007,  0.19000000000E+002,  0.00000000000E+000,  0.10000000000E+001
  0.18213900000E+008,  0.20343016742E+007,  0.19000000000E+002,  0.00000000000E+000,  0.10000000000E+001
  0.18215400000E+008,  0.20345064935E+007,  0.19000000000E+002,  0.00000000000E+000,  0.10000000000E+001
  0.18216900000E+008,  0.20347103107E+007,  0.19000000000E+002,  0.00000000000E+000,  0.10000000000E+001
  0.18218400000E+008,  0.20349131384E+007,  0.19000000000E+002,  0.00000000000E+000,  0.10000000000E+001
  0.18219900000E+008,  0.20351149891E+007,  0.19000000000E+002,  0.00000000000E+000,  0.10000000000E+001
  0.18221400000E+008,  0.20353158753E+007,  0.19000000000E+002,  0.00000000000E+000,  0.10000000000E+001
  0.18222900000E+008,  0.20355158092E+007,  0.19000000000E+002,  0.00000000000E+000,  0.10000000000E+001
  0.18224400000E+008,  0.20357148030E+007,  0.19000000000E+002,  0.00000000000E+000,  0.10000000000E+001
  0.18225900000E+008,  0.20359128685E+007,  0.19000000000E+002,  0.00000000000E+000,  0.10000000000E+001
  0.18227400000E+008,  0.20361100173E+007,  0.19000000000E+002,  0.00000000000E+000,  0.10000000000E+001
  0.18228900000E+008,  0.20363074720E+007,  0.19000000000E+002,  0.00000000000E+000,  0.10000000000E+001
  0.18230400000E+008,  0.20365056739E+007,  0.19000000000E+002,  0.00000000000E+000,  0.10000000000E+001
  0.18231900000E+008,  0.20367044541E+007,  0.19000000000E+002,  0.00000000000E+000,  0.10000000000E+001
  0.18233400000E+008,  0.20369035904E+007,  0.19000000000E+002,  0.00000000000E+000,  0.10000000000E+001
  0.18234900000E+008,  0.20371028826E+007,  0.19000000000E+002,  0.00000000000E+000,  0.10000000000E+001
  0.18236400000E+008,  0.20373021579E+007,  0.19000000000E+002,  0.00000000000E+000,  0.10000000000E+001
  0.18237900000E+008,  0.20375012696E+007,  0.19000000000E+002,  0.00000000000E+000,  0.10000000000E+001
  0.18239400000E+008,  0.20377000951E+007,  0.19000000000E+002,  0.00000000000E+000,  0.10000000000E+001
  0.18240900000E+008,  0.20378985334E+007,  0.19000000000E+002,  0.00000000000E+000,  0.10000000000E+001
  0.18242400000E+008,  0.20380965012E+007,  0.19000000000E+002,  0.00000000000E+000,  0.10000000000E+001
  0.18243900000E+008,  0.20382939310E+007,  0.19000000000E+002,  0.00000000000E+000,  0.10000000000E+001
  0.18245400000E+008,  0.20384907677E+007,  0.19000000000E+002,  0.00000000000E+000,  0.10000000000E+001
