"           TIME(S)","              PRES","              TEMP","             SAT_G","             SAT_L"
  0.17592105000E+008,  0.21000000020E+007,  0.19000000000E+002,  0.10000000000E+001,  0.00000000000E+000
  0.17592130000E+008,  0.21000000119E+007,  0.19000000000E+002,  0.10000000000E+001,  0.00000000000E+000
  0.17592255000E+008,  0.21000000671E+007,  0.19000000000E+002,  0.10000000000E+001,  0.00000000000E+000
  0.17592405000E+008,  0.21000001388E+007,  0.19000000000E+002,  0.10000000000E+001,  0.00000000000E+000
  0.17592555000E+008,  0.21000001592E+007,  0.19000000000E+002,  0.10000000000E+001,  0.00000000000E+000
  0.17592705000E+008,  0.21000000634E+007,  0.19000000000E+002,  0.10000000000E+001,  0.00000000000E+000
  0.17592855000E+008,  0.20999997668E+007,  0.19000000000E+002,  0.10000000000E+001,  0.00000000000E+000
  0.17593005000E+008,  0.20999991730E+007,  0.19000000000E+002,  0.10000000000E+001,  0.00000000000E+000
  0.17593155000E+008,  0.20999981548E+007,  0.19000000000E+002,  0.10000000000E+001,  0.00000000000E+000
  0.17593305000E+008,  0.20999965705E+007,  0.19000000000E+002,  0.10000000000E+001,  0.00000000000E+000
  0.17593455000E+008,  0.20999942841E+007,  0.19000000000E+002,  0.10000000000E+001,  0.00000000000E+000
  0.17593605000E+008,  0.20999911711E+007,  0.19000000000E+002,  0.10000000000E+001,  0.00000000000E+000
  0.17593755000E+008,  0.20999871200E+007,  0.19000000000E+002,  0.10000000000E+001,  0.00000000000E+000
  0.17593905000E+008,  0.20999820322E+007,  0.19000000000E+002,  0.10000000000E+001,  0.00000000000E+000
  0.17594055000E+008,  0.20999758210E+007,  0.19000000000E+002,  0.10000000000E+001,  0.00000000000E+000
  0.17594205000E+008,  0.20999684115E+007,  0.19000000000E+002,  0.10000000000E+001,  0.00000000000E+000
  0.17594355000E+008,  0.20999597398E+007,  0.19000000000E+002,  0.10000000000E+001,  0.00000000000E+000
  0.17594505000E+008,  0.20999497524E+007,  0.19000000000E+002,  0.10000000000E+001,  0.00000000000E+000
  0.17594655000E+008,  0.20999384059E+007,  0.19000000000E+002,  0.10000000000E+001,  0.00000000000E+000
  0.17594805000E+008,  0.20999256656E+007,  0.19000000000E+002,  0.10000000000E+001,  0.00000000000E+000
  0.17594955000E+008,  0.20999115052E+007,  0.19000000000E+002,  0.10000000000E+001,  0.00000000000E+000
  0.17595105000E+008,  0.20998959056E+007,  0.19000000000E+002,  0.10000000000E+001,  0.00000000000E+000
  0.17595255000E+008,  0.20998788545E+007,  0.19000000000E+002,  0.10000000000E+001,  0.00000000000E+000
  0.17595405000E+008,  0.20998603451E+007,  0.19000000000E+002,  0.10000000000E+001,  0.00000000000E+000
  0.17595555000E+008,  0.20998413853E+007,  0.19000000000E+002,  0.10000000000E+001,  0.00000000000E+000
  0.17595630000E+008,  0.20998319271E+007,  0.19000000000E+002,  0.10000000000E+001,  0.00000000000E+000
  0.17595667501E+008,  0.20998272184E+007,  0.19000000000E+002,  0.10000000000E+001,  0.00000000000E+000
  0.17595817501E+008,  0.20998088517E+007,  0.19000000000E+002,  0.10000000000E+001,  0.00000000000E+000
  0.17595892501E+008,  0.20997998768E+007,  0.19000000000E+002,  0.10000000000E+001,  0.00000000000E+000
  0.17595930002E+008,  0.20997954681E+007,  0.19000000000E+002,  0.10000000000E+001,  0.00000000000E+000
  0.17596080002E+008,  0.20997791545E+007,  0.19000000000E+002,  0.10000000000E+001,  0.00000000000E+000
  0.17596230002E+008,  0.20997633912E+007,  0.19000000000E+002,  0.10000000000E+001,  0.00000000000E+000
  0.17596305002E+008,  0.20997556950E+007,  0.19000000000E+002,  0.10000000000E+001,  0.00000000000E+000
  0.17596342503E+008,  0.20997518953E+007,  0.19000000000E+002,  0.10000000000E+001,  0.00000000000E+000
  0.17596361253E+008,  0.20997500174E+007,  0.19000000000E+002,  0.10000000000E+001,  0.00000000000E+000
  0.17596370628E+008,  0.20997490855E+007,  0.19000000000E+002,  0.10000000000E+001,  0.00000000000E+000
  0.17596417504E+008,  0.20997446953E+007,  0.19000000000E+002,  0.10000000000E+001,  0.00000000000E+000
  0.17596440943E+008,  0.20997425728E+007,  0.19000000000E+002,  0.10000000000E+001,  0.00000000000E+000
  0.17596558134E+008,  0.20997328472E+007,  0.19000000000E+002,  0.10000000000E+001,  0.00000000000E+000
  0.17596616730E+008,  0.20997282127E+007,  0.19000000000E+002,  0.10000000000E+001,  0.00000000000E+000
  0.17596766730E+008,  0.20997187429E+007,  0.19000000000E+002,  0.10000000000E+001,  0.00000000000E+000
  0.17596841730E+008,  0.20997158067E+007,  0.19000000000E+002,  0.10000000000E+001,  0.00000000000E+000
  0.17596879231E+008,  0.20997155606E+007,  0.19000000000E+002,  0.10000000000E+001,  0.00000000000E+000
  0.17596897981E+008,  0.20997156628E+007,  0.19000000000E+002,  0.10000000000E+001,  0.00000000000E+000
  0.17596907356E+008,  0.20997164807E+007,  0.19000000000E+002,  0.10000000000E+001,  0.00000000000E+000
  0.17596912044E+008,  0.20997170116E+007,  0.19000000000E+002,  0.10000000000E+001,  0.00000000000E+000
  0.17596935482E+008,  0.20997191749E+007,  0.19000000000E+002,  0.10000000000E+001,  0.00000000000E+000
  0.17597052673E+008,  0.20997249534E+007,  0.19000000000E+002,  0.10000000000E+001,  0.00000000000E+000
  0.17597202673E+008,  0.20997288166E+007,  0.19000000000E+002,  0.10000000000E+001,  0.00000000000E+000
  0.17597352673E+008,  0.20997309362E+007,  0.19000000000E+002,  0.10000000000E+001,  0.00000000000E+000
  0.17597502673E+008,  0.20997321238E+007,  0.19000000000E+002,  0.10000000000E+001,  0.00000000000E+000
  0.17597652673E+008,  0.20997327915E+007,  0.19000000000E+002,  0.10000000000E+001,  0.00000000000E+000
  0.17597802673E+008,  0.20997331627E+007,  0.19000000000E+002,  0.10000000000E+001,  0.00000000000E+000
  0.17597952673E+008,  0.20997333628E+007,  0.19000000000E+002,  0.10000000000E+001,  0.00000000000E+000
  0.17598102673E+008,  0.20997334638E+007,  0.19000000000E+002,  0.10000000000E+001,  0.00000000000E+000
  0.17598252673E+008,  0.20997335074E+007,  0.19000000000E+002,  0.10000000000E+001,  0.00000000000E+000
  0.17598402673E+008,  0.20997335178E+007,  0.19000000000E+002,  0.10000000000E+001,  0.00000000000E+000
  0.17598552673E+008,  0.20997335092E+007,  0.19000000000E+002,  0.10000000000E+001,  0.00000000000E+000
  0.17598702673E+008,  0.20997334899E+007,  0.19000000000E+002,  0.10000000000E+001,  0.00000000000E+000
  0.17598852673E+008,  0.20997334646E+007,  0.19000000000E+002,  0.10000000000E+001,  0.00000000000E+000
  0.17599002673E+008,  0.20997334363E+007,  0.19000000000E+002,  0.10000000000E+001,  0.00000000000E+000
  0.17599152673E+008,  0.20997334065E+007,  0.19000000000E+002,  0.10000000000E+001,  0.00000000000E+000
  0.17599302673E+008,  0.20997333761E+007,  0.19000000000E+002,  0.10000000000E+001,  0.00000000000E+000
  0.17599452673E+008,  0.20997333458E+007,  0.19000000000E+002,  0.10000000000E+001,  0.00000000000E+000
  0.17599602673E+008,  0.20997333157E+007,  0.19000000000E+002,  0.10000000000E+001,  0.00000000000E+000
  0.17599752673E+008,  0.20997332861E+007,  0.19000000000E+002,  0.10000000000E+001,  0.00000000000E+000
  0.17599902673E+008,  0.20997332570E+007,  0.19000000000E+002,  0.10000000000E+001,  0.00000000000E+000
  0.17600052673E+008,  0.20997332284E+007,  0.19000000000E+002,  0.10000000000E+001,  0.00000000000E+000
  0.17600202673E+008,  0.20997332004E+007,  0.19000000000E+002,  0.10000000000E+001,  0.00000000000E+000
  0.17600352673E+008,  0.20997331728E+007,  0.19000000000E+002,  0.10000000000E+001,  0.00000000000E+000
  0.17600502673E+008,  0.20997331457E+007,  0.19000000000E+002,  0.10000000000E+001,  0.00000000000E+000
  0.17600652673E+008,  0.20997331190E+007,  0.19000000000E+002,  0.10000000000E+001,  0.00000000000E+000
  0.17600802673E+008,  0.20997330928E+007,  0.19000000000E+002,  0.10000000000E+001,  0.00000000000E+000
  0.17600952673E+008,  0.20997330669E+007,  0.19000000000E+002,  0.10000000000E+001,  0.00000000000E+000
  0.17601102673E+008,  0.20997330413E+007,  0.19000000000E+002,  0.10000000000E+001,  0.00000000000E+000
  0.17601252673E+008,  0.20997330161E+007,  0.19000000000E+002,  0.10000000000E+001,  0.00000000000E+000
  0.17601402673E+008,  0.20997329912E+007,  0.19000000000E+002,  0.10000000000E+001,  0.00000000000E+000
  0.17601552673E+008,  0.20997329665E+007,  0.19000000000E+002,  0.10000000000E+001,  0.00000000000E+000
  0.17601702673E+008,  0.20997329421E+007,  0.19000000000E+002,  0.10000000000E+001,  0.00000000000E+000
  0.17601852673E+008,  0.20997329179E+007,  0.19000000000E+002,  0.10000000000E+001,  0.00000000000E+000
  0.17602002673E+008,  0.20997328939E+007,  0.19000000000E+002,  0.10000000000E+001,  0.00000000000E+000
  0.17602152673E+008,  0.20997328701E+007,  0.19000000000E+002,  0.10000000000E+001,  0.00000000000E+000
  0.17602302673E+008,  0.20997328465E+007,  0.19000000000E+002,  0.10000000000E+001,  0.00000000000E+000
  0.17602452673E+008,  0.20997328230E+007,  0.19000000000E+002,  0.10000000000E+001,  0.00000000000E+000
  0.17602602673E+008,  0.20997327997E+007,  0.19000000000E+002,  0.10000000000E+001,  0.00000000000E+000
  0.17602752673E+008,  0.20997327765E+007,  0.19000000000E+002,  0.10000000000E+001,  0.00000000000E+000
  0.17602902673E+008,  0.20997327534E+007,  0.19000000000E+002,  0.10000000000E+001,  0.00000000000E+000
  0.17603052673E+008,  0.20997327305E+007,  0.19000000000E+002,  0.10000000000E+001,  0.00000000000E+000
  0.17603202673E+008,  0.20997327076E+007,  0.19000000000E+002,  0.10000000000E+001,  0.00000000000E+000
  0.17603352673E+008,  0.20997326849E+007,  0.19000000000E+002,  0.10000000000E+001,  0.00000000000E+000
  0.17603502673E+008,  0.20997326622E+007,  0.19000000000E+002,  0.10000000000E+001,  0.00000000000E+000
  0.17603652673E+008,  0.20997326396E+007,  0.19000000000E+002,  0.10000000000E+001,  0.00000000000E+000
  0.17603802673E+008,  0.20997326171E+007,  0.19000000000E+002,  0.10000000000E+001,  0.00000000000E+000
  0.17603952673E+008,  0.20997325946E+007,  0.19000000000E+002,  0.10000000000E+001,  0.00000000000E+000
  0.17604102673E+008,  0.20997325722E+007,  0.19000000000E+002,  0.10000000000E+001,  0.00000000000E+000
  0.17604252673E+008,  0.20997325498E+007,  0.19000000000E+002,  0.10000000000E+001,  0.00000000000E+000
  0.17604402673E+008,  0.20997325274E+007,  0.19000000000E+002,  0.10000000000E+001,  0.00000000000E+000
  0.17604552673E+008,  0.20997325051E+007,  0.19000000000E+002,  0.10000000000E+001,  0.00000000000E+000
  0.17604702673E+008,  0.20997324829E+007,  0.19000000000E+002,  0.10000000000E+001,  0.00000000000E+000
  0.17604852673E+008,  0.20997324606E+007,  0.19000000000E+002,  0.10000000000E+001,  0.00000000000E+000
  0.17605002673E+008,  0.20997324384E+007,  0.19000000000E+002,  0.10000000000E+001,  0.00000000000E+000
  0.17605152673E+008,  0.20997324162E+007,  0.19000000000E+002,  0.10000000000E+001,  0.00000000000E+000
  0.17605302673E+008,  0.20997323939E+007,  0.19000000000E+002,  0.10000000000E+001,  0.00000000000E+000
  0.17605452673E+008,  0.20997323717E+007,  0.19000000000E+002,  0.10000000000E+001,  0.00000000000E+000
  0.17605602673E+008,  0.20997323495E+007,  0.19000000000E+002,  0.10000000000E+001,  0.00000000000E+000
  0.17605752673E+008,  0.20997323273E+007,  0.19000000000E+002,  0.10000000000E+001,  0.00000000000E+000
  0.17605902673E+008,  0.20997323051E+007,  0.19000000000E+002,  0.10000000000E+001,  0.00000000000E+000
  0.17606052673E+008,  0.20997322829E+007,  0.19000000000E+002,  0.10000000000E+001,  0.00000000000E+000
  0.17606202673E+008,  0.20997322606E+007,  0.19000000000E+002,  0.10000000000E+001,  0.00000000000E+000
  0.17606352673E+008,  0.20997322384E+007,  0.19000000000E+002,  0.10000000000E+001,  0.00000000000E+000
  0.17606502673E+008,  0.20997322161E+007,  0.19000000000E+002,  0.10000000000E+001,  0.00000000000E+000
  0.17606652673E+008,  0.20997321938E+007,  0.19000000000E+002,  0.10000000000E+001,  0.00000000000E+000
  0.17606802673E+008,  0.20997321715E+007,  0.19000000000E+002,  0.10000000000E+001,  0.00000000000E+000
  0.17606952673E+008,  0.20997321491E+007,  0.19000000000E+002,  0.10000000000E+001,  0.00000000000E+000
  0.17607102673E+008,  0.20997321267E+007,  0.19000000000E+002,  0.10000000000E+001,  0.00000000000E+000
  0.17607252673E+008,  0.20997321043E+007,  0.19000000000E+002,  0.10000000000E+001,  0.00000000000E+000
  0.17607402673E+008,  0.20997320818E+007,  0.19000000000E+002,  0.10000000000E+001,  0.00000000000E+000
  0.17607552673E+008,  0.20997320593E+007,  0.19000000000E+002,  0.10000000000E+001,  0.00000000000E+000
  0.17607702673E+008,  0.20997320368E+007,  0.19000000000E+002,  0.10000000000E+001,  0.00000000000E+000
  0.17607852673E+008,  0.20997320142E+007,  0.19000000000E+002,  0.10000000000E+001,  0.00000000000E+000
  0.17608002673E+008,  0.20997319916E+007,  0.19000000000E+002,  0.10000000000E+001,  0.00000000000E+000
  0.17608152673E+008,  0.20997319689E+007,  0.19000000000E+002,  0.10000000000E+001,  0.00000000000E+000
  0.17608302673E+008,  0.20997319461E+007,  0.19000000000E+002,  0.10000000000E+001,  0.00000000000E+000
  0.17608452673E+008,  0.20997319234E+007,  0.19000000000E+002,  0.10000000000E+001,  0.00000000000E+000
  0.17608602673E+008,  0.20997319005E+007,  0.19000000000E+002,  0.10000000000E+001,  0.00000000000E+000
  0.17608752673E+008,  0.20997318776E+007,  0.19000000000E+002,  0.10000000000E+001,  0.00000000000E+000
  0.17608902673E+008,  0.20997318547E+007,  0.19000000000E+002,  0.10000000000E+001,  0.00000000000E+000
  0.17609052673E+008,  0.20997318316E+007,  0.19000000000E+002,  0.10000000000E+001,  0.00000000000E+000
  0.17609202673E+008,  0.20997318086E+007,  0.19000000000E+002,  0.10000000000E+001,  0.00000000000E+000
  0.17609352673E+008,  0.20997317854E+007,  0.19000000000E+002,  0.10000000000E+001,  0.00000000000E+000
  0.17609502673E+008,  0.20997317622E+007,  0.19000000000E+002,  0.10000000000E+001,  0.00000000000E+000
  0.17609652673E+008,  0.20997317390E+007,  0.19000000000E+002,  0.10000000000E+001,  0.00000000000E+000
  0.17609802673E+008,  0.20997317156E+007,  0.19000000000E+002,  0.10000000000E+001,  0.00000000000E+000
  0.17609952673E+008,  0.20997316922E+007,  0.19000000000E+002,  0.10000000000E+001,  0.00000000000E+000
  0.17610102673E+008,  0.20997316688E+007,  0.19000000000E+002,  0.10000000000E+001,  0.00000000000E+000
  0.17610252673E+008,  0.20997316452E+007,  0.19000000000E+002,  0.10000000000E+001,  0.00000000000E+000
  0.17610402673E+008,  0.20997316216E+007,  0.19000000000E+002,  0.10000000000E+001,  0.00000000000E+000
  0.17610552673E+008,  0.20997315979E+007,  0.19000000000E+002,  0.10000000000E+001,  0.00000000000E+000
  0.17610702673E+008,  0.20997315742E+007,  0.19000000000E+002,  0.10000000000E+001,  0.00000000000E+000
  0.17610852673E+008,  0.20997315503E+007,  0.19000000000E+002,  0.10000000000E+001,  0.00000000000E+000
  0.17611002673E+008,  0.20997315264E+007,  0.19000000000E+002,  0.10000000000E+001,  0.00000000000E+000
  0.17611152673E+008,  0.20997315024E+007,  0.19000000000E+002,  0.10000000000E+001,  0.00000000000E+000
  0.17611302673E+008,  0.20997314784E+007,  0.19000000000E+002,  0.10000000000E+001,  0.00000000000E+000
  0.17611452673E+008,  0.20997314542E+007,  0.19000000000E+002,  0.10000000000E+001,  0.00000000000E+000
  0.17611602673E+008,  0.20997314300E+007,  0.19000000000E+002,  0.10000000000E+001,  0.00000000000E+000
  0.17611752673E+008,  0.20997314057E+007,  0.19000000000E+002,  0.10000000000E+001,  0.00000000000E+000
  0.17611902673E+008,  0.20997313813E+007,  0.19000000000E+002,  0.10000000000E+001,  0.00000000000E+000
  0.17612052673E+008,  0.20997313568E+007,  0.19000000000E+002,  0.10000000000E+001,  0.00000000000E+000
  0.17612202673E+008,  0.20997313323E+007,  0.19000000000E+002,  0.10000000000E+001,  0.00000000000E+000
  0.17612352673E+008,  0.20997313076E+007,  0.19000000000E+002,  0.10000000000E+001,  0.00000000000E+000
  0.17612502673E+008,  0.20997312829E+007,  0.19000000000E+002,  0.10000000000E+001,  0.00000000000E+000
  0.17612652673E+008,  0.20997312581E+007,  0.19000000000E+002,  0.10000000000E+001,  0.00000000000E+000
  0.17612802673E+008,  0.20997312332E+007,  0.19000000000E+002,  0.10000000000E+001,  0.00000000000E+000
  0.17612952673E+008,  0.20997312082E+007,  0.19000000000E+002,  0.10000000000E+001,  0.00000000000E+000
  0.17613102673E+008,  0.20997311832E+007,  0.19000000000E+002,  0.10000000000E+001,  0.00000000000E+000
  0.17613252673E+008,  0.20997311580E+007,  0.19000000000E+002,  0.10000000000E+001,  0.00000000000E+000
  0.17613402673E+008,  0.20997311328E+007,  0.19000000000E+002,  0.10000000000E+001,  0.00000000000E+000
  0.17613552673E+008,  0.20997311074E+007,  0.19000000000E+002,  0.10000000000E+001,  0.00000000000E+000
  0.17613702673E+008,  0.20997310820E+007,  0.19000000000E+002,  0.10000000000E+001,  0.00000000000E+000
  0.17613852673E+008,  0.20997310565E+007,  0.19000000000E+002,  0.10000000000E+001,  0.00000000000E+000
  0.17614002673E+008,  0.20997310309E+007,  0.19000000000E+002,  0.10000000000E+001,  0.00000000000E+000
  0.17614152673E+008,  0.20997310052E+007,  0.19000000000E+002,  0.10000000000E+001,  0.00000000000E+000
  0.17614302673E+008,  0.20997309794E+007,  0.19000000000E+002,  0.10000000000E+001,  0.00000000000E+000
  0.17614452673E+008,  0.20997309536E+007,  0.19000000000E+002,  0.10000000000E+001,  0.00000000000E+000
  0.17614602673E+008,  0.20997309276E+007,  0.19000000000E+002,  0.10000000000E+001,  0.00000000000E+000
  0.17614752673E+008,  0.20997309015E+007,  0.19000000000E+002,  0.10000000000E+001,  0.00000000000E+000
  0.17614902673E+008,  0.20997308754E+007,  0.19000000000E+002,  0.10000000000E+001,  0.00000000000E+000
  0.17615052673E+008,  0.20997308491E+007,  0.19000000000E+002,  0.10000000000E+001,  0.00000000000E+000
  0.17615202673E+008,  0.20997308228E+007,  0.19000000000E+002,  0.10000000000E+001,  0.00000000000E+000
  0.17615352673E+008,  0.20997307964E+007,  0.19000000000E+002,  0.10000000000E+001,  0.00000000000E+000
  0.17615502673E+008,  0.20997307698E+007,  0.19000000000E+002,  0.10000000000E+001,  0.00000000000E+000
  0.17615652673E+008,  0.20997307432E+007,  0.19000000000E+002,  0.10000000000E+001,  0.00000000000E+000
  0.17615802673E+008,  0.20997307165E+007,  0.19000000000E+002,  0.10000000000E+001,  0.00000000000E+000
  0.17615952673E+008,  0.20997306897E+007,  0.19000000000E+002,  0.10000000000E+001,  0.00000000000E+000
  0.17616102673E+008,  0.20997306628E+007,  0.19000000000E+002,  0.10000000000E+001,  0.00000000000E+000
  0.17616252673E+008,  0.20997306358E+007,  0.19000000000E+002,  0.10000000000E+001,  0.00000000000E+000
  0.17616402673E+008,  0.20997306087E+007,  0.19000000000E+002,  0.10000000000E+001,  0.00000000000E+000
  0.17616552673E+008,  0.20997305815E+007,  0.19000000000E+002,  0.10000000000E+001,  0.00000000000E+000
  0.17616702673E+008,  0.20997305542E+007,  0.19000000000E+002,  0.10000000000E+001,  0.00000000000E+000
  0.17616852673E+008,  0.20997305268E+007,  0.19000000000E+002,  0.10000000000E+001,  0.00000000000E+000
  0.17617002673E+008,  0.20997304993E+007,  0.19000000000E+002,  0.10000000000E+001,  0.00000000000E+000
  0.17617152673E+008,  0.20997304717E+007,  0.19000000000E+002,  0.10000000000E+001,  0.00000000000E+000
  0.17617302673E+008,  0.20997304441E+007,  0.19000000000E+002,  0.10000000000E+001,  0.00000000000E+000
  0.17617452673E+008,  0.20997304163E+007,  0.19000000000E+002,  0.10000000000E+001,  0.00000000000E+000
  0.17617602673E+008,  0.20997303884E+007,  0.19000000000E+002,  0.10000000000E+001,  0.00000000000E+000
  0.17617752673E+008,  0.20997303605E+007,  0.19000000000E+002,  0.10000000000E+001,  0.00000000000E+000
  0.17617902673E+008,  0.20997303324E+007,  0.19000000000E+002,  0.10000000000E+001,  0.00000000000E+000
  0.17618052673E+008,  0.20997303043E+007,  0.19000000000E+002,  0.10000000000E+001,  0.00000000000E+000
  0.17618202673E+008,  0.20997302760E+007,  0.19000000000E+002,  0.10000000000E+001,  0.00000000000E+000
