"           TIME(S)","              PRES","              TEMP","             SAT_G","             SAT_L"
  0.18228740000E+008,  0.20001327403E+007,  0.19000000000E+002,  0.00000000000E+000,  0.10000000000E+001
  0.18228890000E+008,  0.20006961655E+007,  0.19000000000E+002,  0.00000000000E+000,  0.10000000000E+001
  0.18229040000E+008,  0.20011627182E+007,  0.19000000000E+002,  0.00000000000E+000,  0.10000000000E+001
  0.18229190000E+008,  0.20015499712E+007,  0.19000000000E+002,  0.00000000000E+000,  0.10000000000E+001
  0.18229340000E+008,  0.20018988797E+007,  0.19000000000E+002,  0.00000000000E+000,  0.10000000000E+001
  0.18229415000E+008,  0.20022176443E+007,  0.19000000000E+002,  0.00000000000E+000,  0.10000000000E+001
  0.18229452501E+008,  0.20024005216E+007,  0.19000000000E+002,  0.00000000000E+000,  0.10000000000E+001
  0.18229471251E+008,  0.20025346054E+007,  0.19000000000E+002,  0.00000000000E+000,  0.10000000000E+001
  0.18229480626E+008,  0.20026040163E+007,  0.19000000000E+002,  0.00000000000E+000,  0.10000000000E+001
  0.18229485314E+008,  0.20026378679E+007,  0.19000000000E+002,  0.00000000000E+000,  0.10000000000E+001
  0.18229487658E+008,  0.20026541874E+007,  0.19000000000E+002,  0.00000000000E+000,  0.10000000000E+001
  0.18229488829E+008,  0.20026622114E+007,  0.19000000000E+002,  0.00000000000E+000,  0.10000000000E+001
  0.18229494689E+008,  0.20026947967E+007,  0.19000000000E+002,  0.00000000000E+000,  0.10000000000E+001
  0.18229523987E+008,  0.20027599683E+007,  0.19000000000E+002,  0.00000000000E+000,  0.10000000000E+001
  0.18229670477E+008,  0.20028096112E+007,  0.19000000000E+002,  0.00000000000E+000,  0.10000000000E+001
  0.18229743722E+008,  0.20033498786E+007,  0.19000000000E+002,  0.00000000000E+000,  0.10000000000E+001
  0.18229893722E+008,  0.20046765675E+007,  0.19000000000E+002,  0.00000000000E+000,  0.10000000000E+001
  0.18230043722E+008,  0.20060143742E+007,  0.19000000000E+002,  0.00000000000E+000,  0.10000000000E+001
  0.18230193722E+008,  0.20073769196E+007,  0.19000000000E+002,  0.00000000000E+000,  0.10000000000E+001
  0.18230343722E+008,  0.20087719673E+007,  0.19000000000E+002,  0.00000000000E+000,  0.10000000000E+001
  0.18230493722E+008,  0.20101983827E+007,  0.19000000000E+002,  0.00000000000E+000,  0.10000000000E+001
  0.18230643722E+008,  0.20116516437E+007,  0.19000000000E+002,  0.00000000000E+000,  0.10000000000E+001
  0.18230793722E+008,  0.20131266185E+007,  0.19000000000E+002,  0.00000000000E+000,  0.10000000000E+001
  0.18230943722E+008,  0.20146186290E+007,  0.19000000000E+002,  0.00000000000E+000,  0.10000000000E+001
  0.18231093722E+008,  0.20161237391E+007,  0.19000000000E+002,  0.00000000000E+000,  0.10000000000E+001
  0.18231243722E+008,  0.20176387465E+007,  0.19000000000E+002,  0.00000000000E+000,  0.10000000000E+001
  0.18231393722E+008,  0.20191610828E+007,  0.19000000000E+002,  0.00000000000E+000,  0.10000000000E+001
  0.18231543722E+008,  0.20206886997E+007,  0.19000000000E+002,  0.00000000000E+000,  0.10000000000E+001
  0.18231693722E+008,  0.20222199668E+007,  0.19000000000E+002,  0.00000000000E+000,  0.10000000000E+001
  0.18231843722E+008,  0.20237535871E+007,  0.19000000000E+002,  0.00000000000E+000,  0.10000000000E+001
  0.18231993722E+008,  0.20252885283E+007,  0.19000000000E+002,  0.00000000000E+000,  0.10000000000E+001
  0.18232143722E+008,  0.20268239682E+007,  0.19000000000E+002,  0.00000000000E+000,  0.10000000000E+001
  0.18232293722E+008,  0.20283592515E+007,  0.19000000000E+002,  0.00000000000E+000,  0.10000000000E+001
  0.18232443722E+008,  0.20298938558E+007,  0.19000000000E+002,  0.00000000000E+000,  0.10000000000E+001
  0.18232593722E+008,  0.20314273636E+007,  0.19000000000E+002,  0.00000000000E+000,  0.10000000000E+001
  0.18232743722E+008,  0.20329594415E+007,  0.19000000000E+002,  0.00000000000E+000,  0.10000000000E+001
  0.18232893722E+008,  0.20344898226E+007,  0.19000000000E+002,  0.00000000000E+000,  0.10000000000E+001
  0.18233043722E+008,  0.20360182930E+007,  0.19000000000E+002,  0.00000000000E+000,  0.10000000000E+001
  0.18233193722E+008,  0.20375446808E+007,  0.19000000000E+002,  0.00000000000E+000,  0.10000000000E+001
  0.18233343722E+008,  0.20390688478E+007,  0.19000000000E+002,  0.00000000000E+000,  0.10000000000E+001
  0.18233493722E+008,  0.20405906828E+007,  0.19000000000E+002,  0.00000000000E+000,  0.10000000000E+001
  0.18233643722E+008,  0.20421100955E+007,  0.19000000000E+002,  0.00000000000E+000,  0.10000000000E+001
  0.18233793722E+008,  0.20436270127E+007,  0.19000000000E+002,  0.00000000000E+000,  0.10000000000E+001
  0.18233943722E+008,  0.20451413751E+007,  0.19000000000E+002,  0.00000000000E+000,  0.10000000000E+001
  0.18234093722E+008,  0.20466531338E+007,  0.19000000000E+002,  0.00000000000E+000,  0.10000000000E+001
  0.18234243722E+008,  0.20481622488E+007,  0.19000000000E+002,  0.00000000000E+000,  0.10000000000E+001
  0.18234393722E+008,  0.20496686870E+007,  0.19000000000E+002,  0.00000000000E+000,  0.10000000000E+001
  0.18234543722E+008,  0.20511724208E+007,  0.19000000000E+002,  0.00000000000E+000,  0.10000000000E+001
  0.18234693722E+008,  0.20526734272E+007,  0.19000000000E+002,  0.00000000000E+000,  0.10000000000E+001
  0.18234843722E+008,  0.20541716866E+007,  0.19000000000E+002,  0.00000000000E+000,  0.10000000000E+001
  0.18234993722E+008,  0.20556671825E+007,  0.19000000000E+002,  0.00000000000E+000,  0.10000000000E+001
  0.18235143722E+008,  0.20571599006E+007,  0.19000000000E+002,  0.00000000000E+000,  0.10000000000E+001
  0.18235293722E+008,  0.20586498286E+007,  0.19000000000E+002,  0.00000000000E+000,  0.10000000000E+001
  0.18235443722E+008,  0.20601369555E+007,  0.19000000000E+002,  0.00000000000E+000,  0.10000000000E+001
  0.18235593722E+008,  0.20616212719E+007,  0.19000000000E+002,  0.00000000000E+000,  0.10000000000E+001
  0.18235743722E+008,  0.20631027693E+007,  0.19000000000E+002,  0.00000000000E+000,  0.10000000000E+001
  0.18235893722E+008,  0.20645814399E+007,  0.19000000000E+002,  0.00000000000E+000,  0.10000000000E+001
  0.18236043722E+008,  0.20660572767E+007,  0.19000000000E+002,  0.00000000000E+000,  0.10000000000E+001
  0.18236193722E+008,  0.20675302735E+007,  0.19000000000E+002,  0.00000000000E+000,  0.10000000000E+001
  0.18236343722E+008,  0.20690004243E+007,  0.19000000000E+002,  0.00000000000E+000,  0.10000000000E+001
  0.18236493722E+008,  0.20704677236E+007,  0.19000000000E+002,  0.00000000000E+000,  0.10000000000E+001
  0.18236643722E+008,  0.20719321664E+007,  0.19000000000E+002,  0.00000000000E+000,  0.10000000000E+001
  0.18236793722E+008,  0.20733937478E+007,  0.19000000000E+002,  0.00000000000E+000,  0.10000000000E+001
  0.18236943722E+008,  0.20748524633E+007,  0.19000000000E+002,  0.00000000000E+000,  0.10000000000E+001
  0.18237093722E+008,  0.20763083087E+007,  0.19000000000E+002,  0.00000000000E+000,  0.10000000000E+001
  0.18237243722E+008,  0.20777612798E+007,  0.19000000000E+002,  0.00000000000E+000,  0.10000000000E+001
  0.18237393722E+008,  0.20792113728E+007,  0.19000000000E+002,  0.00000000000E+000,  0.10000000000E+001
  0.18237543722E+008,  0.20806585839E+007,  0.19000000000E+002,  0.00000000000E+000,  0.10000000000E+001
  0.18237693722E+008,  0.20821029095E+007,  0.19000000000E+002,  0.00000000000E+000,  0.10000000000E+001
  0.18237843722E+008,  0.20835443464E+007,  0.19000000000E+002,  0.00000000000E+000,  0.10000000000E+001
  0.18237993722E+008,  0.20849828910E+007,  0.19000000000E+002,  0.00000000000E+000,  0.10000000000E+001
  0.18238143722E+008,  0.20864185404E+007,  0.19000000000E+002,  0.00000000000E+000,  0.10000000000E+001
  0.18238293722E+008,  0.20878512914E+007,  0.19000000000E+002,  0.00000000000E+000,  0.10000000000E+001
  0.18238443722E+008,  0.20892811411E+007,  0.19000000000E+002,  0.00000000000E+000,  0.10000000000E+001
  0.18238593722E+008,  0.20907080867E+007,  0.19000000000E+002,  0.00000000000E+000,  0.10000000000E+001
  0.18238743722E+008,  0.20921321254E+007,  0.19000000000E+002,  0.00000000000E+000,  0.10000000000E+001
  0.18238893722E+008,  0.20935532546E+007,  0.19000000000E+002,  0.00000000000E+000,  0.10000000000E+001
  0.18239043722E+008,  0.20949714718E+007,  0.19000000000E+002,  0.00000000000E+000,  0.10000000000E+001
  0.18239193722E+008,  0.20963867745E+007,  0.19000000000E+002,  0.00000000000E+000,  0.10000000000E+001
  0.18239343722E+008,  0.20977991603E+007,  0.19000000000E+002,  0.00000000000E+000,  0.10000000000E+001
  0.18239493722E+008,  0.20992086270E+007,  0.19000000000E+002,  0.00000000000E+000,  0.10000000000E+001
  0.18239643722E+008,  0.21006151723E+007,  0.19000000000E+002,  0.00000000000E+000,  0.10000000000E+001
  0.18239793722E+008,  0.21020187942E+007,  0.19000000000E+002,  0.00000000000E+000,  0.10000000000E+001
  0.18239943722E+008,  0.21034194907E+007,  0.19000000000E+002,  0.00000000000E+000,  0.10000000000E+001
  0.18240093722E+008,  0.21048172597E+007,  0.19000000000E+002,  0.00000000000E+000,  0.10000000000E+001
  0.18240243722E+008,  0.21062120994E+007,  0.19000000000E+002,  0.00000000000E+000,  0.10000000000E+001
  0.18240393722E+008,  0.21076040079E+007,  0.19000000000E+002,  0.00000000000E+000,  0.10000000000E+001
  0.18240543722E+008,  0.21089929837E+007,  0.19000000000E+002,  0.00000000000E+000,  0.10000000000E+001
  0.18240693722E+008,  0.21103790249E+007,  0.19000000000E+002,  0.00000000000E+000,  0.10000000000E+001
  0.18240843722E+008,  0.21117621300E+007,  0.19000000000E+002,  0.00000000000E+000,  0.10000000000E+001
  0.18240993722E+008,  0.21131422976E+007,  0.19000000000E+002,  0.00000000000E+000,  0.10000000000E+001
  0.18241143722E+008,  0.21145195261E+007,  0.19000000000E+002,  0.00000000000E+000,  0.10000000000E+001
  0.18241293722E+008,  0.21158938141E+007,  0.19000000000E+002,  0.00000000000E+000,  0.10000000000E+001
  0.18241443722E+008,  0.21172651605E+007,  0.19000000000E+002,  0.00000000000E+000,  0.10000000000E+001
  0.18241593722E+008,  0.21186335639E+007,  0.19000000000E+002,  0.00000000000E+000,  0.10000000000E+001
  0.18241743722E+008,  0.21199990232E+007,  0.19000000000E+002,  0.00000000000E+000,  0.10000000000E+001
  0.18241893722E+008,  0.21213615372E+007,  0.19000000000E+002,  0.00000000000E+000,  0.10000000000E+001
  0.18242043722E+008,  0.21227211049E+007,  0.19000000000E+002,  0.00000000000E+000,  0.10000000000E+001
  0.18242193722E+008,  0.21240777254E+007,  0.19000000000E+002,  0.00000000000E+000,  0.10000000000E+001
  0.18242343722E+008,  0.21254313977E+007,  0.19000000000E+002,  0.00000000000E+000,  0.10000000000E+001
  0.18242493722E+008,  0.21267821210E+007,  0.19000000000E+002,  0.00000000000E+000,  0.10000000000E+001
  0.18242643722E+008,  0.21281298945E+007,  0.19000000000E+002,  0.00000000000E+000,  0.10000000000E+001
  0.18242793722E+008,  0.21294747174E+007,  0.19000000000E+002,  0.00000000000E+000,  0.10000000000E+001
  0.18242943722E+008,  0.21308165891E+007,  0.19000000000E+002,  0.00000000000E+000,  0.10000000000E+001
  0.18243093722E+008,  0.21321555091E+007,  0.19000000000E+002,  0.00000000000E+000,  0.10000000000E+001
  0.18243243722E+008,  0.21334914767E+007,  0.19000000000E+002,  0.00000000000E+000,  0.10000000000E+001
  0.18243393722E+008,  0.21348244915E+007,  0.19000000000E+002,  0.00000000000E+000,  0.10000000000E+001
  0.18243543722E+008,  0.21361545530E+007,  0.19000000000E+002,  0.00000000000E+000,  0.10000000000E+001
  0.18243693722E+008,  0.21374816610E+007,  0.19000000000E+002,  0.00000000000E+000,  0.10000000000E+001
  0.18243843722E+008,  0.21388058150E+007,  0.19000000000E+002,  0.00000000000E+000,  0.10000000000E+001
  0.18243993722E+008,  0.21401270149E+007,  0.19000000000E+002,  0.00000000000E+000,  0.10000000000E+001
  0.18244143722E+008,  0.21414452604E+007,  0.19000000000E+002,  0.00000000000E+000,  0.10000000000E+001
  0.18244293722E+008,  0.21427605514E+007,  0.19000000000E+002,  0.00000000000E+000,  0.10000000000E+001
  0.18244443722E+008,  0.21440728879E+007,  0.19000000000E+002,  0.00000000000E+000,  0.10000000000E+001
  0.18244593722E+008,  0.21453822698E+007,  0.19000000000E+002,  0.00000000000E+000,  0.10000000000E+001
  0.18244743722E+008,  0.21466886972E+007,  0.19000000000E+002,  0.00000000000E+000,  0.10000000000E+001
  0.18244893722E+008,  0.21479921702E+007,  0.19000000000E+002,  0.00000000000E+000,  0.10000000000E+001
  0.18245043722E+008,  0.21492926888E+007,  0.19000000000E+002,  0.00000000000E+000,  0.10000000000E+001
  0.18245193722E+008,  0.21505902533E+007,  0.19000000000E+002,  0.00000000000E+000,  0.10000000000E+001
  0.18245343722E+008,  0.21518848640E+007,  0.19000000000E+002,  0.00000000000E+000,  0.10000000000E+001
  0.18245493722E+008,  0.21531765212E+007,  0.19000000000E+002,  0.00000000000E+000,  0.10000000000E+001
  0.18245643722E+008,  0.21544652252E+007,  0.19000000000E+002,  0.00000000000E+000,  0.10000000000E+001
  0.18245793722E+008,  0.21557509765E+007,  0.19000000000E+002,  0.00000000000E+000,  0.10000000000E+001
  0.18245943722E+008,  0.21570337754E+007,  0.19000000000E+002,  0.00000000000E+000,  0.10000000000E+001
  0.18246093722E+008,  0.21583136226E+007,  0.19000000000E+002,  0.00000000000E+000,  0.10000000000E+001
  0.18246243722E+008,  0.21595905187E+007,  0.19000000000E+002,  0.00000000000E+000,  0.10000000000E+001
  0.18246393722E+008,  0.21608644641E+007,  0.19000000000E+002,  0.00000000000E+000,  0.10000000000E+001
  0.18246543722E+008,  0.21621354597E+007,  0.19000000000E+002,  0.00000000000E+000,  0.10000000000E+001
  0.18246693722E+008,  0.21634035061E+007,  0.19000000000E+002,  0.00000000000E+000,  0.10000000000E+001
  0.18246843722E+008,  0.21646686041E+007,  0.19000000000E+002,  0.00000000000E+000,  0.10000000000E+001
  0.18246993722E+008,  0.21659307546E+007,  0.19000000000E+002,  0.00000000000E+000,  0.10000000000E+001
  0.18247143722E+008,  0.21671899584E+007,  0.19000000000E+002,  0.00000000000E+000,  0.10000000000E+001
  0.18247293722E+008,  0.21684462165E+007,  0.19000000000E+002,  0.00000000000E+000,  0.10000000000E+001
  0.18247443722E+008,  0.21696995298E+007,  0.19000000000E+002,  0.00000000000E+000,  0.10000000000E+001
  0.18247593722E+008,  0.21709498993E+007,  0.19000000000E+002,  0.00000000000E+000,  0.10000000000E+001
  0.18247743722E+008,  0.21721973261E+007,  0.19000000000E+002,  0.00000000000E+000,  0.10000000000E+001
  0.18247893722E+008,  0.21734418114E+007,  0.19000000000E+002,  0.00000000000E+000,  0.10000000000E+001
  0.18248043722E+008,  0.21746833563E+007,  0.19000000000E+002,  0.00000000000E+000,  0.10000000000E+001
  0.18248193722E+008,  0.21759219620E+007,  0.19000000000E+002,  0.00000000000E+000,  0.10000000000E+001
  0.18248343722E+008,  0.21771576298E+007,  0.19000000000E+002,  0.00000000000E+000,  0.10000000000E+001
  0.18248493722E+008,  0.21783903611E+007,  0.19000000000E+002,  0.00000000000E+000,  0.10000000000E+001
  0.18248643722E+008,  0.21796201570E+007,  0.19000000000E+002,  0.00000000000E+000,  0.10000000000E+001
  0.18248793722E+008,  0.21808470191E+007,  0.19000000000E+002,  0.00000000000E+000,  0.10000000000E+001
  0.18248943722E+008,  0.21820709489E+007,  0.19000000000E+002,  0.00000000000E+000,  0.10000000000E+001
  0.18249093722E+008,  0.21832919477E+007,  0.19000000000E+002,  0.00000000000E+000,  0.10000000000E+001
  0.18249243722E+008,  0.21845100171E+007,  0.19000000000E+002,  0.00000000000E+000,  0.10000000000E+001
  0.18249393722E+008,  0.21857251588E+007,  0.19000000000E+002,  0.00000000000E+000,  0.10000000000E+001
  0.18249543722E+008,  0.21869373743E+007,  0.19000000000E+002,  0.00000000000E+000,  0.10000000000E+001
  0.18249693722E+008,  0.21881466654E+007,  0.19000000000E+002,  0.00000000000E+000,  0.10000000000E+001
  0.18249843722E+008,  0.21893530336E+007,  0.19000000000E+002,  0.00000000000E+000,  0.10000000000E+001
  0.18249993722E+008,  0.21905564809E+007,  0.19000000000E+002,  0.00000000000E+000,  0.10000000000E+001
  0.18250143722E+008,  0.21917570089E+007,  0.19000000000E+002,  0.00000000000E+000,  0.10000000000E+001
  0.18250293722E+008,  0.21929546196E+007,  0.19000000000E+002,  0.00000000000E+000,  0.10000000000E+001
  0.18250443722E+008,  0.21941493148E+007,  0.19000000000E+002,  0.00000000000E+000,  0.10000000000E+001
  0.18250593722E+008,  0.21953410965E+007,  0.19000000000E+002,  0.00000000000E+000,  0.10000000000E+001
  0.18250743722E+008,  0.21965299665E+007,  0.19000000000E+002,  0.00000000000E+000,  0.10000000000E+001
  0.18250893722E+008,  0.21977159270E+007,  0.19000000000E+002,  0.00000000000E+000,  0.10000000000E+001
  0.18251043722E+008,  0.21988989800E+007,  0.19000000000E+002,  0.00000000000E+000,  0.10000000000E+001
  0.18251193722E+008,  0.22000791276E+007,  0.19000000000E+002,  0.00000000000E+000,  0.10000000000E+001
  0.18251343722E+008,  0.22012563719E+007,  0.19000000000E+002,  0.00000000000E+000,  0.10000000000E+001
  0.18251493722E+008,  0.22024307151E+007,  0.19000000000E+002,  0.00000000000E+000,  0.10000000000E+001
  0.18251643722E+008,  0.22036021593E+007,  0.19000000000E+002,  0.00000000000E+000,  0.10000000000E+001
  0.18251793722E+008,  0.22047707070E+007,  0.19000000000E+002,  0.00000000000E+000,  0.10000000000E+001
  0.18251943722E+008,  0.22059363603E+007,  0.19000000000E+002,  0.00000000000E+000,  0.10000000000E+001
  0.18252093722E+008,  0.22070991215E+007,  0.19000000000E+002,  0.00000000000E+000,  0.10000000000E+001
  0.18252243722E+008,  0.22082589932E+007,  0.19000000000E+002,  0.00000000000E+000,  0.10000000000E+001
  0.18252393722E+008,  0.22094159776E+007,  0.19000000000E+002,  0.00000000000E+000,  0.10000000000E+001
  0.18252543722E+008,  0.22105700772E+007,  0.19000000000E+002,  0.00000000000E+000,  0.10000000000E+001
  0.18252693722E+008,  0.22117212945E+007,  0.19000000000E+002,  0.00000000000E+000,  0.10000000000E+001
  0.18252843722E+008,  0.22128696320E+007,  0.19000000000E+002,  0.00000000000E+000,  0.10000000000E+001
  0.18252993722E+008,  0.22140150924E+007,  0.19000000000E+002,  0.00000000000E+000,  0.10000000000E+001
  0.18253143722E+008,  0.22151576781E+007,  0.19000000000E+002,  0.00000000000E+000,  0.10000000000E+001
  0.18253293722E+008,  0.22162973918E+007,  0.19000000000E+002,  0.00000000000E+000,  0.10000000000E+001
  0.18253443722E+008,  0.22174342362E+007,  0.19000000000E+002,  0.00000000000E+000,  0.10000000000E+001
  0.18253593722E+008,  0.22185682140E+007,  0.19000000000E+002,  0.00000000000E+000,  0.10000000000E+001
  0.18253743722E+008,  0.22196993279E+007,  0.19000000000E+002,  0.00000000000E+000,  0.10000000000E+001
  0.18253893722E+008,  0.22208275808E+007,  0.19000000000E+002,  0.00000000000E+000,  0.10000000000E+001
  0.18254043722E+008,  0.22219529754E+007,  0.19000000000E+002,  0.00000000000E+000,  0.10000000000E+001
  0.18254193722E+008,  0.22230755145E+007,  0.19000000000E+002,  0.00000000000E+000,  0.10000000000E+001
  0.18254343722E+008,  0.22241952011E+007,  0.19000000000E+002,  0.00000000000E+000,  0.10000000000E+001
  0.18254493722E+008,  0.22253120381E+007,  0.19000000000E+002,  0.00000000000E+000,  0.10000000000E+001
  0.18254643722E+008,  0.22264260283E+007,  0.19000000000E+002,  0.00000000000E+000,  0.10000000000E+001
  0.18254793722E+008,  0.22275371749E+007,  0.19000000000E+002,  0.00000000000E+000,  0.10000000000E+001
  0.18254943722E+008,  0.22286454808E+007,  0.19000000000E+002,  0.00000000000E+000,  0.10000000000E+001
  0.18255093722E+008,  0.22297509491E+007,  0.19000000000E+002,  0.00000000000E+000,  0.10000000000E+001
  0.18255243722E+008,  0.22308535828E+007,  0.19000000000E+002,  0.00000000000E+000,  0.10000000000E+001
  0.18255393722E+008,  0.22319533850E+007,  0.19000000000E+002,  0.00000000000E+000,  0.10000000000E+001
  0.18255543722E+008,  0.22330503590E+007,  0.19000000000E+002,  0.00000000000E+000,  0.10000000000E+001
  0.18255693722E+008,  0.22341445079E+007,  0.19000000000E+002,  0.00000000000E+000,  0.10000000000E+001
