"           TIME(S)","              PRES","              TEMP","             SAT_G","             SAT_L"
  0.50000000000E+000,  0.19999995423E+007,  0.19000000000E+002,  0.99899997346E+000,  0.10000265447E-002
  0.25000000000E+001,  0.19999965153E+007,  0.19000000000E+002,  0.99899988164E+000,  0.10001183621E-002
  0.45000000000E+001,  0.19999934897E+007,  0.19000000000E+002,  0.99899979253E+000,  0.10002074652E-002
  0.65000000000E+001,  0.19999906682E+007,  0.19000000000E+002,  0.99899970388E+000,  0.10002961180E-002
  0.85000000000E+001,  0.19999880760E+007,  0.19000000000E+002,  0.99899961516E+000,  0.10003848420E-002
  0.10500000000E+002,  0.19999857041E+007,  0.19000000000E+002,  0.99899952622E+000,  0.10004737817E-002
  0.12500000000E+002,  0.19999835163E+007,  0.19000000000E+002,  0.99899943699E+000,  0.10005630079E-002
  0.14500000000E+002,  0.19999814924E+007,  0.19000000000E+002,  0.99899934744E+000,  0.10006525581E-002
  0.16500000000E+002,  0.19999796218E+007,  0.19000000000E+002,  0.99899925756E+000,  0.10007424415E-002
  0.18500000000E+002,  0.19999778736E+007,  0.19000000000E+002,  0.99899916731E+000,  0.10008326891E-002
  0.20500000000E+002,  0.19999762384E+007,  0.19000000000E+002,  0.99899907668E+000,  0.10009233174E-002
  0.22500000000E+002,  0.19999747018E+007,  0.19000000000E+002,  0.99899898566E+000,  0.10010143446E-002
  0.24500000000E+002,  0.19999732362E+007,  0.19000000000E+002,  0.99899889419E+000,  0.10011058127E-002
  0.26500000000E+002,  0.19999718397E+007,  0.19000000000E+002,  0.99899880226E+000,  0.10011977413E-002
  0.28500000000E+002,  0.19999705110E+007,  0.19000000000E+002,  0.99899870986E+000,  0.10012901393E-002
  0.30500000000E+002,  0.19999692486E+007,  0.19000000000E+002,  0.99899861699E+000,  0.10013830120E-002
  0.32500000000E+002,  0.19999680509E+007,  0.19000000000E+002,  0.99899852364E+000,  0.10014763622E-002
  0.34500000000E+002,  0.19999669165E+007,  0.19000000000E+002,  0.99899842981E+000,  0.10015701911E-002
  0.36500000000E+002,  0.19999658440E+007,  0.19000000000E+002,  0.99899833550E+000,  0.10016644985E-002
  0.38500000000E+002,  0.19999648318E+007,  0.19000000000E+002,  0.99899824072E+000,  0.10017592822E-002
  0.40500000000E+002,  0.19999638787E+007,  0.19000000000E+002,  0.99899814546E+000,  0.10018545420E-002
  0.42500000000E+002,  0.19999629832E+007,  0.19000000000E+002,  0.99899804973E+000,  0.10019502737E-002
  0.44500000000E+002,  0.19999621413E+007,  0.19000000000E+002,  0.99899795352E+000,  0.10020464776E-002
  0.46500000000E+002,  0.19999613527E+007,  0.19000000000E+002,  0.99899785685E+000,  0.10021431495E-002
  0.48500000000E+002,  0.19999606163E+007,  0.19000000000E+002,  0.99899775972E+000,  0.10022402846E-002
  0.50500000000E+002,  0.19999599240E+007,  0.19000000000E+002,  0.99899766211E+000,  0.10023378861E-002
  0.52500000000E+002,  0.19999592728E+007,  0.19000000000E+002,  0.99899756404E+000,  0.10024359580E-002
  0.54500000000E+002,  0.19999586582E+007,  0.19000000000E+002,  0.99899746550E+000,  0.10025345023E-002
  0.56500000000E+002,  0.19999580815E+007,  0.19000000000E+002,  0.99899736649E+000,  0.10026335150E-002
  0.58500000000E+002,  0.19999575420E+007,  0.19000000000E+002,  0.99899726701E+000,  0.10027329907E-002
  0.60500000000E+002,  0.19999570390E+007,  0.19000000000E+002,  0.99899716708E+000,  0.10028329232E-002
  0.62500000000E+002,  0.19999565706E+007,  0.19000000000E+002,  0.99899706669E+000,  0.10029333060E-002
  0.64500000000E+002,  0.19999561351E+007,  0.19000000000E+002,  0.99899696586E+000,  0.10030341356E-002
  0.66500000000E+002,  0.19999557287E+007,  0.19000000000E+002,  0.99899686459E+000,  0.10031354087E-002
  0.68500000000E+002,  0.19999553471E+007,  0.19000000000E+002,  0.99899676287E+000,  0.10032371256E-002
  0.70500000000E+002,  0.19999549918E+007,  0.19000000000E+002,  0.99899666072E+000,  0.10033392794E-002
  0.72500000000E+002,  0.19999546582E+007,  0.19000000000E+002,  0.99899655813E+000,  0.10034418692E-002
  0.74500000000E+002,  0.19999543477E+007,  0.19000000000E+002,  0.99899645511E+000,  0.10035448868E-002
  0.76500000000E+002,  0.19999540599E+007,  0.19000000000E+002,  0.99899635167E+000,  0.10036483266E-002
  0.78500000000E+002,  0.19999537943E+007,  0.19000000000E+002,  0.99899624782E+000,  0.10037521798E-002
  0.80500000000E+002,  0.19999535504E+007,  0.19000000000E+002,  0.99899614356E+000,  0.10038564382E-002
  0.82500000000E+002,  0.19999533278E+007,  0.19000000000E+002,  0.99899603891E+000,  0.10039610934E-002
  0.84500000000E+002,  0.19999531260E+007,  0.19000000000E+002,  0.99899593386E+000,  0.10040661366E-002
  0.86500000000E+002,  0.19999529445E+007,  0.19000000000E+002,  0.99899582844E+000,  0.10041715593E-002
  0.88500000000E+002,  0.19999527827E+007,  0.19000000000E+002,  0.99899572265E+000,  0.10042773515E-002
  0.90500000000E+002,  0.19999526404E+007,  0.19000000000E+002,  0.99899561649E+000,  0.10043835065E-002
  0.92500000000E+002,  0.19999525169E+007,  0.19000000000E+002,  0.99899550999E+000,  0.10044900145E-002
  0.94500000000E+002,  0.19999524118E+007,  0.19000000000E+002,  0.99899540313E+000,  0.10045968667E-002
  0.96500000000E+002,  0.19999523247E+007,  0.19000000000E+002,  0.99899529595E+000,  0.10047040546E-002
  0.98500000000E+002,  0.19999522551E+007,  0.19000000000E+002,  0.99899518843E+000,  0.10048115697E-002
  0.10050000000E+003,  0.19999522025E+007,  0.19000000000E+002,  0.99899508060E+000,  0.10049194035E-002
  0.10250000000E+003,  0.19999521665E+007,  0.19000000000E+002,  0.99899497245E+000,  0.10050275478E-002
  0.10450000000E+003,  0.19999521468E+007,  0.19000000000E+002,  0.99899486401E+000,  0.10051359944E-002
  0.10650000000E+003,  0.19999521427E+007,  0.19000000000E+002,  0.99899475527E+000,  0.10052447344E-002
  0.10850000000E+003,  0.19999521539E+007,  0.19000000000E+002,  0.99899464624E+000,  0.10053537622E-002
  0.11050000000E+003,  0.19999521801E+007,  0.19000000000E+002,  0.99899453693E+000,  0.10054630690E-002
  0.11250000000E+003,  0.19999522209E+007,  0.19000000000E+002,  0.99899442735E+000,  0.10055726474E-002
  0.11450000000E+003,  0.19999522758E+007,  0.19000000000E+002,  0.99899431751E+000,  0.10056824900E-002
  0.11650000000E+003,  0.19999523428E+007,  0.19000000000E+002,  0.99899420741E+000,  0.10057925925E-002
  0.11850000000E+003,  0.19999524209E+007,  0.19000000000E+002,  0.99899409705E+000,  0.10059029503E-002
  0.12050000000E+003,  0.19999525102E+007,  0.19000000000E+002,  0.99899398644E+000,  0.10060135576E-002
  0.12250000000E+003,  0.19999526104E+007,  0.19000000000E+002,  0.99899387559E+000,  0.10061244085E-002
  0.12450000000E+003,  0.19999527214E+007,  0.19000000000E+002,  0.99899376450E+000,  0.10062354971E-002
  0.12650000000E+003,  0.19999528429E+007,  0.19000000000E+002,  0.99899365318E+000,  0.10063468179E-002
  0.12850000000E+003,  0.19999529745E+007,  0.19000000000E+002,  0.99899354163E+000,  0.10064583650E-002
  0.13050000000E+003,  0.19999531162E+007,  0.19000000000E+002,  0.99899342987E+000,  0.10065701331E-002
  0.13250000000E+003,  0.19999532676E+007,  0.19000000000E+002,  0.99899331788E+000,  0.10066821167E-002
  0.13450000000E+003,  0.19999534285E+007,  0.19000000000E+002,  0.99899320569E+000,  0.10067943106E-002
  0.13650000000E+003,  0.19999535987E+007,  0.19000000000E+002,  0.99899309329E+000,  0.10069067096E-002
  0.13850000000E+003,  0.19999537773E+007,  0.19000000000E+002,  0.99899298069E+000,  0.10070193096E-002
  0.14050000000E+003,  0.19999539643E+007,  0.19000000000E+002,  0.99899286789E+000,  0.10071321061E-002
  0.14250000000E+003,  0.19999541595E+007,  0.19000000000E+002,  0.99899275491E+000,  0.10072450943E-002
  0.14450000000E+003,  0.19999543618E+007,  0.19000000000E+002,  0.99899264173E+000,  0.10073582713E-002
  0.14650000000E+003,  0.19999545715E+007,  0.19000000000E+002,  0.99899252837E+000,  0.10074716328E-002
  0.14850000000E+003,  0.19999547885E+007,  0.19000000000E+002,  0.99899241483E+000,  0.10075851745E-002
  0.15050000000E+003,  0.19999550125E+007,  0.19000000000E+002,  0.99899230111E+000,  0.10076988924E-002
  0.15250000000E+003,  0.19999552435E+007,  0.19000000000E+002,  0.99899218722E+000,  0.10078127826E-002
  0.15450000000E+003,  0.19999554812E+007,  0.19000000000E+002,  0.99899207316E+000,  0.10079268412E-002
  0.15650000000E+003,  0.19999557255E+007,  0.19000000000E+002,  0.99899195894E+000,  0.10080410644E-002
  0.15850000000E+003,  0.19999559763E+007,  0.19000000000E+002,  0.99899184455E+000,  0.10081554484E-002
  0.16050000000E+003,  0.19999562334E+007,  0.19000000000E+002,  0.99899173001E+000,  0.10082699898E-002
  0.16250000000E+003,  0.19999564967E+007,  0.19000000000E+002,  0.99899161531E+000,  0.10083846850E-002
  0.16450000000E+003,  0.19999567660E+007,  0.19000000000E+002,  0.99899150047E+000,  0.10084995305E-002
  0.16650000000E+003,  0.19999570413E+007,  0.19000000000E+002,  0.99899138548E+000,  0.10086145230E-002
  0.16850000000E+003,  0.19999573217E+007,  0.19000000000E+002,  0.99899127034E+000,  0.10087296604E-002
  0.17050000000E+003,  0.19999576075E+007,  0.19000000000E+002,  0.99899115506E+000,  0.10088449397E-002
  0.17250000000E+003,  0.19999578985E+007,  0.19000000000E+002,  0.99899103964E+000,  0.10089603578E-002
  0.17450000000E+003,  0.19999581946E+007,  0.19000000000E+002,  0.99899092409E+000,  0.10090759119E-002
  0.17650000000E+003,  0.19999584957E+007,  0.19000000000E+002,  0.99899080840E+000,  0.10091915992E-002
  0.17850000000E+003,  0.19999588017E+007,  0.19000000000E+002,  0.99899069258E+000,  0.10093074168E-002
  0.18050000000E+003,  0.19999591125E+007,  0.19000000000E+002,  0.99899057664E+000,  0.10094233621E-002
  0.18250000000E+003,  0.19999594280E+007,  0.19000000000E+002,  0.99899046057E+000,  0.10095394323E-002
  0.18450000000E+003,  0.19999597481E+007,  0.19000000000E+002,  0.99899034438E+000,  0.10096556249E-002
  0.18650000000E+003,  0.19999600722E+007,  0.19000000000E+002,  0.99899022806E+000,  0.10097719382E-002
  0.18850000000E+003,  0.19999604005E+007,  0.19000000000E+002,  0.99899011163E+000,  0.10098883700E-002
  0.19050000000E+003,  0.19999607327E+007,  0.19000000000E+002,  0.99898999508E+000,  0.10100049179E-002
  0.19250000000E+003,  0.19999610689E+007,  0.19000000000E+002,  0.99898987842E+000,  0.10101215799E-002
  0.19450000000E+003,  0.19999614086E+007,  0.19000000000E+002,  0.99898976165E+000,  0.10102383542E-002
  0.19650000000E+003,  0.19999617518E+007,  0.19000000000E+002,  0.99898964476E+000,  0.10103552389E-002
  0.19850000000E+003,  0.19999620980E+007,  0.19000000000E+002,  0.99898952777E+000,  0.10104722328E-002
  0.20050000000E+003,  0.19999624473E+007,  0.19000000000E+002,  0.99898941067E+000,  0.10105893342E-002
  0.20250000000E+003,  0.19999627996E+007,  0.19000000000E+002,  0.99898929346E+000,  0.10107065414E-002
  0.20450000000E+003,  0.19999631548E+007,  0.19000000000E+002,  0.99898917615E+000,  0.10108238526E-002
  0.20650000000E+003,  0.19999635130E+007,  0.19000000000E+002,  0.99898905873E+000,  0.10109412661E-002
  0.20850000000E+003,  0.19999638739E+007,  0.19000000000E+002,  0.99898894122E+000,  0.10110587801E-002
  0.21050000000E+003,  0.19999642377E+007,  0.19000000000E+002,  0.99898882361E+000,  0.10111763928E-002
  0.21250000000E+003,  0.19999646042E+007,  0.19000000000E+002,  0.99898870590E+000,  0.10112941026E-002
  0.21450000000E+003,  0.19999649735E+007,  0.19000000000E+002,  0.99898858809E+000,  0.10114119077E-002
  0.21650000000E+003,  0.19999653454E+007,  0.19000000000E+002,  0.99898847019E+000,  0.10115298066E-002
  0.21850000000E+003,  0.19999657198E+007,  0.19000000000E+002,  0.99898835220E+000,  0.10116477976E-002
  0.22050000000E+003,  0.19999660969E+007,  0.19000000000E+002,  0.99898823412E+000,  0.10117658791E-002
  0.22250000000E+003,  0.19999664765E+007,  0.19000000000E+002,  0.99898811595E+000,  0.10118840495E-002
  0.22450000000E+003,  0.19999668585E+007,  0.19000000000E+002,  0.99898799769E+000,  0.10120023073E-002
  0.22650000000E+003,  0.19999672430E+007,  0.19000000000E+002,  0.99898787935E+000,  0.10121206510E-002
  0.22850000000E+003,  0.19999676299E+007,  0.19000000000E+002,  0.99898776092E+000,  0.10122390791E-002
  0.23050000000E+003,  0.19999680191E+007,  0.19000000000E+002,  0.99898764241E+000,  0.10123575902E-002
  0.23250000000E+003,  0.19999684107E+007,  0.19000000000E+002,  0.99898752382E+000,  0.10124761827E-002
  0.23450000000E+003,  0.19999688045E+007,  0.19000000000E+002,  0.99898740514E+000,  0.10125948554E-002
  0.23650000000E+003,  0.19999692005E+007,  0.19000000000E+002,  0.99898728639E+000,  0.10127136069E-002
  0.23850000000E+003,  0.19999695987E+007,  0.19000000000E+002,  0.99898716756E+000,  0.10128324357E-002
  0.24050000000E+003,  0.19999699991E+007,  0.19000000000E+002,  0.99898704866E+000,  0.10129513407E-002
  0.24250000000E+003,  0.19999704016E+007,  0.19000000000E+002,  0.99898692968E+000,  0.10130703204E-002
  0.24450000000E+003,  0.19999708062E+007,  0.19000000000E+002,  0.99898681063E+000,  0.10131893736E-002
  0.24650000000E+003,  0.19999712128E+007,  0.19000000000E+002,  0.99898669150E+000,  0.10133084991E-002
  0.24850000000E+003,  0.19999716214E+007,  0.19000000000E+002,  0.99898657230E+000,  0.10134276956E-002
  0.25050000000E+003,  0.19999720321E+007,  0.19000000000E+002,  0.99898645304E+000,  0.10135469620E-002
  0.25250000000E+003,  0.19999724446E+007,  0.19000000000E+002,  0.99898633370E+000,  0.10136662971E-002
  0.25450000000E+003,  0.19999728591E+007,  0.19000000000E+002,  0.99898621430E+000,  0.10137856996E-002
  0.25650000000E+003,  0.19999732754E+007,  0.19000000000E+002,  0.99898609483E+000,  0.10139051685E-002
  0.25850000000E+003,  0.19999736936E+007,  0.19000000000E+002,  0.99898597530E+000,  0.10140247026E-002
  0.26050000000E+003,  0.19999741136E+007,  0.19000000000E+002,  0.99898585570E+000,  0.10141443008E-002
  0.26250000000E+003,  0.19999745354E+007,  0.19000000000E+002,  0.99898573604E+000,  0.10142639622E-002
  0.26450000000E+003,  0.19999749590E+007,  0.19000000000E+002,  0.99898561631E+000,  0.10143836855E-002
  0.26650000000E+003,  0.19999753843E+007,  0.19000000000E+002,  0.99898549653E+000,  0.10145034698E-002
  0.26850000000E+003,  0.19999758113E+007,  0.19000000000E+002,  0.99898537669E+000,  0.10146233141E-002
  0.27050000000E+003,  0.19999762399E+007,  0.19000000000E+002,  0.99898525678E+000,  0.10147432173E-002
  0.27250000000E+003,  0.19999766702E+007,  0.19000000000E+002,  0.99898513682E+000,  0.10148631784E-002
  0.27450000000E+003,  0.19999771021E+007,  0.19000000000E+002,  0.99898501680E+000,  0.10149831966E-002
  0.27650000000E+003,  0.19999775356E+007,  0.19000000000E+002,  0.99898489673E+000,  0.10151032708E-002
  0.27850000000E+003,  0.19999779706E+007,  0.19000000000E+002,  0.99898477660E+000,  0.10152234001E-002
  0.28050000000E+003,  0.19999784072E+007,  0.19000000000E+002,  0.99898465642E+000,  0.10153435836E-002
  0.28250000000E+003,  0.19999788453E+007,  0.19000000000E+002,  0.99898453618E+000,  0.10154638203E-002
  0.28450000000E+003,  0.19999792847E+007,  0.19000000000E+002,  0.99898441589E+000,  0.10155841098E-002
  0.28650000000E+003,  0.19999797254E+007,  0.19000000000E+002,  0.99898429555E+000,  0.10157044512E-002
  0.28850000000E+003,  0.19999801674E+007,  0.19000000000E+002,  0.99898417516E+000,  0.10158248438E-002
  0.29050000000E+003,  0.19999806105E+007,  0.19000000000E+002,  0.99898405471E+000,  0.10159452869E-002
  0.29250000000E+003,  0.19999810550E+007,  0.19000000000E+002,  0.99898393422E+000,  0.10160657796E-002
  0.29450000000E+003,  0.19999815006E+007,  0.19000000000E+002,  0.99898381368E+000,  0.10161863212E-002
  0.29650000000E+003,  0.19999819474E+007,  0.19000000000E+002,  0.99898369309E+000,  0.10163069110E-002
  0.29850000000E+003,  0.19999823952E+007,  0.19000000000E+002,  0.99898357245E+000,  0.10164275486E-002
  0.30050000000E+003,  0.19999828440E+007,  0.19000000000E+002,  0.99898345177E+000,  0.10165482334E-002
  0.30250000000E+003,  0.19999832937E+007,  0.19000000000E+002,  0.99898333104E+000,  0.10166689648E-002
  0.30450000000E+003,  0.19999837445E+007,  0.19000000000E+002,  0.99898321026E+000,  0.10167897420E-002
  0.30650000000E+003,  0.19999841961E+007,  0.19000000000E+002,  0.99898308944E+000,  0.10169105645E-002
  0.30850000000E+003,  0.19999846487E+007,  0.19000000000E+002,  0.99898296857E+000,  0.10170314316E-002
  0.31050000000E+003,  0.19999851023E+007,  0.19000000000E+002,  0.99898284766E+000,  0.10171523427E-002
  0.31250000000E+003,  0.19999855567E+007,  0.19000000000E+002,  0.99898272670E+000,  0.10172732972E-002
  0.31450000000E+003,  0.19999860120E+007,  0.19000000000E+002,  0.99898260571E+000,  0.10173942943E-002
  0.31650000000E+003,  0.19999864682E+007,  0.19000000000E+002,  0.99898248467E+000,  0.10175153334E-002
  0.31850000000E+003,  0.19999869253E+007,  0.19000000000E+002,  0.99898236359E+000,  0.10176364140E-002
  0.32050000000E+003,  0.19999873833E+007,  0.19000000000E+002,  0.99898224246E+000,  0.10177575354E-002
  0.32250000000E+003,  0.19999878420E+007,  0.19000000000E+002,  0.99898212130E+000,  0.10178786971E-002
  0.32450000000E+003,  0.19999883016E+007,  0.19000000000E+002,  0.99898200010E+000,  0.10179998983E-002
  0.32650000000E+003,  0.19999887621E+007,  0.19000000000E+002,  0.99898187886E+000,  0.10181211385E-002
  0.32850000000E+003,  0.19999892233E+007,  0.19000000000E+002,  0.99898175758E+000,  0.10182424171E-002
  0.33050000000E+003,  0.19999896853E+007,  0.19000000000E+002,  0.99898163627E+000,  0.10183637336E-002
  0.33250000000E+003,  0.19999901480E+007,  0.19000000000E+002,  0.99898151491E+000,  0.10184850876E-002
  0.33450000000E+003,  0.19999906113E+007,  0.19000000000E+002,  0.99898139352E+000,  0.10186064787E-002
  0.33650000000E+003,  0.19999910753E+007,  0.19000000000E+002,  0.99898127209E+000,  0.10187279063E-002
  0.33850000000E+003,  0.19999915399E+007,  0.19000000000E+002,  0.99898115063E+000,  0.10188493700E-002
  0.34050000000E+003,  0.19999920051E+007,  0.19000000000E+002,  0.99898102913E+000,  0.10189708695E-002
  0.34250000000E+003,  0.19999924708E+007,  0.19000000000E+002,  0.99898090760E+000,  0.10190924047E-002
  0.34450000000E+003,  0.19999929371E+007,  0.19000000000E+002,  0.99898078603E+000,  0.10192139749E-002
  0.34650000000E+003,  0.19999934040E+007,  0.19000000000E+002,  0.99898066442E+000,  0.10193355798E-002
  0.34850000000E+003,  0.19999938714E+007,  0.19000000000E+002,  0.99898054278E+000,  0.10194572189E-002
  0.35050000000E+003,  0.19999943393E+007,  0.19000000000E+002,  0.99898042111E+000,  0.10195788916E-002
  0.35250000000E+003,  0.19999948078E+007,  0.19000000000E+002,  0.99898029940E+000,  0.10197005976E-002
  0.35450000000E+003,  0.19999952768E+007,  0.19000000000E+002,  0.99898017766E+000,  0.10198223363E-002
  0.35650000000E+003,  0.19999957462E+007,  0.19000000000E+002,  0.99898005589E+000,  0.10199441072E-002
  0.35850000000E+003,  0.19999962162E+007,  0.19000000000E+002,  0.99897993409E+000,  0.10200659100E-002
  0.36050000000E+003,  0.19999966867E+007,  0.19000000000E+002,  0.99897981226E+000,  0.10201877441E-002
  0.36250000000E+003,  0.19999971577E+007,  0.19000000000E+002,  0.99897969039E+000,  0.10203096091E-002
  0.36450000000E+003,  0.19999976292E+007,  0.19000000000E+002,  0.99897956850E+000,  0.10204315046E-002
  0.36650000000E+003,  0.19999981011E+007,  0.19000000000E+002,  0.99897944657E+000,  0.10205534300E-002
  0.36850000000E+003,  0.19999985735E+007,  0.19000000000E+002,  0.99897932462E+000,  0.10206753850E-002
  0.37050000000E+003,  0.19999990464E+007,  0.19000000000E+002,  0.99897920263E+000,  0.10207973691E-002
  0.37250000000E+003,  0.19999995197E+007,  0.19000000000E+002,  0.99897908062E+000,  0.10209193818E-002
  0.37450000000E+003,  0.19999999934E+007,  0.19000000000E+002,  0.99897895858E+000,  0.10210414227E-002
  0.37650000000E+003,  0.20000004677E+007,  0.19000000000E+002,  0.99897883651E+000,  0.10211634915E-002
