"           TIME(S)","              PRES","              TEMP","             SAT_G","             SAT_L"
  0.17812600500E+008,  0.20000000004E+007,  0.19000000000E+002,  0.00000000000E+000,  0.10000000000E+001
  0.17812602500E+008,  0.20000004222E+007,  0.19000000000E+002,  0.00000000000E+000,  0.10000000000E+001
  0.17812604500E+008,  0.20000017861E+007,  0.19000000000E+002,  0.00000000000E+000,  0.10000000000E+001
  0.17812606500E+008,  0.20000044110E+007,  0.19000000000E+002,  0.00000000000E+000,  0.10000000000E+001
  0.17812608500E+008,  0.20000083257E+007,  0.19000000000E+002,  0.00000000000E+000,  0.10000000000E+001
  0.17812610500E+008,  0.20000133427E+007,  0.19000000000E+002,  0.00000000000E+000,  0.10000000000E+001
  0.17812612500E+008,  0.20000191720E+007,  0.19000000000E+002,  0.00000000000E+000,  0.10000000000E+001
  0.17812614500E+008,  0.20000255118E+007,  0.19000000000E+002,  0.00000000000E+000,  0.10000000000E+001
  0.17812616500E+008,  0.20000320981E+007,  0.19000000000E+002,  0.00000000000E+000,  0.10000000000E+001
  0.17812618500E+008,  0.20000387242E+007,  0.19000000000E+002,  0.00000000000E+000,  0.10000000000E+001
  0.17812620500E+008,  0.20000452401E+007,  0.19000000000E+002,  0.00000000000E+000,  0.10000000000E+001
  0.17812622500E+008,  0.20000515452E+007,  0.19000000000E+002,  0.00000000000E+000,  0.10000000000E+001
  0.17812624500E+008,  0.20000575770E+007,  0.19000000000E+002,  0.00000000000E+000,  0.10000000000E+001
  0.17812626500E+008,  0.20000633009E+007,  0.19000000000E+002,  0.00000000000E+000,  0.10000000000E+001
  0.17812628500E+008,  0.20000687028E+007,  0.19000000000E+002,  0.00000000000E+000,  0.10000000000E+001
  0.17812630500E+008,  0.20000737816E+007,  0.19000000000E+002,  0.00000000000E+000,  0.10000000000E+001
  0.17812632500E+008,  0.20000785451E+007,  0.19000000000E+002,  0.00000000000E+000,  0.10000000000E+001
  0.17812634500E+008,  0.20000830069E+007,  0.19000000000E+002,  0.00000000000E+000,  0.10000000000E+001
  0.17812636500E+008,  0.20000871832E+007,  0.19000000000E+002,  0.00000000000E+000,  0.10000000000E+001
  0.17812638500E+008,  0.20000910918E+007,  0.19000000000E+002,  0.00000000000E+000,  0.10000000000E+001
  0.17812640500E+008,  0.20000947513E+007,  0.19000000000E+002,  0.00000000000E+000,  0.10000000000E+001
  0.17812642500E+008,  0.20000981796E+007,  0.19000000000E+002,  0.00000000000E+000,  0.10000000000E+001
  0.17812644500E+008,  0.20001013942E+007,  0.19000000000E+002,  0.00000000000E+000,  0.10000000000E+001
  0.17812646500E+008,  0.20001044118E+007,  0.19000000000E+002,  0.00000000000E+000,  0.10000000000E+001
  0.17812648500E+008,  0.20001072478E+007,  0.19000000000E+002,  0.00000000000E+000,  0.10000000000E+001
  0.17812650500E+008,  0.20001099167E+007,  0.19000000000E+002,  0.00000000000E+000,  0.10000000000E+001
  0.17812652500E+008,  0.20001124320E+007,  0.19000000000E+002,  0.00000000000E+000,  0.10000000000E+001
  0.17812654500E+008,  0.20001148060E+007,  0.19000000000E+002,  0.00000000000E+000,  0.10000000000E+001
  0.17812656500E+008,  0.20001170501E+007,  0.19000000000E+002,  0.00000000000E+000,  0.10000000000E+001
  0.17812658500E+008,  0.20001191748E+007,  0.19000000000E+002,  0.00000000000E+000,  0.10000000000E+001
  0.17812660500E+008,  0.20001211896E+007,  0.19000000000E+002,  0.00000000000E+000,  0.10000000000E+001
  0.17812662500E+008,  0.20001231034E+007,  0.19000000000E+002,  0.00000000000E+000,  0.10000000000E+001
  0.17812664500E+008,  0.20001249241E+007,  0.19000000000E+002,  0.00000000000E+000,  0.10000000000E+001
  0.17812666500E+008,  0.20001266592E+007,  0.19000000000E+002,  0.00000000000E+000,  0.10000000000E+001
  0.17812668500E+008,  0.20001283154E+007,  0.19000000000E+002,  0.00000000000E+000,  0.10000000000E+001
  0.17812670500E+008,  0.20001298990E+007,  0.19000000000E+002,  0.00000000000E+000,  0.10000000000E+001
  0.17812672500E+008,  0.20001314155E+007,  0.19000000000E+002,  0.00000000000E+000,  0.10000000000E+001
  0.17812674500E+008,  0.20001328703E+007,  0.19000000000E+002,  0.00000000000E+000,  0.10000000000E+001
  0.17812676500E+008,  0.20001342682E+007,  0.19000000000E+002,  0.00000000000E+000,  0.10000000000E+001
  0.17812678500E+008,  0.20001356135E+007,  0.19000000000E+002,  0.00000000000E+000,  0.10000000000E+001
  0.17812680500E+008,  0.20001369102E+007,  0.19000000000E+002,  0.00000000000E+000,  0.10000000000E+001
  0.17812682500E+008,  0.20001381622E+007,  0.19000000000E+002,  0.00000000000E+000,  0.10000000000E+001
  0.17812684500E+008,  0.20001393728E+007,  0.19000000000E+002,  0.00000000000E+000,  0.10000000000E+001
  0.17812686500E+008,  0.20001405451E+007,  0.19000000000E+002,  0.00000000000E+000,  0.10000000000E+001
  0.17812688500E+008,  0.20001416822E+007,  0.19000000000E+002,  0.00000000000E+000,  0.10000000000E+001
  0.17812690500E+008,  0.20001427866E+007,  0.19000000000E+002,  0.00000000000E+000,  0.10000000000E+001
  0.17812692500E+008,  0.20001438608E+007,  0.19000000000E+002,  0.00000000000E+000,  0.10000000000E+001
  0.17812694500E+008,  0.20001449072E+007,  0.19000000000E+002,  0.00000000000E+000,  0.10000000000E+001
  0.17812696500E+008,  0.20001459277E+007,  0.19000000000E+002,  0.00000000000E+000,  0.10000000000E+001
  0.17812698500E+008,  0.20001469244E+007,  0.19000000000E+002,  0.00000000000E+000,  0.10000000000E+001
  0.17812700500E+008,  0.20001478991E+007,  0.19000000000E+002,  0.00000000000E+000,  0.10000000000E+001
  0.17812702500E+008,  0.20001488533E+007,  0.19000000000E+002,  0.00000000000E+000,  0.10000000000E+001
  0.17812704500E+008,  0.20001497888E+007,  0.19000000000E+002,  0.00000000000E+000,  0.10000000000E+001
  0.17812706500E+008,  0.20001507067E+007,  0.19000000000E+002,  0.00000000000E+000,  0.10000000000E+001
  0.17812708500E+008,  0.20001516085E+007,  0.19000000000E+002,  0.00000000000E+000,  0.10000000000E+001
  0.17812710500E+008,  0.20001524954E+007,  0.19000000000E+002,  0.00000000000E+000,  0.10000000000E+001
  0.17812712500E+008,  0.20001533685E+007,  0.19000000000E+002,  0.00000000000E+000,  0.10000000000E+001
  0.17812714500E+008,  0.20001542289E+007,  0.19000000000E+002,  0.00000000000E+000,  0.10000000000E+001
  0.17812716500E+008,  0.20001550775E+007,  0.19000000000E+002,  0.00000000000E+000,  0.10000000000E+001
  0.17812718500E+008,  0.20001559151E+007,  0.19000000000E+002,  0.00000000000E+000,  0.10000000000E+001
  0.17812720500E+008,  0.20001567427E+007,  0.19000000000E+002,  0.00000000000E+000,  0.10000000000E+001
  0.17812722500E+008,  0.20001575609E+007,  0.19000000000E+002,  0.00000000000E+000,  0.10000000000E+001
  0.17812724500E+008,  0.20001583706E+007,  0.19000000000E+002,  0.00000000000E+000,  0.10000000000E+001
  0.17812726500E+008,  0.20001591723E+007,  0.19000000000E+002,  0.00000000000E+000,  0.10000000000E+001
  0.17812728500E+008,  0.20001599666E+007,  0.19000000000E+002,  0.00000000000E+000,  0.10000000000E+001
  0.17812730500E+008,  0.20001607542E+007,  0.19000000000E+002,  0.00000000000E+000,  0.10000000000E+001
  0.17812732500E+008,  0.20001615354E+007,  0.19000000000E+002,  0.00000000000E+000,  0.10000000000E+001
  0.17812734500E+008,  0.20001623110E+007,  0.19000000000E+002,  0.00000000000E+000,  0.10000000000E+001
  0.17812736500E+008,  0.20001630811E+007,  0.19000000000E+002,  0.00000000000E+000,  0.10000000000E+001
  0.17812738500E+008,  0.20001638464E+007,  0.19000000000E+002,  0.00000000000E+000,  0.10000000000E+001
  0.17812740500E+008,  0.20001646071E+007,  0.19000000000E+002,  0.00000000000E+000,  0.10000000000E+001
  0.17812742500E+008,  0.20001653637E+007,  0.19000000000E+002,  0.00000000000E+000,  0.10000000000E+001
  0.17812744500E+008,  0.20001661164E+007,  0.19000000000E+002,  0.00000000000E+000,  0.10000000000E+001
  0.17812746500E+008,  0.20001668655E+007,  0.19000000000E+002,  0.00000000000E+000,  0.10000000000E+001
  0.17812748500E+008,  0.20001676114E+007,  0.19000000000E+002,  0.00000000000E+000,  0.10000000000E+001
  0.17812750500E+008,  0.20001683542E+007,  0.19000000000E+002,  0.00000000000E+000,  0.10000000000E+001
  0.17812752500E+008,  0.20001690943E+007,  0.19000000000E+002,  0.00000000000E+000,  0.10000000000E+001
  0.17812754500E+008,  0.20001698319E+007,  0.19000000000E+002,  0.00000000000E+000,  0.10000000000E+001
  0.17812756500E+008,  0.20001705671E+007,  0.19000000000E+002,  0.00000000000E+000,  0.10000000000E+001
  0.17812758500E+008,  0.20001713002E+007,  0.19000000000E+002,  0.00000000000E+000,  0.10000000000E+001
  0.17812760500E+008,  0.20001720312E+007,  0.19000000000E+002,  0.00000000000E+000,  0.10000000000E+001
  0.17812762500E+008,  0.20001727605E+007,  0.19000000000E+002,  0.00000000000E+000,  0.10000000000E+001
  0.17812764500E+008,  0.20001734881E+007,  0.19000000000E+002,  0.00000000000E+000,  0.10000000000E+001
  0.17812766500E+008,  0.20001742142E+007,  0.19000000000E+002,  0.00000000000E+000,  0.10000000000E+001
  0.17812768500E+008,  0.20001749389E+007,  0.19000000000E+002,  0.00000000000E+000,  0.10000000000E+001
  0.17812770500E+008,  0.20001756623E+007,  0.19000000000E+002,  0.00000000000E+000,  0.10000000000E+001
  0.17812772500E+008,  0.20001763845E+007,  0.19000000000E+002,  0.00000000000E+000,  0.10000000000E+001
  0.17812774500E+008,  0.20001771056E+007,  0.19000000000E+002,  0.00000000000E+000,  0.10000000000E+001
  0.17812776500E+008,  0.20001778258E+007,  0.19000000000E+002,  0.00000000000E+000,  0.10000000000E+001
  0.17812778500E+008,  0.20001785450E+007,  0.19000000000E+002,  0.00000000000E+000,  0.10000000000E+001
  0.17812780500E+008,  0.20001792634E+007,  0.19000000000E+002,  0.00000000000E+000,  0.10000000000E+001
  0.17812782500E+008,  0.20001799811E+007,  0.19000000000E+002,  0.00000000000E+000,  0.10000000000E+001
  0.17812784500E+008,  0.20001806980E+007,  0.19000000000E+002,  0.00000000000E+000,  0.10000000000E+001
  0.17812786500E+008,  0.20001814143E+007,  0.19000000000E+002,  0.00000000000E+000,  0.10000000000E+001
  0.17812788500E+008,  0.20001821300E+007,  0.19000000000E+002,  0.00000000000E+000,  0.10000000000E+001
  0.17812790500E+008,  0.20001828452E+007,  0.19000000000E+002,  0.00000000000E+000,  0.10000000000E+001
  0.17812792500E+008,  0.20001835598E+007,  0.19000000000E+002,  0.00000000000E+000,  0.10000000000E+001
  0.17812794500E+008,  0.20001842740E+007,  0.19000000000E+002,  0.00000000000E+000,  0.10000000000E+001
  0.17812796500E+008,  0.20001849878E+007,  0.19000000000E+002,  0.00000000000E+000,  0.10000000000E+001
  0.17812798500E+008,  0.20001857011E+007,  0.19000000000E+002,  0.00000000000E+000,  0.10000000000E+001
  0.17812800500E+008,  0.20001864141E+007,  0.19000000000E+002,  0.00000000000E+000,  0.10000000000E+001
  0.17812802500E+008,  0.20001871268E+007,  0.19000000000E+002,  0.00000000000E+000,  0.10000000000E+001
  0.17812804500E+008,  0.20001878391E+007,  0.19000000000E+002,  0.00000000000E+000,  0.10000000000E+001
  0.17812806500E+008,  0.20001885511E+007,  0.19000000000E+002,  0.00000000000E+000,  0.10000000000E+001
  0.17812808500E+008,  0.20001892628E+007,  0.19000000000E+002,  0.00000000000E+000,  0.10000000000E+001
  0.17812810500E+008,  0.20001899743E+007,  0.19000000000E+002,  0.00000000000E+000,  0.10000000000E+001
  0.17812812500E+008,  0.20001906855E+007,  0.19000000000E+002,  0.00000000000E+000,  0.10000000000E+001
  0.17812814500E+008,  0.20001913964E+007,  0.19000000000E+002,  0.00000000000E+000,  0.10000000000E+001
  0.17812816500E+008,  0.20001921071E+007,  0.19000000000E+002,  0.00000000000E+000,  0.10000000000E+001
  0.17812818500E+008,  0.20001928176E+007,  0.19000000000E+002,  0.00000000000E+000,  0.10000000000E+001
  0.17812820500E+008,  0.20001935278E+007,  0.19000000000E+002,  0.00000000000E+000,  0.10000000000E+001
  0.17812822500E+008,  0.20001942378E+007,  0.19000000000E+002,  0.00000000000E+000,  0.10000000000E+001
  0.17812824500E+008,  0.20001949476E+007,  0.19000000000E+002,  0.00000000000E+000,  0.10000000000E+001
  0.17812826500E+008,  0.20001956572E+007,  0.19000000000E+002,  0.00000000000E+000,  0.10000000000E+001
  0.17812828500E+008,  0.20001963665E+007,  0.19000000000E+002,  0.00000000000E+000,  0.10000000000E+001
  0.17812830500E+008,  0.20001970756E+007,  0.19000000000E+002,  0.00000000000E+000,  0.10000000000E+001
  0.17812832500E+008,  0.20001977845E+007,  0.19000000000E+002,  0.00000000000E+000,  0.10000000000E+001
  0.17812834500E+008,  0.20001984932E+007,  0.19000000000E+002,  0.00000000000E+000,  0.10000000000E+001
  0.17812836500E+008,  0.20001992016E+007,  0.19000000000E+002,  0.00000000000E+000,  0.10000000000E+001
  0.17812838500E+008,  0.20001999099E+007,  0.19000000000E+002,  0.00000000000E+000,  0.10000000000E+001
  0.17812840500E+008,  0.20002006178E+007,  0.19000000000E+002,  0.00000000000E+000,  0.10000000000E+001
  0.17812842500E+008,  0.20002013256E+007,  0.19000000000E+002,  0.00000000000E+000,  0.10000000000E+001
  0.17812844500E+008,  0.20002020331E+007,  0.19000000000E+002,  0.00000000000E+000,  0.10000000000E+001
  0.17812846500E+008,  0.20002027404E+007,  0.19000000000E+002,  0.00000000000E+000,  0.10000000000E+001
  0.17812848500E+008,  0.20002034474E+007,  0.19000000000E+002,  0.00000000000E+000,  0.10000000000E+001
  0.17812850500E+008,  0.20002041541E+007,  0.19000000000E+002,  0.00000000000E+000,  0.10000000000E+001
  0.17812852500E+008,  0.20002048606E+007,  0.19000000000E+002,  0.00000000000E+000,  0.10000000000E+001
  0.17812854500E+008,  0.20002055668E+007,  0.19000000000E+002,  0.00000000000E+000,  0.10000000000E+001
  0.17812856500E+008,  0.20002062727E+007,  0.19000000000E+002,  0.00000000000E+000,  0.10000000000E+001
  0.17812858500E+008,  0.20002069784E+007,  0.19000000000E+002,  0.00000000000E+000,  0.10000000000E+001
  0.17812860500E+008,  0.20002076837E+007,  0.19000000000E+002,  0.00000000000E+000,  0.10000000000E+001
  0.17812862500E+008,  0.20002083887E+007,  0.19000000000E+002,  0.00000000000E+000,  0.10000000000E+001
  0.17812864500E+008,  0.20002090935E+007,  0.19000000000E+002,  0.00000000000E+000,  0.10000000000E+001
  0.17812866500E+008,  0.20002097979E+007,  0.19000000000E+002,  0.00000000000E+000,  0.10000000000E+001
  0.17812868500E+008,  0.20002105020E+007,  0.19000000000E+002,  0.00000000000E+000,  0.10000000000E+001
  0.17812870500E+008,  0.20002112058E+007,  0.19000000000E+002,  0.00000000000E+000,  0.10000000000E+001
  0.17812872500E+008,  0.20002119092E+007,  0.19000000000E+002,  0.00000000000E+000,  0.10000000000E+001
  0.17812874500E+008,  0.20002126123E+007,  0.19000000000E+002,  0.00000000000E+000,  0.10000000000E+001
  0.17812876500E+008,  0.20002133150E+007,  0.19000000000E+002,  0.00000000000E+000,  0.10000000000E+001
  0.17812878500E+008,  0.20002140174E+007,  0.19000000000E+002,  0.00000000000E+000,  0.10000000000E+001
  0.17812880500E+008,  0.20002147194E+007,  0.19000000000E+002,  0.00000000000E+000,  0.10000000000E+001
  0.17812882500E+008,  0.20002154210E+007,  0.19000000000E+002,  0.00000000000E+000,  0.10000000000E+001
  0.17812884500E+008,  0.20002161222E+007,  0.19000000000E+002,  0.00000000000E+000,  0.10000000000E+001
  0.17812886500E+008,  0.20002168231E+007,  0.19000000000E+002,  0.00000000000E+000,  0.10000000000E+001
  0.17812888500E+008,  0.20002175235E+007,  0.19000000000E+002,  0.00000000000E+000,  0.10000000000E+001
  0.17812890500E+008,  0.20002182235E+007,  0.19000000000E+002,  0.00000000000E+000,  0.10000000000E+001
  0.17812892500E+008,  0.20002189232E+007,  0.19000000000E+002,  0.00000000000E+000,  0.10000000000E+001
  0.17812894500E+008,  0.20002196224E+007,  0.19000000000E+002,  0.00000000000E+000,  0.10000000000E+001
  0.17812896500E+008,  0.20002203211E+007,  0.19000000000E+002,  0.00000000000E+000,  0.10000000000E+001
  0.17812898500E+008,  0.20002210195E+007,  0.19000000000E+002,  0.00000000000E+000,  0.10000000000E+001
  0.17812900500E+008,  0.20002217174E+007,  0.19000000000E+002,  0.00000000000E+000,  0.10000000000E+001
  0.17812902500E+008,  0.20002224148E+007,  0.19000000000E+002,  0.00000000000E+000,  0.10000000000E+001
  0.17812904500E+008,  0.20002231118E+007,  0.19000000000E+002,  0.00000000000E+000,  0.10000000000E+001
  0.17812906500E+008,  0.20002238083E+007,  0.19000000000E+002,  0.00000000000E+000,  0.10000000000E+001
  0.17812908500E+008,  0.20002245044E+007,  0.19000000000E+002,  0.00000000000E+000,  0.10000000000E+001
  0.17812910500E+008,  0.20002252000E+007,  0.19000000000E+002,  0.00000000000E+000,  0.10000000000E+001
  0.17812912500E+008,  0.20002258951E+007,  0.19000000000E+002,  0.00000000000E+000,  0.10000000000E+001
  0.17812914500E+008,  0.20002265897E+007,  0.19000000000E+002,  0.00000000000E+000,  0.10000000000E+001
  0.17812916500E+008,  0.20002272838E+007,  0.19000000000E+002,  0.00000000000E+000,  0.10000000000E+001
  0.17812918500E+008,  0.20002279774E+007,  0.19000000000E+002,  0.00000000000E+000,  0.10000000000E+001
  0.17812920500E+008,  0.20002286705E+007,  0.19000000000E+002,  0.00000000000E+000,  0.10000000000E+001
  0.17812922500E+008,  0.20002293631E+007,  0.19000000000E+002,  0.00000000000E+000,  0.10000000000E+001
  0.17812924500E+008,  0.20002300552E+007,  0.19000000000E+002,  0.00000000000E+000,  0.10000000000E+001
  0.17812926500E+008,  0.20002307468E+007,  0.19000000000E+002,  0.00000000000E+000,  0.10000000000E+001
  0.17812928500E+008,  0.20002314379E+007,  0.19000000000E+002,  0.00000000000E+000,  0.10000000000E+001
  0.17812930500E+008,  0.20002321284E+007,  0.19000000000E+002,  0.00000000000E+000,  0.10000000000E+001
  0.17812932500E+008,  0.20002328184E+007,  0.19000000000E+002,  0.00000000000E+000,  0.10000000000E+001
  0.17812934500E+008,  0.20002335078E+007,  0.19000000000E+002,  0.00000000000E+000,  0.10000000000E+001
  0.17812936500E+008,  0.20002341967E+007,  0.19000000000E+002,  0.00000000000E+000,  0.10000000000E+001
  0.17812938500E+008,  0.20002348850E+007,  0.19000000000E+002,  0.00000000000E+000,  0.10000000000E+001
  0.17812940500E+008,  0.20002355728E+007,  0.19000000000E+002,  0.00000000000E+000,  0.10000000000E+001
  0.17812942500E+008,  0.20002362601E+007,  0.19000000000E+002,  0.00000000000E+000,  0.10000000000E+001
  0.17812944500E+008,  0.20002369467E+007,  0.19000000000E+002,  0.00000000000E+000,  0.10000000000E+001
  0.17812946500E+008,  0.20002376328E+007,  0.19000000000E+002,  0.00000000000E+000,  0.10000000000E+001
  0.17812948500E+008,  0.20002383184E+007,  0.19000000000E+002,  0.00000000000E+000,  0.10000000000E+001
  0.17812950500E+008,  0.20002390033E+007,  0.19000000000E+002,  0.00000000000E+000,  0.10000000000E+001
  0.17812952500E+008,  0.20002396877E+007,  0.19000000000E+002,  0.00000000000E+000,  0.10000000000E+001
  0.17812954500E+008,  0.20002403715E+007,  0.19000000000E+002,  0.00000000000E+000,  0.10000000000E+001
  0.17812956500E+008,  0.20002410547E+007,  0.19000000000E+002,  0.00000000000E+000,  0.10000000000E+001
  0.17812958500E+008,  0.20002417374E+007,  0.19000000000E+002,  0.00000000000E+000,  0.10000000000E+001
  0.17812960500E+008,  0.20002424194E+007,  0.19000000000E+002,  0.00000000000E+000,  0.10000000000E+001
  0.17812962500E+008,  0.20002431008E+007,  0.19000000000E+002,  0.00000000000E+000,  0.10000000000E+001
  0.17812964500E+008,  0.20002437817E+007,  0.19000000000E+002,  0.00000000000E+000,  0.10000000000E+001
  0.17812966500E+008,  0.20002444619E+007,  0.19000000000E+002,  0.00000000000E+000,  0.10000000000E+001
  0.17812968500E+008,  0.20002451416E+007,  0.19000000000E+002,  0.00000000000E+000,  0.10000000000E+001
  0.17812970500E+008,  0.20002458206E+007,  0.19000000000E+002,  0.00000000000E+000,  0.10000000000E+001
  0.17812972500E+008,  0.20002464991E+007,  0.19000000000E+002,  0.00000000000E+000,  0.10000000000E+001
  0.17812974500E+008,  0.20002471769E+007,  0.19000000000E+002,  0.00000000000E+000,  0.10000000000E+001
  0.17812976500E+008,  0.20002478541E+007,  0.19000000000E+002,  0.00000000000E+000,  0.10000000000E+001
