"           TIME(S)","              PRES","              TEMP","             SAT_G","             SAT_L"
  0.18228740000E+008,  0.20000083675E+007,  0.19000000000E+002,  0.00000000000E+000,  0.10000000000E+001
  0.18228890000E+008,  0.20000743822E+007,  0.19000000000E+002,  0.00000000000E+000,  0.10000000000E+001
  0.18229040000E+008,  0.20001269466E+007,  0.19000000000E+002,  0.00000000000E+000,  0.10000000000E+001
  0.18229190000E+008,  0.20001619912E+007,  0.19000000000E+002,  0.00000000000E+000,  0.10000000000E+001
  0.18229340000E+008,  0.20001848856E+007,  0.19000000000E+002,  0.00000000000E+000,  0.10000000000E+001
  0.18229490000E+008,  0.20002003689E+007,  0.19000000000E+002,  0.00000000000E+000,  0.10000000000E+001
  0.18229640000E+008,  0.20002114473E+007,  0.19000000000E+002,  0.00000000000E+000,  0.10000000000E+001
  0.18229790000E+008,  0.20002198995E+007,  0.19000000000E+002,  0.00000000000E+000,  0.10000000000E+001
  0.18229940000E+008,  0.20002267710E+007,  0.19000000000E+002,  0.00000000000E+000,  0.10000000000E+001
  0.18230090000E+008,  0.20002326825E+007,  0.19000000000E+002,  0.00000000000E+000,  0.10000000000E+001
  0.18230240000E+008,  0.20002380062E+007,  0.19000000000E+002,  0.00000000000E+000,  0.10000000000E+001
  0.18230315000E+008,  0.20002405561E+007,  0.19000000000E+002,  0.00000000000E+000,  0.10000000000E+001
  0.18230465000E+008,  0.20002453745E+007,  0.19000000000E+002,  0.00000000000E+000,  0.10000000000E+001
  0.18230615000E+008,  0.20002500104E+007,  0.19000000000E+002,  0.00000000000E+000,  0.10000000000E+001
  0.18230765000E+008,  0.20002545229E+007,  0.19000000000E+002,  0.00000000000E+000,  0.10000000000E+001
  0.18230915000E+008,  0.20002589488E+007,  0.19000000000E+002,  0.00000000000E+000,  0.10000000000E+001
  0.18231065000E+008,  0.20002633108E+007,  0.19000000000E+002,  0.00000000000E+000,  0.10000000000E+001
  0.18231215000E+008,  0.20002676240E+007,  0.19000000000E+002,  0.00000000000E+000,  0.10000000000E+001
  0.18231365000E+008,  0.20002718974E+007,  0.19000000000E+002,  0.00000000000E+000,  0.10000000000E+001
  0.18231515000E+008,  0.20002761367E+007,  0.19000000000E+002,  0.00000000000E+000,  0.10000000000E+001
  0.18231665000E+008,  0.20002803449E+007,  0.19000000000E+002,  0.00000000000E+000,  0.10000000000E+001
  0.18231815000E+008,  0.20002845233E+007,  0.19000000000E+002,  0.00000000000E+000,  0.10000000000E+001
  0.18231965000E+008,  0.20002886722E+007,  0.19000000000E+002,  0.00000000000E+000,  0.10000000000E+001
  0.18232115000E+008,  0.20002927912E+007,  0.19000000000E+002,  0.00000000000E+000,  0.10000000000E+001
  0.18232265000E+008,  0.20002968796E+007,  0.19000000000E+002,  0.00000000000E+000,  0.10000000000E+001
  0.18232415000E+008,  0.20003009366E+007,  0.19000000000E+002,  0.00000000000E+000,  0.10000000000E+001
  0.18232565000E+008,  0.20003049615E+007,  0.19000000000E+002,  0.00000000000E+000,  0.10000000000E+001
  0.18232715000E+008,  0.20003089536E+007,  0.19000000000E+002,  0.00000000000E+000,  0.10000000000E+001
  0.18232865000E+008,  0.20003129125E+007,  0.19000000000E+002,  0.00000000000E+000,  0.10000000000E+001
  0.18233015000E+008,  0.20003168377E+007,  0.19000000000E+002,  0.00000000000E+000,  0.10000000000E+001
  0.18233165000E+008,  0.20003207293E+007,  0.19000000000E+002,  0.00000000000E+000,  0.10000000000E+001
  0.18233315000E+008,  0.20003245871E+007,  0.19000000000E+002,  0.00000000000E+000,  0.10000000000E+001
  0.18233465000E+008,  0.20003284112E+007,  0.19000000000E+002,  0.00000000000E+000,  0.10000000000E+001
  0.18233615000E+008,  0.20003322018E+007,  0.19000000000E+002,  0.00000000000E+000,  0.10000000000E+001
  0.18233765000E+008,  0.20003359594E+007,  0.19000000000E+002,  0.00000000000E+000,  0.10000000000E+001
  0.18233915000E+008,  0.20003396843E+007,  0.19000000000E+002,  0.00000000000E+000,  0.10000000000E+001
  0.18234065000E+008,  0.20003433770E+007,  0.19000000000E+002,  0.00000000000E+000,  0.10000000000E+001
  0.18234215000E+008,  0.20003470379E+007,  0.19000000000E+002,  0.00000000000E+000,  0.10000000000E+001
  0.18234365000E+008,  0.20003506677E+007,  0.19000000000E+002,  0.00000000000E+000,  0.10000000000E+001
  0.18234440001E+008,  0.20003524748E+007,  0.19000000000E+002,  0.00000000000E+000,  0.10000000000E+001
  0.18234477501E+008,  0.20003533765E+007,  0.19000000000E+002,  0.00000000000E+000,  0.10000000000E+001
  0.18234627501E+008,  0.20003569504E+007,  0.19000000000E+002,  0.00000000000E+000,  0.10000000000E+001
  0.18234777501E+008,  0.20003604895E+007,  0.19000000000E+002,  0.00000000000E+000,  0.10000000000E+001
  0.18234927501E+008,  0.20003639916E+007,  0.19000000000E+002,  0.00000000000E+000,  0.10000000000E+001
  0.18235077501E+008,  0.20003674557E+007,  0.19000000000E+002,  0.00000000000E+000,  0.10000000000E+001
  0.18235152502E+008,  0.20003691783E+007,  0.19000000000E+002,  0.00000000000E+000,  0.10000000000E+001
  0.18235302502E+008,  0.20003725855E+007,  0.19000000000E+002,  0.00000000000E+000,  0.10000000000E+001
  0.18235452502E+008,  0.20003759550E+007,  0.19000000000E+002,  0.00000000000E+000,  0.10000000000E+001
  0.18235602502E+008,  0.20003792875E+007,  0.19000000000E+002,  0.00000000000E+000,  0.10000000000E+001
  0.18235752502E+008,  0.20003825838E+007,  0.19000000000E+002,  0.00000000000E+000,  0.10000000000E+001
  0.18235902502E+008,  0.20003858455E+007,  0.19000000000E+002,  0.00000000000E+000,  0.10000000000E+001
  0.18236052502E+008,  0.20003890743E+007,  0.19000000000E+002,  0.00000000000E+000,  0.10000000000E+001
  0.18236202502E+008,  0.20003922723E+007,  0.19000000000E+002,  0.00000000000E+000,  0.10000000000E+001
  0.18236352502E+008,  0.20003954416E+007,  0.19000000000E+002,  0.00000000000E+000,  0.10000000000E+001
  0.18236502502E+008,  0.20003985843E+007,  0.19000000000E+002,  0.00000000000E+000,  0.10000000000E+001
  0.18236652502E+008,  0.20004017020E+007,  0.19000000000E+002,  0.00000000000E+000,  0.10000000000E+001
  0.18236802502E+008,  0.20004047966E+007,  0.19000000000E+002,  0.00000000000E+000,  0.10000000000E+001
  0.18236952502E+008,  0.20004078694E+007,  0.19000000000E+002,  0.00000000000E+000,  0.10000000000E+001
  0.18237102502E+008,  0.20004109216E+007,  0.19000000000E+002,  0.00000000000E+000,  0.10000000000E+001
  0.18237252502E+008,  0.20004139545E+007,  0.19000000000E+002,  0.00000000000E+000,  0.10000000000E+001
  0.18237402502E+008,  0.20004169690E+007,  0.19000000000E+002,  0.00000000000E+000,  0.10000000000E+001
  0.18237552502E+008,  0.20004199658E+007,  0.19000000000E+002,  0.00000000000E+000,  0.10000000000E+001
  0.18237702502E+008,  0.20004229458E+007,  0.19000000000E+002,  0.00000000000E+000,  0.10000000000E+001
  0.18237852502E+008,  0.20004259097E+007,  0.19000000000E+002,  0.00000000000E+000,  0.10000000000E+001
  0.18238002502E+008,  0.20004288581E+007,  0.19000000000E+002,  0.00000000000E+000,  0.10000000000E+001
  0.18238152502E+008,  0.20004317915E+007,  0.19000000000E+002,  0.00000000000E+000,  0.10000000000E+001
  0.18238302502E+008,  0.20004347105E+007,  0.19000000000E+002,  0.00000000000E+000,  0.10000000000E+001
  0.18238452502E+008,  0.20004376157E+007,  0.19000000000E+002,  0.00000000000E+000,  0.10000000000E+001
  0.18238602502E+008,  0.20004405074E+007,  0.19000000000E+002,  0.00000000000E+000,  0.10000000000E+001
  0.18238752502E+008,  0.20004433862E+007,  0.19000000000E+002,  0.00000000000E+000,  0.10000000000E+001
  0.18238902502E+008,  0.20004462526E+007,  0.19000000000E+002,  0.00000000000E+000,  0.10000000000E+001
  0.18239052502E+008,  0.20004491068E+007,  0.19000000000E+002,  0.00000000000E+000,  0.10000000000E+001
  0.18239202502E+008,  0.20004519494E+007,  0.19000000000E+002,  0.00000000000E+000,  0.10000000000E+001
  0.18239352502E+008,  0.20004547807E+007,  0.19000000000E+002,  0.00000000000E+000,  0.10000000000E+001
  0.18239502502E+008,  0.20004576011E+007,  0.19000000000E+002,  0.00000000000E+000,  0.10000000000E+001
  0.18239652502E+008,  0.20004604108E+007,  0.19000000000E+002,  0.00000000000E+000,  0.10000000000E+001
  0.18239802502E+008,  0.20004632104E+007,  0.19000000000E+002,  0.00000000000E+000,  0.10000000000E+001
  0.18239952502E+008,  0.20004660000E+007,  0.19000000000E+002,  0.00000000000E+000,  0.10000000000E+001
  0.18240102502E+008,  0.20004687799E+007,  0.19000000000E+002,  0.00000000000E+000,  0.10000000000E+001
  0.18240252502E+008,  0.20004715505E+007,  0.19000000000E+002,  0.00000000000E+000,  0.10000000000E+001
  0.18240402502E+008,  0.20004743121E+007,  0.19000000000E+002,  0.00000000000E+000,  0.10000000000E+001
  0.18240552502E+008,  0.20004770648E+007,  0.19000000000E+002,  0.00000000000E+000,  0.10000000000E+001
  0.18240702502E+008,  0.20004798090E+007,  0.19000000000E+002,  0.00000000000E+000,  0.10000000000E+001
  0.18240852502E+008,  0.20004825449E+007,  0.19000000000E+002,  0.00000000000E+000,  0.10000000000E+001
  0.18241002502E+008,  0.20004852728E+007,  0.19000000000E+002,  0.00000000000E+000,  0.10000000000E+001
  0.18241152502E+008,  0.20004879928E+007,  0.19000000000E+002,  0.00000000000E+000,  0.10000000000E+001
  0.18241302502E+008,  0.20004907051E+007,  0.19000000000E+002,  0.00000000000E+000,  0.10000000000E+001
  0.18241452502E+008,  0.20004934100E+007,  0.19000000000E+002,  0.00000000000E+000,  0.10000000000E+001
  0.18241602502E+008,  0.20004961078E+007,  0.19000000000E+002,  0.00000000000E+000,  0.10000000000E+001
  0.18241752502E+008,  0.20004987984E+007,  0.19000000000E+002,  0.00000000000E+000,  0.10000000000E+001
  0.18241902502E+008,  0.20005014822E+007,  0.19000000000E+002,  0.00000000000E+000,  0.10000000000E+001
  0.18242052502E+008,  0.20005041594E+007,  0.19000000000E+002,  0.00000000000E+000,  0.10000000000E+001
  0.18242202502E+008,  0.20005068301E+007,  0.19000000000E+002,  0.00000000000E+000,  0.10000000000E+001
  0.18242352502E+008,  0.20005094944E+007,  0.19000000000E+002,  0.00000000000E+000,  0.10000000000E+001
  0.18242502502E+008,  0.20005121525E+007,  0.19000000000E+002,  0.00000000000E+000,  0.10000000000E+001
  0.18242652502E+008,  0.20005148047E+007,  0.19000000000E+002,  0.00000000000E+000,  0.10000000000E+001
  0.18242802502E+008,  0.20005174509E+007,  0.19000000000E+002,  0.00000000000E+000,  0.10000000000E+001
  0.18242952502E+008,  0.20005200915E+007,  0.19000000000E+002,  0.00000000000E+000,  0.10000000000E+001
  0.18243102502E+008,  0.20005227265E+007,  0.19000000000E+002,  0.00000000000E+000,  0.10000000000E+001
  0.18243252502E+008,  0.20005253560E+007,  0.19000000000E+002,  0.00000000000E+000,  0.10000000000E+001
  0.18243402502E+008,  0.20005279802E+007,  0.19000000000E+002,  0.00000000000E+000,  0.10000000000E+001
  0.18243552502E+008,  0.20005305992E+007,  0.19000000000E+002,  0.00000000000E+000,  0.10000000000E+001
  0.18243702502E+008,  0.20005332133E+007,  0.19000000000E+002,  0.00000000000E+000,  0.10000000000E+001
  0.18243777502E+008,  0.20005345190E+007,  0.19000000000E+002,  0.00000000000E+000,  0.10000000000E+001
  0.18243927502E+008,  0.20005371253E+007,  0.19000000000E+002,  0.00000000000E+000,  0.10000000000E+001
  0.18244077502E+008,  0.20005397260E+007,  0.19000000000E+002,  0.00000000000E+000,  0.10000000000E+001
  0.18244152503E+008,  0.20005410250E+007,  0.19000000000E+002,  0.00000000000E+000,  0.10000000000E+001
  0.18244302503E+008,  0.20005436161E+007,  0.19000000000E+002,  0.00000000000E+000,  0.10000000000E+001
  0.18244377503E+008,  0.20005449099E+007,  0.19000000000E+002,  0.00000000000E+000,  0.10000000000E+001
  0.18244527503E+008,  0.20005474885E+007,  0.19000000000E+002,  0.00000000000E+000,  0.10000000000E+001
  0.18244677503E+008,  0.20005500560E+007,  0.19000000000E+002,  0.00000000000E+000,  0.10000000000E+001
  0.18244827503E+008,  0.20005526108E+007,  0.19000000000E+002,  0.00000000000E+000,  0.10000000000E+001
  0.18244977503E+008,  0.20005551518E+007,  0.19000000000E+002,  0.00000000000E+000,  0.10000000000E+001
  0.18245127503E+008,  0.20005576783E+007,  0.19000000000E+002,  0.00000000000E+000,  0.10000000000E+001
  0.18245202504E+008,  0.20005589379E+007,  0.19000000000E+002,  0.00000000000E+000,  0.10000000000E+001
  0.18245352504E+008,  0.20005614430E+007,  0.19000000000E+002,  0.00000000000E+000,  0.10000000000E+001
  0.18245502504E+008,  0.20005639342E+007,  0.19000000000E+002,  0.00000000000E+000,  0.10000000000E+001
  0.18245652504E+008,  0.20005664121E+007,  0.19000000000E+002,  0.00000000000E+000,  0.10000000000E+001
  0.18245802504E+008,  0.20005688775E+007,  0.19000000000E+002,  0.00000000000E+000,  0.10000000000E+001
  0.18245952504E+008,  0.20005713313E+007,  0.19000000000E+002,  0.00000000000E+000,  0.10000000000E+001
  0.18246102504E+008,  0.20005737745E+007,  0.19000000000E+002,  0.00000000000E+000,  0.10000000000E+001
  0.18246252504E+008,  0.20005762081E+007,  0.19000000000E+002,  0.00000000000E+000,  0.10000000000E+001
  0.18246402504E+008,  0.20005786330E+007,  0.19000000000E+002,  0.00000000000E+000,  0.10000000000E+001
  0.18246477504E+008,  0.20005798434E+007,  0.19000000000E+002,  0.00000000000E+000,  0.10000000000E+001
  0.18246627504E+008,  0.20005822566E+007,  0.19000000000E+002,  0.00000000000E+000,  0.10000000000E+001
  0.18246777504E+008,  0.20005846623E+007,  0.19000000000E+002,  0.00000000000E+000,  0.10000000000E+001
  0.18246927504E+008,  0.20005870607E+007,  0.19000000000E+002,  0.00000000000E+000,  0.10000000000E+001
  0.18247077504E+008,  0.20005894518E+007,  0.19000000000E+002,  0.00000000000E+000,  0.10000000000E+001
  0.18247227504E+008,  0.20005918360E+007,  0.19000000000E+002,  0.00000000000E+000,  0.10000000000E+001
  0.18247377504E+008,  0.20005942137E+007,  0.19000000000E+002,  0.00000000000E+000,  0.10000000000E+001
  0.18247527504E+008,  0.20005965854E+007,  0.19000000000E+002,  0.00000000000E+000,  0.10000000000E+001
  0.18247677504E+008,  0.20005989517E+007,  0.19000000000E+002,  0.00000000000E+000,  0.10000000000E+001
  0.18247827504E+008,  0.20006013132E+007,  0.19000000000E+002,  0.00000000000E+000,  0.10000000000E+001
  0.18247977504E+008,  0.20006036705E+007,  0.19000000000E+002,  0.00000000000E+000,  0.10000000000E+001
  0.18248127504E+008,  0.20006060243E+007,  0.19000000000E+002,  0.00000000000E+000,  0.10000000000E+001
  0.18248277504E+008,  0.20006083750E+007,  0.19000000000E+002,  0.00000000000E+000,  0.10000000000E+001
  0.18248427504E+008,  0.20006107233E+007,  0.19000000000E+002,  0.00000000000E+000,  0.10000000000E+001
  0.18248577504E+008,  0.20006130696E+007,  0.19000000000E+002,  0.00000000000E+000,  0.10000000000E+001
  0.18248727504E+008,  0.20006154145E+007,  0.19000000000E+002,  0.00000000000E+000,  0.10000000000E+001
  0.18248877504E+008,  0.20006177583E+007,  0.19000000000E+002,  0.00000000000E+000,  0.10000000000E+001
  0.18249027504E+008,  0.20006201017E+007,  0.19000000000E+002,  0.00000000000E+000,  0.10000000000E+001
  0.18249177504E+008,  0.20006224451E+007,  0.19000000000E+002,  0.00000000000E+000,  0.10000000000E+001
  0.18249327504E+008,  0.20006247888E+007,  0.19000000000E+002,  0.00000000000E+000,  0.10000000000E+001
  0.18249477504E+008,  0.20006271331E+007,  0.19000000000E+002,  0.00000000000E+000,  0.10000000000E+001
  0.18249627504E+008,  0.20006294784E+007,  0.19000000000E+002,  0.00000000000E+000,  0.10000000000E+001
  0.18249777504E+008,  0.20006318250E+007,  0.19000000000E+002,  0.00000000000E+000,  0.10000000000E+001
  0.18249927504E+008,  0.20006341731E+007,  0.19000000000E+002,  0.00000000000E+000,  0.10000000000E+001
  0.18250077504E+008,  0.20006365228E+007,  0.19000000000E+002,  0.00000000000E+000,  0.10000000000E+001
  0.18250227504E+008,  0.20006388744E+007,  0.19000000000E+002,  0.00000000000E+000,  0.10000000000E+001
  0.18250377504E+008,  0.20006412280E+007,  0.19000000000E+002,  0.00000000000E+000,  0.10000000000E+001
  0.18250527504E+008,  0.20006435836E+007,  0.19000000000E+002,  0.00000000000E+000,  0.10000000000E+001
  0.18250677504E+008,  0.20006459415E+007,  0.19000000000E+002,  0.00000000000E+000,  0.10000000000E+001
  0.18250827504E+008,  0.20006483015E+007,  0.19000000000E+002,  0.00000000000E+000,  0.10000000000E+001
  0.18250977504E+008,  0.20006506639E+007,  0.19000000000E+002,  0.00000000000E+000,  0.10000000000E+001
  0.18251127504E+008,  0.20006530287E+007,  0.19000000000E+002,  0.00000000000E+000,  0.10000000000E+001
  0.18251277504E+008,  0.20006553958E+007,  0.19000000000E+002,  0.00000000000E+000,  0.10000000000E+001
  0.18251427504E+008,  0.20006577653E+007,  0.19000000000E+002,  0.00000000000E+000,  0.10000000000E+001
  0.18251577504E+008,  0.20006601372E+007,  0.19000000000E+002,  0.00000000000E+000,  0.10000000000E+001
  0.18251727504E+008,  0.20006625115E+007,  0.19000000000E+002,  0.00000000000E+000,  0.10000000000E+001
  0.18251877504E+008,  0.20006648882E+007,  0.19000000000E+002,  0.00000000000E+000,  0.10000000000E+001
  0.18252027504E+008,  0.20006672672E+007,  0.19000000000E+002,  0.00000000000E+000,  0.10000000000E+001
  0.18252177504E+008,  0.20006696487E+007,  0.19000000000E+002,  0.00000000000E+000,  0.10000000000E+001
  0.18252327504E+008,  0.20006720324E+007,  0.19000000000E+002,  0.00000000000E+000,  0.10000000000E+001
  0.18252477504E+008,  0.20006744185E+007,  0.19000000000E+002,  0.00000000000E+000,  0.10000000000E+001
  0.18252627504E+008,  0.20006768069E+007,  0.19000000000E+002,  0.00000000000E+000,  0.10000000000E+001
  0.18252777504E+008,  0.20006791974E+007,  0.19000000000E+002,  0.00000000000E+000,  0.10000000000E+001
  0.18252927504E+008,  0.20006815902E+007,  0.19000000000E+002,  0.00000000000E+000,  0.10000000000E+001
  0.18253077504E+008,  0.20006839853E+007,  0.19000000000E+002,  0.00000000000E+000,  0.10000000000E+001
  0.18253227504E+008,  0.20006863824E+007,  0.19000000000E+002,  0.00000000000E+000,  0.10000000000E+001
  0.18253377504E+008,  0.20006887817E+007,  0.19000000000E+002,  0.00000000000E+000,  0.10000000000E+001
  0.18253527504E+008,  0.20006911832E+007,  0.19000000000E+002,  0.00000000000E+000,  0.10000000000E+001
  0.18253677504E+008,  0.20006935868E+007,  0.19000000000E+002,  0.00000000000E+000,  0.10000000000E+001
  0.18253752505E+008,  0.20006947892E+007,  0.19000000000E+002,  0.00000000000E+000,  0.10000000000E+001
  0.18253902505E+008,  0.20006971959E+007,  0.19000000000E+002,  0.00000000000E+000,  0.10000000000E+001
  0.18254052505E+008,  0.20006996042E+007,  0.19000000000E+002,  0.00000000000E+000,  0.10000000000E+001
  0.18254202505E+008,  0.20007020136E+007,  0.19000000000E+002,  0.00000000000E+000,  0.10000000000E+001
  0.18254352505E+008,  0.20007044233E+007,  0.19000000000E+002,  0.00000000000E+000,  0.10000000000E+001
  0.18254502505E+008,  0.20007068333E+007,  0.19000000000E+002,  0.00000000000E+000,  0.10000000000E+001
  0.18254652505E+008,  0.20007092431E+007,  0.19000000000E+002,  0.00000000000E+000,  0.10000000000E+001
  0.18254802505E+008,  0.20007116528E+007,  0.19000000000E+002,  0.00000000000E+000,  0.10000000000E+001
  0.18254952505E+008,  0.20007140626E+007,  0.19000000000E+002,  0.00000000000E+000,  0.10000000000E+001
  0.18255102505E+008,  0.20007164723E+007,  0.19000000000E+002,  0.00000000000E+000,  0.10000000000E+001
  0.18255252505E+008,  0.20007188824E+007,  0.19000000000E+002,  0.00000000000E+000,  0.10000000000E+001
  0.18255402505E+008,  0.20007212929E+007,  0.19000000000E+002,  0.00000000000E+000,  0.10000000000E+001
  0.18255552505E+008,  0.20007237041E+007,  0.19000000000E+002,  0.00000000000E+000,  0.10000000000E+001
  0.18255702505E+008,  0.20007261160E+007,  0.19000000000E+002,  0.00000000000E+000,  0.10000000000E+001
  0.18255852505E+008,  0.20007285289E+007,  0.19000000000E+002,  0.00000000000E+000,  0.10000000000E+001
  0.18256002505E+008,  0.20007309430E+007,  0.19000000000E+002,  0.00000000000E+000,  0.10000000000E+001
  0.18256152505E+008,  0.20007333583E+007,  0.19000000000E+002,  0.00000000000E+000,  0.10000000000E+001
