"           TIME(S)","              PRES","              TEMP","             SAT_G","             SAT_L"
  0.18228740000E+008,  0.20000000405E+007,  0.19000000000E+002,  0.00000000000E+000,  0.10000000000E+001
  0.18228890000E+008,  0.20000038787E+007,  0.19000000000E+002,  0.00000000000E+000,  0.10000000000E+001
  0.18229040000E+008,  0.20000113787E+007,  0.19000000000E+002,  0.00000000000E+000,  0.10000000000E+001
  0.18229190000E+008,  0.20000210492E+007,  0.19000000000E+002,  0.00000000000E+000,  0.10000000000E+001
  0.18229340000E+008,  0.20000315174E+007,  0.19000000000E+002,  0.00000000000E+000,  0.10000000000E+001
  0.18229490000E+008,  0.20000419611E+007,  0.19000000000E+002,  0.00000000000E+000,  0.10000000000E+001
  0.18229640000E+008,  0.20000520087E+007,  0.19000000000E+002,  0.00000000000E+000,  0.10000000000E+001
  0.18229790000E+008,  0.20000615498E+007,  0.19000000000E+002,  0.00000000000E+000,  0.10000000000E+001
  0.18229940000E+008,  0.20000705978E+007,  0.19000000000E+002,  0.00000000000E+000,  0.10000000000E+001
  0.18230090000E+008,  0.20000792123E+007,  0.19000000000E+002,  0.00000000000E+000,  0.10000000000E+001
  0.18230240000E+008,  0.20000874560E+007,  0.19000000000E+002,  0.00000000000E+000,  0.10000000000E+001
  0.18230315000E+008,  0.20000914890E+007,  0.19000000000E+002,  0.00000000000E+000,  0.10000000000E+001
  0.18230465000E+008,  0.20000992039E+007,  0.19000000000E+002,  0.00000000000E+000,  0.10000000000E+001
  0.18230615000E+008,  0.20001066052E+007,  0.19000000000E+002,  0.00000000000E+000,  0.10000000000E+001
  0.18230765000E+008,  0.20001137531E+007,  0.19000000000E+002,  0.00000000000E+000,  0.10000000000E+001
  0.18230915000E+008,  0.20001207075E+007,  0.19000000000E+002,  0.00000000000E+000,  0.10000000000E+001
  0.18231065000E+008,  0.20001275164E+007,  0.19000000000E+002,  0.00000000000E+000,  0.10000000000E+001
  0.18231215000E+008,  0.20001342134E+007,  0.19000000000E+002,  0.00000000000E+000,  0.10000000000E+001
  0.18231365000E+008,  0.20001408199E+007,  0.19000000000E+002,  0.00000000000E+000,  0.10000000000E+001
  0.18231515000E+008,  0.20001473487E+007,  0.19000000000E+002,  0.00000000000E+000,  0.10000000000E+001
  0.18231665000E+008,  0.20001538066E+007,  0.19000000000E+002,  0.00000000000E+000,  0.10000000000E+001
  0.18231815000E+008,  0.20001601974E+007,  0.19000000000E+002,  0.00000000000E+000,  0.10000000000E+001
  0.18231965000E+008,  0.20001665228E+007,  0.19000000000E+002,  0.00000000000E+000,  0.10000000000E+001
  0.18232115000E+008,  0.20001727840E+007,  0.19000000000E+002,  0.00000000000E+000,  0.10000000000E+001
  0.18232265000E+008,  0.20001789819E+007,  0.19000000000E+002,  0.00000000000E+000,  0.10000000000E+001
  0.18232415000E+008,  0.20001851173E+007,  0.19000000000E+002,  0.00000000000E+000,  0.10000000000E+001
  0.18232565000E+008,  0.20001911913E+007,  0.19000000000E+002,  0.00000000000E+000,  0.10000000000E+001
  0.18232715000E+008,  0.20001972052E+007,  0.19000000000E+002,  0.00000000000E+000,  0.10000000000E+001
  0.18232865000E+008,  0.20002031602E+007,  0.19000000000E+002,  0.00000000000E+000,  0.10000000000E+001
  0.18233015000E+008,  0.20002090579E+007,  0.19000000000E+002,  0.00000000000E+000,  0.10000000000E+001
  0.18233165000E+008,  0.20002148997E+007,  0.19000000000E+002,  0.00000000000E+000,  0.10000000000E+001
  0.18233315000E+008,  0.20002206873E+007,  0.19000000000E+002,  0.00000000000E+000,  0.10000000000E+001
  0.18233465000E+008,  0.20002264223E+007,  0.19000000000E+002,  0.00000000000E+000,  0.10000000000E+001
  0.18233615000E+008,  0.20002321063E+007,  0.19000000000E+002,  0.00000000000E+000,  0.10000000000E+001
  0.18233765000E+008,  0.20002377409E+007,  0.19000000000E+002,  0.00000000000E+000,  0.10000000000E+001
  0.18233915000E+008,  0.20002433275E+007,  0.19000000000E+002,  0.00000000000E+000,  0.10000000000E+001
  0.18234065000E+008,  0.20002488677E+007,  0.19000000000E+002,  0.00000000000E+000,  0.10000000000E+001
  0.18234215000E+008,  0.20002543630E+007,  0.19000000000E+002,  0.00000000000E+000,  0.10000000000E+001
  0.18234365000E+008,  0.20002598121E+007,  0.19000000000E+002,  0.00000000000E+000,  0.10000000000E+001
  0.18234440001E+008,  0.20002625242E+007,  0.19000000000E+002,  0.00000000000E+000,  0.10000000000E+001
  0.18234477501E+008,  0.20002638768E+007,  0.19000000000E+002,  0.00000000000E+000,  0.10000000000E+001
  0.18234627501E+008,  0.20002692027E+007,  0.19000000000E+002,  0.00000000000E+000,  0.10000000000E+001
  0.18234777501E+008,  0.20002744301E+007,  0.19000000000E+002,  0.00000000000E+000,  0.10000000000E+001
  0.18234927501E+008,  0.20002795652E+007,  0.19000000000E+002,  0.00000000000E+000,  0.10000000000E+001
  0.18235077501E+008,  0.20002846226E+007,  0.19000000000E+002,  0.00000000000E+000,  0.10000000000E+001
  0.18235152502E+008,  0.20002871338E+007,  0.19000000000E+002,  0.00000000000E+000,  0.10000000000E+001
  0.18235302502E+008,  0.20002920867E+007,  0.19000000000E+002,  0.00000000000E+000,  0.10000000000E+001
  0.18235452502E+008,  0.20002969714E+007,  0.19000000000E+002,  0.00000000000E+000,  0.10000000000E+001
  0.18235602502E+008,  0.20003017950E+007,  0.19000000000E+002,  0.00000000000E+000,  0.10000000000E+001
  0.18235752502E+008,  0.20003065679E+007,  0.19000000000E+002,  0.00000000000E+000,  0.10000000000E+001
  0.18235902502E+008,  0.20003113007E+007,  0.19000000000E+002,  0.00000000000E+000,  0.10000000000E+001
  0.18236052502E+008,  0.20003160031E+007,  0.19000000000E+002,  0.00000000000E+000,  0.10000000000E+001
  0.18236202502E+008,  0.20003206825E+007,  0.19000000000E+002,  0.00000000000E+000,  0.10000000000E+001
  0.18236352502E+008,  0.20003253444E+007,  0.19000000000E+002,  0.00000000000E+000,  0.10000000000E+001
  0.18236502502E+008,  0.20003299924E+007,  0.19000000000E+002,  0.00000000000E+000,  0.10000000000E+001
  0.18236652502E+008,  0.20003346285E+007,  0.19000000000E+002,  0.00000000000E+000,  0.10000000000E+001
  0.18236802502E+008,  0.20003392538E+007,  0.19000000000E+002,  0.00000000000E+000,  0.10000000000E+001
  0.18236952502E+008,  0.20003438686E+007,  0.19000000000E+002,  0.00000000000E+000,  0.10000000000E+001
  0.18237102502E+008,  0.20003484727E+007,  0.19000000000E+002,  0.00000000000E+000,  0.10000000000E+001
  0.18237252502E+008,  0.20003530657E+007,  0.19000000000E+002,  0.00000000000E+000,  0.10000000000E+001
  0.18237402502E+008,  0.20003576470E+007,  0.19000000000E+002,  0.00000000000E+000,  0.10000000000E+001
  0.18237552502E+008,  0.20003622161E+007,  0.19000000000E+002,  0.00000000000E+000,  0.10000000000E+001
  0.18237702502E+008,  0.20003667726E+007,  0.19000000000E+002,  0.00000000000E+000,  0.10000000000E+001
  0.18237852502E+008,  0.20003713160E+007,  0.19000000000E+002,  0.00000000000E+000,  0.10000000000E+001
  0.18238002502E+008,  0.20003758460E+007,  0.19000000000E+002,  0.00000000000E+000,  0.10000000000E+001
  0.18238152502E+008,  0.20003803625E+007,  0.19000000000E+002,  0.00000000000E+000,  0.10000000000E+001
  0.18238302502E+008,  0.20003848653E+007,  0.19000000000E+002,  0.00000000000E+000,  0.10000000000E+001
  0.18238452502E+008,  0.20003893544E+007,  0.19000000000E+002,  0.00000000000E+000,  0.10000000000E+001
  0.18238602502E+008,  0.20003938299E+007,  0.19000000000E+002,  0.00000000000E+000,  0.10000000000E+001
  0.18238752502E+008,  0.20003982918E+007,  0.19000000000E+002,  0.00000000000E+000,  0.10000000000E+001
  0.18238902502E+008,  0.20004027404E+007,  0.19000000000E+002,  0.00000000000E+000,  0.10000000000E+001
  0.18239052502E+008,  0.20004071757E+007,  0.19000000000E+002,  0.00000000000E+000,  0.10000000000E+001
  0.18239202502E+008,  0.20004115980E+007,  0.19000000000E+002,  0.00000000000E+000,  0.10000000000E+001
  0.18239352502E+008,  0.20004160075E+007,  0.19000000000E+002,  0.00000000000E+000,  0.10000000000E+001
  0.18239502502E+008,  0.20004204044E+007,  0.19000000000E+002,  0.00000000000E+000,  0.10000000000E+001
  0.18239652502E+008,  0.20004247891E+007,  0.19000000000E+002,  0.00000000000E+000,  0.10000000000E+001
  0.18239802502E+008,  0.20004291617E+007,  0.19000000000E+002,  0.00000000000E+000,  0.10000000000E+001
  0.18239952502E+008,  0.20004335226E+007,  0.19000000000E+002,  0.00000000000E+000,  0.10000000000E+001
  0.18240102502E+008,  0.20004378719E+007,  0.19000000000E+002,  0.00000000000E+000,  0.10000000000E+001
  0.18240252502E+008,  0.20004422100E+007,  0.19000000000E+002,  0.00000000000E+000,  0.10000000000E+001
  0.18240402502E+008,  0.20004465371E+007,  0.19000000000E+002,  0.00000000000E+000,  0.10000000000E+001
  0.18240552502E+008,  0.20004508535E+007,  0.19000000000E+002,  0.00000000000E+000,  0.10000000000E+001
  0.18240702502E+008,  0.20004551594E+007,  0.19000000000E+002,  0.00000000000E+000,  0.10000000000E+001
  0.18240852502E+008,  0.20004594551E+007,  0.19000000000E+002,  0.00000000000E+000,  0.10000000000E+001
  0.18241002502E+008,  0.20004637408E+007,  0.19000000000E+002,  0.00000000000E+000,  0.10000000000E+001
  0.18241152502E+008,  0.20004680168E+007,  0.19000000000E+002,  0.00000000000E+000,  0.10000000000E+001
  0.18241302502E+008,  0.20004722832E+007,  0.19000000000E+002,  0.00000000000E+000,  0.10000000000E+001
  0.18241452502E+008,  0.20004765404E+007,  0.19000000000E+002,  0.00000000000E+000,  0.10000000000E+001
  0.18241602502E+008,  0.20004807884E+007,  0.19000000000E+002,  0.00000000000E+000,  0.10000000000E+001
  0.18241752502E+008,  0.20004850277E+007,  0.19000000000E+002,  0.00000000000E+000,  0.10000000000E+001
  0.18241902502E+008,  0.20004892583E+007,  0.19000000000E+002,  0.00000000000E+000,  0.10000000000E+001
  0.18242052502E+008,  0.20004934804E+007,  0.19000000000E+002,  0.00000000000E+000,  0.10000000000E+001
  0.18242202502E+008,  0.20004976943E+007,  0.19000000000E+002,  0.00000000000E+000,  0.10000000000E+001
  0.18242352502E+008,  0.20005019002E+007,  0.19000000000E+002,  0.00000000000E+000,  0.10000000000E+001
  0.18242502502E+008,  0.20005060982E+007,  0.19000000000E+002,  0.00000000000E+000,  0.10000000000E+001
  0.18242652502E+008,  0.20005102886E+007,  0.19000000000E+002,  0.00000000000E+000,  0.10000000000E+001
  0.18242802502E+008,  0.20005144714E+007,  0.19000000000E+002,  0.00000000000E+000,  0.10000000000E+001
  0.18242952502E+008,  0.20005186470E+007,  0.19000000000E+002,  0.00000000000E+000,  0.10000000000E+001
  0.18243102502E+008,  0.20005228154E+007,  0.19000000000E+002,  0.00000000000E+000,  0.10000000000E+001
  0.18243252502E+008,  0.20005269768E+007,  0.19000000000E+002,  0.00000000000E+000,  0.10000000000E+001
  0.18243402502E+008,  0.20005311314E+007,  0.19000000000E+002,  0.00000000000E+000,  0.10000000000E+001
  0.18243552502E+008,  0.20005352793E+007,  0.19000000000E+002,  0.00000000000E+000,  0.10000000000E+001
  0.18243702502E+008,  0.20005394204E+007,  0.19000000000E+002,  0.00000000000E+000,  0.10000000000E+001
  0.18243777502E+008,  0.20005414890E+007,  0.19000000000E+002,  0.00000000000E+000,  0.10000000000E+001
  0.18243927502E+008,  0.20005456146E+007,  0.19000000000E+002,  0.00000000000E+000,  0.10000000000E+001
  0.18244077502E+008,  0.20005497246E+007,  0.19000000000E+002,  0.00000000000E+000,  0.10000000000E+001
  0.18244152503E+008,  0.20005517754E+007,  0.19000000000E+002,  0.00000000000E+000,  0.10000000000E+001
  0.18244302503E+008,  0.20005558512E+007,  0.19000000000E+002,  0.00000000000E+000,  0.10000000000E+001
  0.18244377503E+008,  0.20005578810E+007,  0.19000000000E+002,  0.00000000000E+000,  0.10000000000E+001
  0.18244527503E+008,  0.20005618963E+007,  0.19000000000E+002,  0.00000000000E+000,  0.10000000000E+001
  0.18244677503E+008,  0.20005658625E+007,  0.19000000000E+002,  0.00000000000E+000,  0.10000000000E+001
  0.18244827503E+008,  0.20005697809E+007,  0.19000000000E+002,  0.00000000000E+000,  0.10000000000E+001
  0.18244977503E+008,  0.20005736571E+007,  0.19000000000E+002,  0.00000000000E+000,  0.10000000000E+001
  0.18245127503E+008,  0.20005774988E+007,  0.19000000000E+002,  0.00000000000E+000,  0.10000000000E+001
  0.18245202504E+008,  0.20005794120E+007,  0.19000000000E+002,  0.00000000000E+000,  0.10000000000E+001
  0.18245352504E+008,  0.20005832127E+007,  0.19000000000E+002,  0.00000000000E+000,  0.10000000000E+001
  0.18245502504E+008,  0.20005869913E+007,  0.19000000000E+002,  0.00000000000E+000,  0.10000000000E+001
  0.18245652504E+008,  0.20005907519E+007,  0.19000000000E+002,  0.00000000000E+000,  0.10000000000E+001
  0.18245802504E+008,  0.20005944995E+007,  0.19000000000E+002,  0.00000000000E+000,  0.10000000000E+001
  0.18245952504E+008,  0.20005982388E+007,  0.19000000000E+002,  0.00000000000E+000,  0.10000000000E+001
  0.18246102504E+008,  0.20006019734E+007,  0.19000000000E+002,  0.00000000000E+000,  0.10000000000E+001
  0.18246252504E+008,  0.20006057066E+007,  0.19000000000E+002,  0.00000000000E+000,  0.10000000000E+001
  0.18246402504E+008,  0.20006094406E+007,  0.19000000000E+002,  0.00000000000E+000,  0.10000000000E+001
  0.18246477504E+008,  0.20006113078E+007,  0.19000000000E+002,  0.00000000000E+000,  0.10000000000E+001
  0.18246627504E+008,  0.20006150379E+007,  0.19000000000E+002,  0.00000000000E+000,  0.10000000000E+001
  0.18246777504E+008,  0.20006187597E+007,  0.19000000000E+002,  0.00000000000E+000,  0.10000000000E+001
  0.18246927504E+008,  0.20006224724E+007,  0.19000000000E+002,  0.00000000000E+000,  0.10000000000E+001
  0.18247077504E+008,  0.20006261779E+007,  0.19000000000E+002,  0.00000000000E+000,  0.10000000000E+001
  0.18247227504E+008,  0.20006298783E+007,  0.19000000000E+002,  0.00000000000E+000,  0.10000000000E+001
  0.18247377504E+008,  0.20006335761E+007,  0.19000000000E+002,  0.00000000000E+000,  0.10000000000E+001
  0.18247527504E+008,  0.20006372731E+007,  0.19000000000E+002,  0.00000000000E+000,  0.10000000000E+001
  0.18247677504E+008,  0.20006409712E+007,  0.19000000000E+002,  0.00000000000E+000,  0.10000000000E+001
  0.18247827504E+008,  0.20006446717E+007,  0.19000000000E+002,  0.00000000000E+000,  0.10000000000E+001
  0.18247977504E+008,  0.20006483758E+007,  0.19000000000E+002,  0.00000000000E+000,  0.10000000000E+001
  0.18248127504E+008,  0.20006520842E+007,  0.19000000000E+002,  0.00000000000E+000,  0.10000000000E+001
  0.18248277504E+008,  0.20006557977E+007,  0.19000000000E+002,  0.00000000000E+000,  0.10000000000E+001
  0.18248427504E+008,  0.20006595168E+007,  0.19000000000E+002,  0.00000000000E+000,  0.10000000000E+001
  0.18248577504E+008,  0.20006632422E+007,  0.19000000000E+002,  0.00000000000E+000,  0.10000000000E+001
  0.18248727504E+008,  0.20006669745E+007,  0.19000000000E+002,  0.00000000000E+000,  0.10000000000E+001
  0.18248877504E+008,  0.20006707140E+007,  0.19000000000E+002,  0.00000000000E+000,  0.10000000000E+001
  0.18249027504E+008,  0.20006744608E+007,  0.19000000000E+002,  0.00000000000E+000,  0.10000000000E+001
  0.18249177504E+008,  0.20006782151E+007,  0.19000000000E+002,  0.00000000000E+000,  0.10000000000E+001
  0.18249327504E+008,  0.20006819766E+007,  0.19000000000E+002,  0.00000000000E+000,  0.10000000000E+001
  0.18249477504E+008,  0.20006857454E+007,  0.19000000000E+002,  0.00000000000E+000,  0.10000000000E+001
  0.18249627504E+008,  0.20006895212E+007,  0.19000000000E+002,  0.00000000000E+000,  0.10000000000E+001
  0.18249777504E+008,  0.20006933037E+007,  0.19000000000E+002,  0.00000000000E+000,  0.10000000000E+001
  0.18249927504E+008,  0.20006970928E+007,  0.19000000000E+002,  0.00000000000E+000,  0.10000000000E+001
  0.18250077504E+008,  0.20007008881E+007,  0.19000000000E+002,  0.00000000000E+000,  0.10000000000E+001
  0.18250227504E+008,  0.20007046894E+007,  0.19000000000E+002,  0.00000000000E+000,  0.10000000000E+001
  0.18250377504E+008,  0.20007084964E+007,  0.19000000000E+002,  0.00000000000E+000,  0.10000000000E+001
  0.18250527504E+008,  0.20007123089E+007,  0.19000000000E+002,  0.00000000000E+000,  0.10000000000E+001
  0.18250677504E+008,  0.20007161267E+007,  0.19000000000E+002,  0.00000000000E+000,  0.10000000000E+001
  0.18250827504E+008,  0.20007199495E+007,  0.19000000000E+002,  0.00000000000E+000,  0.10000000000E+001
  0.18250977504E+008,  0.20007237772E+007,  0.19000000000E+002,  0.00000000000E+000,  0.10000000000E+001
  0.18251127504E+008,  0.20007276096E+007,  0.19000000000E+002,  0.00000000000E+000,  0.10000000000E+001
  0.18251277504E+008,  0.20007314466E+007,  0.19000000000E+002,  0.00000000000E+000,  0.10000000000E+001
  0.18251427504E+008,  0.20007352878E+007,  0.19000000000E+002,  0.00000000000E+000,  0.10000000000E+001
  0.18251577504E+008,  0.20007391333E+007,  0.19000000000E+002,  0.00000000000E+000,  0.10000000000E+001
  0.18251727504E+008,  0.20007429828E+007,  0.19000000000E+002,  0.00000000000E+000,  0.10000000000E+001
  0.18251877504E+008,  0.20007468363E+007,  0.19000000000E+002,  0.00000000000E+000,  0.10000000000E+001
  0.18252027504E+008,  0.20007506935E+007,  0.19000000000E+002,  0.00000000000E+000,  0.10000000000E+001
  0.18252177504E+008,  0.20007545544E+007,  0.19000000000E+002,  0.00000000000E+000,  0.10000000000E+001
  0.18252327504E+008,  0.20007584189E+007,  0.19000000000E+002,  0.00000000000E+000,  0.10000000000E+001
  0.18252477504E+008,  0.20007622867E+007,  0.19000000000E+002,  0.00000000000E+000,  0.10000000000E+001
  0.18252627504E+008,  0.20007661579E+007,  0.19000000000E+002,  0.00000000000E+000,  0.10000000000E+001
  0.18252777504E+008,  0.20007700323E+007,  0.19000000000E+002,  0.00000000000E+000,  0.10000000000E+001
  0.18252927504E+008,  0.20007739099E+007,  0.19000000000E+002,  0.00000000000E+000,  0.10000000000E+001
  0.18253077504E+008,  0.20007777905E+007,  0.19000000000E+002,  0.00000000000E+000,  0.10000000000E+001
  0.18253227504E+008,  0.20007816743E+007,  0.19000000000E+002,  0.00000000000E+000,  0.10000000000E+001
  0.18253377504E+008,  0.20007855613E+007,  0.19000000000E+002,  0.00000000000E+000,  0.10000000000E+001
  0.18253527504E+008,  0.20007894519E+007,  0.19000000000E+002,  0.00000000000E+000,  0.10000000000E+001
  0.18253677504E+008,  0.20007933460E+007,  0.19000000000E+002,  0.00000000000E+000,  0.10000000000E+001
  0.18253752505E+008,  0.20007952939E+007,  0.19000000000E+002,  0.00000000000E+000,  0.10000000000E+001
  0.18253902505E+008,  0.20007991893E+007,  0.19000000000E+002,  0.00000000000E+000,  0.10000000000E+001
  0.18254052505E+008,  0.20008030796E+007,  0.19000000000E+002,  0.00000000000E+000,  0.10000000000E+001
  0.18254202505E+008,  0.20008069624E+007,  0.19000000000E+002,  0.00000000000E+000,  0.10000000000E+001
  0.18254352505E+008,  0.20008108378E+007,  0.19000000000E+002,  0.00000000000E+000,  0.10000000000E+001
  0.18254502505E+008,  0.20008147073E+007,  0.19000000000E+002,  0.00000000000E+000,  0.10000000000E+001
  0.18254652505E+008,  0.20008185725E+007,  0.19000000000E+002,  0.00000000000E+000,  0.10000000000E+001
  0.18254802505E+008,  0.20008224353E+007,  0.19000000000E+002,  0.00000000000E+000,  0.10000000000E+001
  0.18254952505E+008,  0.20008262973E+007,  0.19000000000E+002,  0.00000000000E+000,  0.10000000000E+001
  0.18255102505E+008,  0.20008301597E+007,  0.19000000000E+002,  0.00000000000E+000,  0.10000000000E+001
  0.18255252505E+008,  0.20008340238E+007,  0.19000000000E+002,  0.00000000000E+000,  0.10000000000E+001
  0.18255402505E+008,  0.20008378905E+007,  0.19000000000E+002,  0.00000000000E+000,  0.10000000000E+001
  0.18255552505E+008,  0.20008417603E+007,  0.19000000000E+002,  0.00000000000E+000,  0.10000000000E+001
  0.18255702505E+008,  0.20008456338E+007,  0.19000000000E+002,  0.00000000000E+000,  0.10000000000E+001
  0.18255852505E+008,  0.20008495113E+007,  0.19000000000E+002,  0.00000000000E+000,  0.10000000000E+001
  0.18256002505E+008,  0.20008533930E+007,  0.19000000000E+002,  0.00000000000E+000,  0.10000000000E+001
  0.18256152505E+008,  0.20008572791E+007,  0.19000000000E+002,  0.00000000000E+000,  0.10000000000E+001
