"           TIME(S)","              PRES","              TEMP","             SAT_G","             SAT_L"
  0.18228740000E+008,  0.20020914009E+007,  0.19000000000E+002,  0.10000000000E+001,  0.00000000000E+000
  0.18228890000E+008,  0.20041370767E+007,  0.19000000000E+002,  0.10000000000E+001,  0.00000000000E+000
  0.18229040000E+008,  0.20058171760E+007,  0.19000000000E+002,  0.10000000000E+001,  0.00000000000E+000
  0.18229190000E+008,  0.20073088074E+007,  0.19000000000E+002,  0.10000000000E+001,  0.00000000000E+000
  0.18229340000E+008,  0.20086516097E+007,  0.19000000000E+002,  0.10000000000E+001,  0.00000000000E+000
  0.18229490000E+008,  0.20099777583E+007,  0.19000000000E+002,  0.10000000000E+001,  0.00000000000E+000
  0.18229565000E+008,  0.20107975718E+007,  0.19000000000E+002,  0.10000000000E+001,  0.00000000000E+000
  0.18229715000E+008,  0.20124150749E+007,  0.19000000000E+002,  0.10000000000E+001,  0.00000000000E+000
  0.18229790001E+008,  0.20132451990E+007,  0.19000000000E+002,  0.10000000000E+001,  0.00000000000E+000
  0.18229827501E+008,  0.20136781444E+007,  0.19000000000E+002,  0.10000000000E+001,  0.00000000000E+000
  0.18229846251E+008,  0.20139038308E+007,  0.19000000000E+002,  0.10000000000E+001,  0.00000000000E+000
  0.18229855627E+008,  0.20140185342E+007,  0.19000000000E+002,  0.10000000000E+001,  0.00000000000E+000
  0.18229902503E+008,  0.20146044090E+007,  0.19000000000E+002,  0.10000000000E+001,  0.00000000000E+000
  0.18229925941E+008,  0.20148967810E+007,  0.19000000000E+002,  0.10000000000E+001,  0.00000000000E+000
  0.18230043132E+008,  0.20163101449E+007,  0.19000000000E+002,  0.10000000000E+001,  0.00000000000E+000
  0.18230101728E+008,  0.20170880941E+007,  0.19000000000E+002,  0.10000000000E+001,  0.00000000000E+000
  0.18230131026E+008,  0.20175073446E+007,  0.19000000000E+002,  0.10000000000E+001,  0.00000000000E+000
  0.18230145675E+008,  0.20177196853E+007,  0.19000000000E+002,  0.10000000000E+001,  0.00000000000E+000
  0.18230218920E+008,  0.20187935253E+007,  0.19000000000E+002,  0.10000000000E+001,  0.00000000000E+000
  0.18230255543E+008,  0.20193947165E+007,  0.19000000000E+002,  0.10000000000E+001,  0.00000000000E+000
  0.18230273855E+008,  0.20196999313E+007,  0.19000000000E+002,  0.10000000000E+001,  0.00000000000E+000
  0.18230283011E+008,  0.20198536944E+007,  0.19000000000E+002,  0.10000000000E+001,  0.00000000000E+000
  0.18230328790E+008,  0.20206206492E+007,  0.19000000000E+002,  0.10000000000E+001,  0.00000000000E+000
  0.18230478790E+008,  0.20231318002E+007,  0.19000000000E+002,  0.10000000000E+001,  0.00000000000E+000
  0.18230628790E+008,  0.20256425981E+007,  0.19000000000E+002,  0.10000000000E+001,  0.00000000000E+000
  0.18230778790E+008,  0.20281529202E+007,  0.19000000000E+002,  0.10000000000E+001,  0.00000000000E+000
  0.18230928790E+008,  0.20306627355E+007,  0.19000000000E+002,  0.10000000000E+001,  0.00000000000E+000
  0.18231078790E+008,  0.20331720392E+007,  0.19000000000E+002,  0.10000000000E+001,  0.00000000000E+000
  0.18231228790E+008,  0.20356808249E+007,  0.19000000000E+002,  0.10000000000E+001,  0.00000000000E+000
  0.18231378790E+008,  0.20381890842E+007,  0.19000000000E+002,  0.10000000000E+001,  0.00000000000E+000
  0.18231528790E+008,  0.20406968079E+007,  0.19000000000E+002,  0.10000000000E+001,  0.00000000000E+000
  0.18231678790E+008,  0.20432039868E+007,  0.19000000000E+002,  0.10000000000E+001,  0.00000000000E+000
  0.18231828790E+008,  0.20457106124E+007,  0.19000000000E+002,  0.10000000000E+001,  0.00000000000E+000
  0.18231978790E+008,  0.20482166770E+007,  0.19000000000E+002,  0.10000000000E+001,  0.00000000000E+000
  0.18232128790E+008,  0.20507221739E+007,  0.19000000000E+002,  0.10000000000E+001,  0.00000000000E+000
  0.18232278790E+008,  0.20532270979E+007,  0.19000000000E+002,  0.10000000000E+001,  0.00000000000E+000
  0.18232428790E+008,  0.20557314445E+007,  0.19000000000E+002,  0.10000000000E+001,  0.00000000000E+000
  0.18232578790E+008,  0.20582352105E+007,  0.19000000000E+002,  0.10000000000E+001,  0.00000000000E+000
  0.18232728790E+008,  0.20607383933E+007,  0.19000000000E+002,  0.10000000000E+001,  0.00000000000E+000
  0.18232878790E+008,  0.20632409914E+007,  0.19000000000E+002,  0.10000000000E+001,  0.00000000000E+000
  0.18233028790E+008,  0.20657430039E+007,  0.19000000000E+002,  0.10000000000E+001,  0.00000000000E+000
  0.18233178790E+008,  0.20682444303E+007,  0.19000000000E+002,  0.10000000000E+001,  0.00000000000E+000
  0.18233328790E+008,  0.20707452709E+007,  0.19000000000E+002,  0.10000000000E+001,  0.00000000000E+000
  0.18233478790E+008,  0.20732455262E+007,  0.19000000000E+002,  0.10000000000E+001,  0.00000000000E+000
  0.18233628790E+008,  0.20757451970E+007,  0.19000000000E+002,  0.10000000000E+001,  0.00000000000E+000
  0.18233778790E+008,  0.20782442846E+007,  0.19000000000E+002,  0.10000000000E+001,  0.00000000000E+000
  0.18233928790E+008,  0.20807427903E+007,  0.19000000000E+002,  0.10000000000E+001,  0.00000000000E+000
  0.18234078790E+008,  0.20832407156E+007,  0.19000000000E+002,  0.10000000000E+001,  0.00000000000E+000
  0.18234228790E+008,  0.20857380624E+007,  0.19000000000E+002,  0.10000000000E+001,  0.00000000000E+000
  0.18234378790E+008,  0.20882348323E+007,  0.19000000000E+002,  0.10000000000E+001,  0.00000000000E+000
  0.18234528790E+008,  0.20907310273E+007,  0.19000000000E+002,  0.10000000000E+001,  0.00000000000E+000
  0.18234678790E+008,  0.20932266492E+007,  0.19000000000E+002,  0.10000000000E+001,  0.00000000000E+000
  0.18234828790E+008,  0.20957217001E+007,  0.19000000000E+002,  0.10000000000E+001,  0.00000000000E+000
  0.18234978790E+008,  0.20982161819E+007,  0.19000000000E+002,  0.10000000000E+001,  0.00000000000E+000
  0.18235128790E+008,  0.21007100965E+007,  0.19000000000E+002,  0.10000000000E+001,  0.00000000000E+000
  0.18235278790E+008,  0.21032034461E+007,  0.19000000000E+002,  0.10000000000E+001,  0.00000000000E+000
  0.18235428790E+008,  0.21056962325E+007,  0.19000000000E+002,  0.10000000000E+001,  0.00000000000E+000
  0.18235578790E+008,  0.21081884578E+007,  0.19000000000E+002,  0.10000000000E+001,  0.00000000000E+000
  0.18235728790E+008,  0.21106801239E+007,  0.19000000000E+002,  0.10000000000E+001,  0.00000000000E+000
  0.18235878790E+008,  0.21131712327E+007,  0.19000000000E+002,  0.10000000000E+001,  0.00000000000E+000
  0.18236028790E+008,  0.21156617861E+007,  0.19000000000E+002,  0.10000000000E+001,  0.00000000000E+000
  0.18236178790E+008,  0.21181517860E+007,  0.19000000000E+002,  0.10000000000E+001,  0.00000000000E+000
  0.18236328790E+008,  0.21206412342E+007,  0.19000000000E+002,  0.10000000000E+001,  0.00000000000E+000
  0.18236478790E+008,  0.21231301326E+007,  0.19000000000E+002,  0.10000000000E+001,  0.00000000000E+000
  0.18236628790E+008,  0.21256184829E+007,  0.19000000000E+002,  0.10000000000E+001,  0.00000000000E+000
  0.18236778790E+008,  0.21281062868E+007,  0.19000000000E+002,  0.10000000000E+001,  0.00000000000E+000
  0.18236928790E+008,  0.21305935461E+007,  0.19000000000E+002,  0.10000000000E+001,  0.00000000000E+000
  0.18237078790E+008,  0.21330802625E+007,  0.19000000000E+002,  0.10000000000E+001,  0.00000000000E+000
  0.18237228790E+008,  0.21355664376E+007,  0.19000000000E+002,  0.10000000000E+001,  0.00000000000E+000
  0.18237378790E+008,  0.21380520730E+007,  0.19000000000E+002,  0.10000000000E+001,  0.00000000000E+000
  0.18237528790E+008,  0.21405371703E+007,  0.19000000000E+002,  0.10000000000E+001,  0.00000000000E+000
  0.18237678790E+008,  0.21430217310E+007,  0.19000000000E+002,  0.10000000000E+001,  0.00000000000E+000
  0.18237828790E+008,  0.21455057566E+007,  0.19000000000E+002,  0.10000000000E+001,  0.00000000000E+000
  0.18237978790E+008,  0.21479892486E+007,  0.19000000000E+002,  0.10000000000E+001,  0.00000000000E+000
  0.18238128790E+008,  0.21504722084E+007,  0.19000000000E+002,  0.10000000000E+001,  0.00000000000E+000
  0.18238278790E+008,  0.21529546375E+007,  0.19000000000E+002,  0.10000000000E+001,  0.00000000000E+000
  0.18238428790E+008,  0.21554365372E+007,  0.19000000000E+002,  0.10000000000E+001,  0.00000000000E+000
  0.18238578790E+008,  0.21579179089E+007,  0.19000000000E+002,  0.10000000000E+001,  0.00000000000E+000
  0.18238728790E+008,  0.21603987538E+007,  0.19000000000E+002,  0.10000000000E+001,  0.00000000000E+000
  0.18238878790E+008,  0.21628790733E+007,  0.19000000000E+002,  0.10000000000E+001,  0.00000000000E+000
  0.18239028790E+008,  0.21653588686E+007,  0.19000000000E+002,  0.10000000000E+001,  0.00000000000E+000
  0.18239178790E+008,  0.21678381409E+007,  0.19000000000E+002,  0.10000000000E+001,  0.00000000000E+000
  0.18239328790E+008,  0.21703168914E+007,  0.19000000000E+002,  0.10000000000E+001,  0.00000000000E+000
  0.18239478790E+008,  0.21727951213E+007,  0.19000000000E+002,  0.10000000000E+001,  0.00000000000E+000
  0.18239628790E+008,  0.21752728317E+007,  0.19000000000E+002,  0.10000000000E+001,  0.00000000000E+000
  0.18239778790E+008,  0.21777500236E+007,  0.19000000000E+002,  0.10000000000E+001,  0.00000000000E+000
  0.18239928790E+008,  0.21802266982E+007,  0.19000000000E+002,  0.10000000000E+001,  0.00000000000E+000
  0.18240078790E+008,  0.21827028565E+007,  0.19000000000E+002,  0.10000000000E+001,  0.00000000000E+000
  0.18240228790E+008,  0.21851784995E+007,  0.19000000000E+002,  0.10000000000E+001,  0.00000000000E+000
  0.18240378790E+008,  0.21876536282E+007,  0.19000000000E+002,  0.10000000000E+001,  0.00000000000E+000
  0.18240528790E+008,  0.21901282435E+007,  0.19000000000E+002,  0.10000000000E+001,  0.00000000000E+000
  0.18240678790E+008,  0.21926023464E+007,  0.19000000000E+002,  0.10000000000E+001,  0.00000000000E+000
  0.18240828790E+008,  0.21950759378E+007,  0.19000000000E+002,  0.10000000000E+001,  0.00000000000E+000
  0.18240978790E+008,  0.21975490185E+007,  0.19000000000E+002,  0.10000000000E+001,  0.00000000000E+000
  0.18241128790E+008,  0.22000215895E+007,  0.19000000000E+002,  0.10000000000E+001,  0.00000000000E+000
  0.18241278790E+008,  0.22024936515E+007,  0.19000000000E+002,  0.10000000000E+001,  0.00000000000E+000
  0.18241428790E+008,  0.22049652054E+007,  0.19000000000E+002,  0.10000000000E+001,  0.00000000000E+000
  0.18241578790E+008,  0.22074362518E+007,  0.19000000000E+002,  0.10000000000E+001,  0.00000000000E+000
  0.18241728790E+008,  0.22099067917E+007,  0.19000000000E+002,  0.10000000000E+001,  0.00000000000E+000
  0.18241878790E+008,  0.22123768256E+007,  0.19000000000E+002,  0.10000000000E+001,  0.00000000000E+000
  0.18242028790E+008,  0.22148463543E+007,  0.19000000000E+002,  0.10000000000E+001,  0.00000000000E+000
  0.18242178790E+008,  0.22173153786E+007,  0.19000000000E+002,  0.10000000000E+001,  0.00000000000E+000
  0.18242328790E+008,  0.22197838989E+007,  0.19000000000E+002,  0.10000000000E+001,  0.00000000000E+000
  0.18242478790E+008,  0.22222519160E+007,  0.19000000000E+002,  0.10000000000E+001,  0.00000000000E+000
  0.18242628790E+008,  0.22247194306E+007,  0.19000000000E+002,  0.10000000000E+001,  0.00000000000E+000
  0.18242778790E+008,  0.22271864431E+007,  0.19000000000E+002,  0.10000000000E+001,  0.00000000000E+000
  0.18242928790E+008,  0.22296529541E+007,  0.19000000000E+002,  0.10000000000E+001,  0.00000000000E+000
  0.18243078790E+008,  0.22321189642E+007,  0.19000000000E+002,  0.10000000000E+001,  0.00000000000E+000
  0.18243228790E+008,  0.22345844740E+007,  0.19000000000E+002,  0.10000000000E+001,  0.00000000000E+000
  0.18243378790E+008,  0.22370494838E+007,  0.19000000000E+002,  0.10000000000E+001,  0.00000000000E+000
  0.18243528790E+008,  0.22395139943E+007,  0.19000000000E+002,  0.10000000000E+001,  0.00000000000E+000
  0.18243678790E+008,  0.22419780058E+007,  0.19000000000E+002,  0.10000000000E+001,  0.00000000000E+000
  0.18243828790E+008,  0.22444415189E+007,  0.19000000000E+002,  0.10000000000E+001,  0.00000000000E+000
  0.18243978790E+008,  0.22469045338E+007,  0.19000000000E+002,  0.10000000000E+001,  0.00000000000E+000
  0.18244128790E+008,  0.22493670512E+007,  0.19000000000E+002,  0.10000000000E+001,  0.00000000000E+000
  0.18244278790E+008,  0.22518290712E+007,  0.19000000000E+002,  0.10000000000E+001,  0.00000000000E+000
  0.18244428790E+008,  0.22542905943E+007,  0.19000000000E+002,  0.10000000000E+001,  0.00000000000E+000
  0.18244578790E+008,  0.22567516209E+007,  0.19000000000E+002,  0.10000000000E+001,  0.00000000000E+000
  0.18244728790E+008,  0.22592121512E+007,  0.19000000000E+002,  0.10000000000E+001,  0.00000000000E+000
  0.18244878790E+008,  0.22616721856E+007,  0.19000000000E+002,  0.10000000000E+001,  0.00000000000E+000
  0.18245028790E+008,  0.22641317244E+007,  0.19000000000E+002,  0.10000000000E+001,  0.00000000000E+000
  0.18245178790E+008,  0.22665907678E+007,  0.19000000000E+002,  0.10000000000E+001,  0.00000000000E+000
  0.18245328790E+008,  0.22690493162E+007,  0.19000000000E+002,  0.10000000000E+001,  0.00000000000E+000
  0.18245478790E+008,  0.22715073697E+007,  0.19000000000E+002,  0.10000000000E+001,  0.00000000000E+000
  0.18245628790E+008,  0.22739649285E+007,  0.19000000000E+002,  0.10000000000E+001,  0.00000000000E+000
  0.18245778790E+008,  0.22764219929E+007,  0.19000000000E+002,  0.10000000000E+001,  0.00000000000E+000
  0.18245928790E+008,  0.22788785631E+007,  0.19000000000E+002,  0.10000000000E+001,  0.00000000000E+000
  0.18246078790E+008,  0.22813346393E+007,  0.19000000000E+002,  0.10000000000E+001,  0.00000000000E+000
  0.18246228790E+008,  0.22837902216E+007,  0.19000000000E+002,  0.10000000000E+001,  0.00000000000E+000
  0.18246378790E+008,  0.22862453101E+007,  0.19000000000E+002,  0.10000000000E+001,  0.00000000000E+000
  0.18246528790E+008,  0.22886999050E+007,  0.19000000000E+002,  0.10000000000E+001,  0.00000000000E+000
  0.18246678790E+008,  0.22911540064E+007,  0.19000000000E+002,  0.10000000000E+001,  0.00000000000E+000
  0.18246828790E+008,  0.22936076144E+007,  0.19000000000E+002,  0.10000000000E+001,  0.00000000000E+000
  0.18246978790E+008,  0.22960607291E+007,  0.19000000000E+002,  0.10000000000E+001,  0.00000000000E+000
  0.18247128790E+008,  0.22985133506E+007,  0.19000000000E+002,  0.10000000000E+001,  0.00000000000E+000
  0.18247278790E+008,  0.23009654789E+007,  0.19000000000E+002,  0.10000000000E+001,  0.00000000000E+000
  0.18247428790E+008,  0.23034171140E+007,  0.19000000000E+002,  0.10000000000E+001,  0.00000000000E+000
  0.18247578790E+008,  0.23058682560E+007,  0.19000000000E+002,  0.10000000000E+001,  0.00000000000E+000
  0.18247728790E+008,  0.23083189049E+007,  0.19000000000E+002,  0.10000000000E+001,  0.00000000000E+000
  0.18247878790E+008,  0.23107690608E+007,  0.19000000000E+002,  0.10000000000E+001,  0.00000000000E+000
  0.18248028790E+008,  0.23132187235E+007,  0.19000000000E+002,  0.10000000000E+001,  0.00000000000E+000
  0.18248178790E+008,  0.23156678931E+007,  0.19000000000E+002,  0.10000000000E+001,  0.00000000000E+000
  0.18248328790E+008,  0.23181165695E+007,  0.19000000000E+002,  0.10000000000E+001,  0.00000000000E+000
  0.18248478790E+008,  0.23205647528E+007,  0.19000000000E+002,  0.10000000000E+001,  0.00000000000E+000
  0.18248628790E+008,  0.23230124428E+007,  0.19000000000E+002,  0.10000000000E+001,  0.00000000000E+000
  0.18248778790E+008,  0.23254596394E+007,  0.19000000000E+002,  0.10000000000E+001,  0.00000000000E+000
  0.18248928790E+008,  0.23279063426E+007,  0.19000000000E+002,  0.10000000000E+001,  0.00000000000E+000
  0.18249078790E+008,  0.23303525523E+007,  0.19000000000E+002,  0.10000000000E+001,  0.00000000000E+000
  0.18249228790E+008,  0.23327982684E+007,  0.19000000000E+002,  0.10000000000E+001,  0.00000000000E+000
  0.18249378790E+008,  0.23352434907E+007,  0.19000000000E+002,  0.10000000000E+001,  0.00000000000E+000
  0.18249528790E+008,  0.23376882192E+007,  0.19000000000E+002,  0.10000000000E+001,  0.00000000000E+000
  0.18249678790E+008,  0.23401324536E+007,  0.19000000000E+002,  0.10000000000E+001,  0.00000000000E+000
  0.18249828790E+008,  0.23425761939E+007,  0.19000000000E+002,  0.10000000000E+001,  0.00000000000E+000
  0.18249978790E+008,  0.23450194398E+007,  0.19000000000E+002,  0.10000000000E+001,  0.00000000000E+000
  0.18250128790E+008,  0.23474621913E+007,  0.19000000000E+002,  0.10000000000E+001,  0.00000000000E+000
  0.18250278790E+008,  0.23499044481E+007,  0.19000000000E+002,  0.10000000000E+001,  0.00000000000E+000
  0.18250428790E+008,  0.23523462100E+007,  0.19000000000E+002,  0.10000000000E+001,  0.00000000000E+000
  0.18250578790E+008,  0.23547874769E+007,  0.19000000000E+002,  0.10000000000E+001,  0.00000000000E+000
  0.18250728790E+008,  0.23572282485E+007,  0.19000000000E+002,  0.10000000000E+001,  0.00000000000E+000
  0.18250878790E+008,  0.23596685245E+007,  0.19000000000E+002,  0.10000000000E+001,  0.00000000000E+000
  0.18251028790E+008,  0.23621083049E+007,  0.19000000000E+002,  0.10000000000E+001,  0.00000000000E+000
  0.18251178790E+008,  0.23645475893E+007,  0.19000000000E+002,  0.10000000000E+001,  0.00000000000E+000
  0.18251328790E+008,  0.23669863774E+007,  0.19000000000E+002,  0.10000000000E+001,  0.00000000000E+000
  0.18251478790E+008,  0.23694246691E+007,  0.19000000000E+002,  0.10000000000E+001,  0.00000000000E+000
  0.18251628790E+008,  0.23718624641E+007,  0.19000000000E+002,  0.10000000000E+001,  0.00000000000E+000
  0.18251778790E+008,  0.23742997620E+007,  0.19000000000E+002,  0.10000000000E+001,  0.00000000000E+000
  0.18251928790E+008,  0.23767365627E+007,  0.19000000000E+002,  0.10000000000E+001,  0.00000000000E+000
  0.18252078790E+008,  0.23791728657E+007,  0.19000000000E+002,  0.10000000000E+001,  0.00000000000E+000
  0.18252228790E+008,  0.23816086709E+007,  0.19000000000E+002,  0.10000000000E+001,  0.00000000000E+000
  0.18252378790E+008,  0.23840439779E+007,  0.19000000000E+002,  0.10000000000E+001,  0.00000000000E+000
  0.18252528790E+008,  0.23864787863E+007,  0.19000000000E+002,  0.10000000000E+001,  0.00000000000E+000
  0.18252678790E+008,  0.23889130960E+007,  0.19000000000E+002,  0.10000000000E+001,  0.00000000000E+000
  0.18252828790E+008,  0.23913469064E+007,  0.19000000000E+002,  0.10000000000E+001,  0.00000000000E+000
  0.18252978790E+008,  0.23937802174E+007,  0.19000000000E+002,  0.10000000000E+001,  0.00000000000E+000
  0.18253128790E+008,  0.23962130285E+007,  0.19000000000E+002,  0.10000000000E+001,  0.00000000000E+000
  0.18253278790E+008,  0.23986453395E+007,  0.19000000000E+002,  0.10000000000E+001,  0.00000000000E+000
  0.18253428790E+008,  0.24010771498E+007,  0.19000000000E+002,  0.10000000000E+001,  0.00000000000E+000
  0.18253578790E+008,  0.24035084593E+007,  0.19000000000E+002,  0.10000000000E+001,  0.00000000000E+000
  0.18253728790E+008,  0.24059392674E+007,  0.19000000000E+002,  0.10000000000E+001,  0.00000000000E+000
  0.18253878790E+008,  0.24083695739E+007,  0.19000000000E+002,  0.10000000000E+001,  0.00000000000E+000
  0.18254028790E+008,  0.24107993783E+007,  0.19000000000E+002,  0.10000000000E+001,  0.00000000000E+000
  0.18254178790E+008,  0.24132286802E+007,  0.19000000000E+002,  0.10000000000E+001,  0.00000000000E+000
  0.18254328790E+008,  0.24156574793E+007,  0.19000000000E+002,  0.10000000000E+001,  0.00000000000E+000
  0.18254478790E+008,  0.24180857751E+007,  0.19000000000E+002,  0.10000000000E+001,  0.00000000000E+000
  0.18254628790E+008,  0.24205135672E+007,  0.19000000000E+002,  0.10000000000E+001,  0.00000000000E+000
  0.18254778790E+008,  0.24229408553E+007,  0.19000000000E+002,  0.10000000000E+001,  0.00000000000E+000
  0.18254928790E+008,  0.24253676388E+007,  0.19000000000E+002,  0.10000000000E+001,  0.00000000000E+000
  0.18255078790E+008,  0.24277939173E+007,  0.19000000000E+002,  0.10000000000E+001,  0.00000000000E+000
  0.18255228790E+008,  0.24302196905E+007,  0.19000000000E+002,  0.10000000000E+001,  0.00000000000E+000
