"           TIME(S)","              PRES","              TEMP","             SAT_G","             SAT_L"
  0.17592105000E+008,  0.20999939015E+007,  0.19000000000E+002,  0.00000000000E+000,  0.10000000000E+001
  0.17592130000E+008,  0.20991579795E+007,  0.19000000000E+002,  0.00000000000E+000,  0.10000000000E+001
  0.17592255000E+008,  0.20902257947E+007,  0.19000000000E+002,  0.00000000000E+000,  0.10000000000E+001
  0.17592405000E+008,  0.20821971158E+007,  0.19000000000E+002,  0.00000000000E+000,  0.10000000000E+001
  0.17592555000E+008,  0.20770188176E+007,  0.19000000000E+002,  0.00000000000E+000,  0.10000000000E+001
  0.17592705000E+008,  0.20736292356E+007,  0.19000000000E+002,  0.00000000000E+000,  0.10000000000E+001
  0.17592855000E+008,  0.20712792055E+007,  0.19000000000E+002,  0.00000000000E+000,  0.10000000000E+001
  0.17593005000E+008,  0.20695438974E+007,  0.19000000000E+002,  0.00000000000E+000,  0.10000000000E+001
  0.17593155000E+008,  0.20681876236E+007,  0.19000000000E+002,  0.00000000000E+000,  0.10000000000E+001
  0.17593305000E+008,  0.20670758517E+007,  0.19000000000E+002,  0.00000000000E+000,  0.10000000000E+001
  0.17593455000E+008,  0.20661286906E+007,  0.19000000000E+002,  0.00000000000E+000,  0.10000000000E+001
  0.17593605000E+008,  0.20652968552E+007,  0.19000000000E+002,  0.00000000000E+000,  0.10000000000E+001
  0.17593755000E+008,  0.20645489003E+007,  0.19000000000E+002,  0.00000000000E+000,  0.10000000000E+001
  0.17593905000E+008,  0.20638641581E+007,  0.19000000000E+002,  0.00000000000E+000,  0.10000000000E+001
  0.17594055000E+008,  0.20632286719E+007,  0.19000000000E+002,  0.00000000000E+000,  0.10000000000E+001
  0.17594205000E+008,  0.20626327706E+007,  0.19000000000E+002,  0.00000000000E+000,  0.10000000000E+001
  0.17594355000E+008,  0.20620695814E+007,  0.19000000000E+002,  0.00000000000E+000,  0.10000000000E+001
  0.17594505000E+008,  0.20615340952E+007,  0.19000000000E+002,  0.00000000000E+000,  0.10000000000E+001
  0.17594655000E+008,  0.20610225671E+007,  0.19000000000E+002,  0.00000000000E+000,  0.10000000000E+001
  0.17594805000E+008,  0.20605321272E+007,  0.19000000000E+002,  0.00000000000E+000,  0.10000000000E+001
  0.17594955000E+008,  0.20600605214E+007,  0.19000000000E+002,  0.00000000000E+000,  0.10000000000E+001
  0.17595105000E+008,  0.20596059393E+007,  0.19000000000E+002,  0.00000000000E+000,  0.10000000000E+001
  0.17595255000E+008,  0.20591668950E+007,  0.19000000000E+002,  0.00000000000E+000,  0.10000000000E+001
  0.17595405000E+008,  0.20587421467E+007,  0.19000000000E+002,  0.00000000000E+000,  0.10000000000E+001
  0.17595555000E+008,  0.20583306400E+007,  0.19000000000E+002,  0.00000000000E+000,  0.10000000000E+001
  0.17595630000E+008,  0.20581280746E+007,  0.19000000000E+002,  0.00000000000E+000,  0.10000000000E+001
  0.17595780000E+008,  0.20577348674E+007,  0.19000000000E+002,  0.00000000000E+000,  0.10000000000E+001
  0.17595855001E+008,  0.20575411463E+007,  0.19000000000E+002,  0.00000000000E+000,  0.10000000000E+001
  0.17596005001E+008,  0.20571645633E+007,  0.19000000000E+002,  0.00000000000E+000,  0.10000000000E+001
  0.17596080001E+008,  0.20569789054E+007,  0.19000000000E+002,  0.00000000000E+000,  0.10000000000E+001
  0.17596117502E+008,  0.20568867250E+007,  0.19000000000E+002,  0.00000000000E+000,  0.10000000000E+001
  0.17596136252E+008,  0.20568407955E+007,  0.19000000000E+002,  0.00000000000E+000,  0.10000000000E+001
  0.17596145627E+008,  0.20568178707E+007,  0.19000000000E+002,  0.00000000000E+000,  0.10000000000E+001
  0.17596192504E+008,  0.20567042323E+007,  0.19000000000E+002,  0.00000000000E+000,  0.10000000000E+001
  0.17596342504E+008,  0.20563501533E+007,  0.19000000000E+002,  0.00000000000E+000,  0.10000000000E+001
  0.17596492504E+008,  0.20560051332E+007,  0.19000000000E+002,  0.00000000000E+000,  0.10000000000E+001
  0.17596567504E+008,  0.20558348272E+007,  0.19000000000E+002,  0.00000000000E+000,  0.10000000000E+001
  0.17596605005E+008,  0.20557502176E+007,  0.19000000000E+002,  0.00000000000E+000,  0.10000000000E+001
  0.17596755005E+008,  0.20554200462E+007,  0.19000000000E+002,  0.00000000000E+000,  0.10000000000E+001
  0.17596830005E+008,  0.20552569721E+007,  0.19000000000E+002,  0.00000000000E+000,  0.10000000000E+001
  0.17596867505E+008,  0.20551759311E+007,  0.19000000000E+002,  0.00000000000E+000,  0.10000000000E+001
  0.17597017505E+008,  0.20548593145E+007,  0.19000000000E+002,  0.00000000000E+000,  0.10000000000E+001
  0.17597092506E+008,  0.20547028419E+007,  0.19000000000E+002,  0.00000000000E+000,  0.10000000000E+001
  0.17597130006E+008,  0.20546250583E+007,  0.19000000000E+002,  0.00000000000E+000,  0.10000000000E+001
  0.17597148757E+008,  0.20545862787E+007,  0.19000000000E+002,  0.00000000000E+000,  0.10000000000E+001
  0.17597242509E+008,  0.20543951000E+007,  0.19000000000E+002,  0.00000000000E+000,  0.10000000000E+001
  0.17597392509E+008,  0.20540958065E+007,  0.19000000000E+002,  0.00000000000E+000,  0.10000000000E+001
  0.17597542509E+008,  0.20538027390E+007,  0.19000000000E+002,  0.00000000000E+000,  0.10000000000E+001
  0.17597692509E+008,  0.20535155567E+007,  0.19000000000E+002,  0.00000000000E+000,  0.10000000000E+001
  0.17597842509E+008,  0.20532339446E+007,  0.19000000000E+002,  0.00000000000E+000,  0.10000000000E+001
  0.17597992509E+008,  0.20529576161E+007,  0.19000000000E+002,  0.00000000000E+000,  0.10000000000E+001
  0.17598142509E+008,  0.20526863143E+007,  0.19000000000E+002,  0.00000000000E+000,  0.10000000000E+001
  0.17598292509E+008,  0.20524198117E+007,  0.19000000000E+002,  0.00000000000E+000,  0.10000000000E+001
  0.17598442509E+008,  0.20521579077E+007,  0.19000000000E+002,  0.00000000000E+000,  0.10000000000E+001
  0.17598592509E+008,  0.20519004269E+007,  0.19000000000E+002,  0.00000000000E+000,  0.10000000000E+001
  0.17598742509E+008,  0.20516472152E+007,  0.19000000000E+002,  0.00000000000E+000,  0.10000000000E+001
  0.17598892509E+008,  0.20513981379E+007,  0.19000000000E+002,  0.00000000000E+000,  0.10000000000E+001
  0.17599042509E+008,  0.20511530762E+007,  0.19000000000E+002,  0.00000000000E+000,  0.10000000000E+001
  0.17599192509E+008,  0.20509119253E+007,  0.19000000000E+002,  0.00000000000E+000,  0.10000000000E+001
  0.17599342509E+008,  0.20506745918E+007,  0.19000000000E+002,  0.00000000000E+000,  0.10000000000E+001
  0.17599492509E+008,  0.20504409924E+007,  0.19000000000E+002,  0.00000000000E+000,  0.10000000000E+001
  0.17599642509E+008,  0.20502110517E+007,  0.19000000000E+002,  0.00000000000E+000,  0.10000000000E+001
  0.17599792509E+008,  0.20499847014E+007,  0.19000000000E+002,  0.00000000000E+000,  0.10000000000E+001
  0.17599942509E+008,  0.20497618790E+007,  0.19000000000E+002,  0.00000000000E+000,  0.10000000000E+001
  0.17600092509E+008,  0.20495425266E+007,  0.19000000000E+002,  0.00000000000E+000,  0.10000000000E+001
  0.17600242509E+008,  0.20493265905E+007,  0.19000000000E+002,  0.00000000000E+000,  0.10000000000E+001
  0.17600392509E+008,  0.20491140201E+007,  0.19000000000E+002,  0.00000000000E+000,  0.10000000000E+001
  0.17600542509E+008,  0.20489047679E+007,  0.19000000000E+002,  0.00000000000E+000,  0.10000000000E+001
  0.17600692509E+008,  0.20486987882E+007,  0.19000000000E+002,  0.00000000000E+000,  0.10000000000E+001
  0.17600842509E+008,  0.20484960375E+007,  0.19000000000E+002,  0.00000000000E+000,  0.10000000000E+001
  0.17600992509E+008,  0.20482964734E+007,  0.19000000000E+002,  0.00000000000E+000,  0.10000000000E+001
  0.17601142509E+008,  0.20481000549E+007,  0.19000000000E+002,  0.00000000000E+000,  0.10000000000E+001
  0.17601292509E+008,  0.20479067419E+007,  0.19000000000E+002,  0.00000000000E+000,  0.10000000000E+001
  0.17601442509E+008,  0.20477164950E+007,  0.19000000000E+002,  0.00000000000E+000,  0.10000000000E+001
  0.17601592509E+008,  0.20475292753E+007,  0.19000000000E+002,  0.00000000000E+000,  0.10000000000E+001
  0.17601742509E+008,  0.20473450443E+007,  0.19000000000E+002,  0.00000000000E+000,  0.10000000000E+001
  0.17601892509E+008,  0.20471637639E+007,  0.19000000000E+002,  0.00000000000E+000,  0.10000000000E+001
  0.17602042509E+008,  0.20469853962E+007,  0.19000000000E+002,  0.00000000000E+000,  0.10000000000E+001
  0.17602192509E+008,  0.20468099035E+007,  0.19000000000E+002,  0.00000000000E+000,  0.10000000000E+001
  0.17602342509E+008,  0.20466372481E+007,  0.19000000000E+002,  0.00000000000E+000,  0.10000000000E+001
  0.17602492509E+008,  0.20464673925E+007,  0.19000000000E+002,  0.00000000000E+000,  0.10000000000E+001
  0.17602642509E+008,  0.20463002993E+007,  0.19000000000E+002,  0.00000000000E+000,  0.10000000000E+001
  0.17602792509E+008,  0.20461359310E+007,  0.19000000000E+002,  0.00000000000E+000,  0.10000000000E+001
  0.17602942509E+008,  0.20459742504E+007,  0.19000000000E+002,  0.00000000000E+000,  0.10000000000E+001
  0.17603092509E+008,  0.20458152203E+007,  0.19000000000E+002,  0.00000000000E+000,  0.10000000000E+001
  0.17603242509E+008,  0.20456588036E+007,  0.19000000000E+002,  0.00000000000E+000,  0.10000000000E+001
  0.17603392509E+008,  0.20455049631E+007,  0.19000000000E+002,  0.00000000000E+000,  0.10000000000E+001
  0.17603542509E+008,  0.20453536619E+007,  0.19000000000E+002,  0.00000000000E+000,  0.10000000000E+001
  0.17603692509E+008,  0.20452048634E+007,  0.19000000000E+002,  0.00000000000E+000,  0.10000000000E+001
  0.17603842509E+008,  0.20450585310E+007,  0.19000000000E+002,  0.00000000000E+000,  0.10000000000E+001
  0.17603992509E+008,  0.20449146281E+007,  0.19000000000E+002,  0.00000000000E+000,  0.10000000000E+001
  0.17604142509E+008,  0.20447731185E+007,  0.19000000000E+002,  0.00000000000E+000,  0.10000000000E+001
  0.17604292509E+008,  0.20446339664E+007,  0.19000000000E+002,  0.00000000000E+000,  0.10000000000E+001
  0.17604442509E+008,  0.20444971359E+007,  0.19000000000E+002,  0.00000000000E+000,  0.10000000000E+001
  0.17604592509E+008,  0.20443625916E+007,  0.19000000000E+002,  0.00000000000E+000,  0.10000000000E+001
  0.17604742509E+008,  0.20442302983E+007,  0.19000000000E+002,  0.00000000000E+000,  0.10000000000E+001
  0.17604892509E+008,  0.20441002211E+007,  0.19000000000E+002,  0.00000000000E+000,  0.10000000000E+001
  0.17605042509E+008,  0.20439723255E+007,  0.19000000000E+002,  0.00000000000E+000,  0.10000000000E+001
  0.17605192509E+008,  0.20438465771E+007,  0.19000000000E+002,  0.00000000000E+000,  0.10000000000E+001
  0.17605342509E+008,  0.20437229422E+007,  0.19000000000E+002,  0.00000000000E+000,  0.10000000000E+001
  0.17605492509E+008,  0.20436013871E+007,  0.19000000000E+002,  0.00000000000E+000,  0.10000000000E+001
  0.17605642509E+008,  0.20434818788E+007,  0.19000000000E+002,  0.00000000000E+000,  0.10000000000E+001
  0.17605792509E+008,  0.20433643844E+007,  0.19000000000E+002,  0.00000000000E+000,  0.10000000000E+001
  0.17605942509E+008,  0.20432488714E+007,  0.19000000000E+002,  0.00000000000E+000,  0.10000000000E+001
  0.17606092509E+008,  0.20431353081E+007,  0.19000000000E+002,  0.00000000000E+000,  0.10000000000E+001
  0.17606242509E+008,  0.20430236626E+007,  0.19000000000E+002,  0.00000000000E+000,  0.10000000000E+001
  0.17606392509E+008,  0.20429139038E+007,  0.19000000000E+002,  0.00000000000E+000,  0.10000000000E+001
  0.17606542509E+008,  0.20428060009E+007,  0.19000000000E+002,  0.00000000000E+000,  0.10000000000E+001
  0.17606692509E+008,  0.20426999235E+007,  0.19000000000E+002,  0.00000000000E+000,  0.10000000000E+001
  0.17606842509E+008,  0.20425956416E+007,  0.19000000000E+002,  0.00000000000E+000,  0.10000000000E+001
  0.17606992509E+008,  0.20424931257E+007,  0.19000000000E+002,  0.00000000000E+000,  0.10000000000E+001
  0.17607142509E+008,  0.20423923466E+007,  0.19000000000E+002,  0.00000000000E+000,  0.10000000000E+001
  0.17607292509E+008,  0.20422932757E+007,  0.19000000000E+002,  0.00000000000E+000,  0.10000000000E+001
  0.17607442509E+008,  0.20421958844E+007,  0.19000000000E+002,  0.00000000000E+000,  0.10000000000E+001
  0.17607592509E+008,  0.20421001451E+007,  0.19000000000E+002,  0.00000000000E+000,  0.10000000000E+001
  0.17607742509E+008,  0.20420060302E+007,  0.19000000000E+002,  0.00000000000E+000,  0.10000000000E+001
  0.17607892509E+008,  0.20419135125E+007,  0.19000000000E+002,  0.00000000000E+000,  0.10000000000E+001
  0.17608042509E+008,  0.20418225656E+007,  0.19000000000E+002,  0.00000000000E+000,  0.10000000000E+001
  0.17608192509E+008,  0.20417331629E+007,  0.19000000000E+002,  0.00000000000E+000,  0.10000000000E+001
  0.17608342509E+008,  0.20416452789E+007,  0.19000000000E+002,  0.00000000000E+000,  0.10000000000E+001
  0.17608492509E+008,  0.20415588878E+007,  0.19000000000E+002,  0.00000000000E+000,  0.10000000000E+001
  0.17608642509E+008,  0.20414739648E+007,  0.19000000000E+002,  0.00000000000E+000,  0.10000000000E+001
  0.17608792509E+008,  0.20413904851E+007,  0.19000000000E+002,  0.00000000000E+000,  0.10000000000E+001
  0.17608942509E+008,  0.20413084244E+007,  0.19000000000E+002,  0.00000000000E+000,  0.10000000000E+001
  0.17609092509E+008,  0.20412277588E+007,  0.19000000000E+002,  0.00000000000E+000,  0.10000000000E+001
  0.17609242509E+008,  0.20411484649E+007,  0.19000000000E+002,  0.00000000000E+000,  0.10000000000E+001
  0.17609392509E+008,  0.20410705195E+007,  0.19000000000E+002,  0.00000000000E+000,  0.10000000000E+001
  0.17609542509E+008,  0.20409938998E+007,  0.19000000000E+002,  0.00000000000E+000,  0.10000000000E+001
  0.17609692509E+008,  0.20409185834E+007,  0.19000000000E+002,  0.00000000000E+000,  0.10000000000E+001
  0.17609842509E+008,  0.20408445483E+007,  0.19000000000E+002,  0.00000000000E+000,  0.10000000000E+001
  0.17609992509E+008,  0.20407717728E+007,  0.19000000000E+002,  0.00000000000E+000,  0.10000000000E+001
  0.17610142509E+008,  0.20407002356E+007,  0.19000000000E+002,  0.00000000000E+000,  0.10000000000E+001
  0.17610292509E+008,  0.20406299156E+007,  0.19000000000E+002,  0.00000000000E+000,  0.10000000000E+001
  0.17610442509E+008,  0.20405607923E+007,  0.19000000000E+002,  0.00000000000E+000,  0.10000000000E+001
  0.17610592509E+008,  0.20404928453E+007,  0.19000000000E+002,  0.00000000000E+000,  0.10000000000E+001
  0.17610742509E+008,  0.20404260548E+007,  0.19000000000E+002,  0.00000000000E+000,  0.10000000000E+001
  0.17610892509E+008,  0.20403604010E+007,  0.19000000000E+002,  0.00000000000E+000,  0.10000000000E+001
  0.17611042509E+008,  0.20402958646E+007,  0.19000000000E+002,  0.00000000000E+000,  0.10000000000E+001
  0.17611192509E+008,  0.20402324268E+007,  0.19000000000E+002,  0.00000000000E+000,  0.10000000000E+001
  0.17611342509E+008,  0.20401700687E+007,  0.19000000000E+002,  0.00000000000E+000,  0.10000000000E+001
  0.17611492509E+008,  0.20401087720E+007,  0.19000000000E+002,  0.00000000000E+000,  0.10000000000E+001
  0.17611642509E+008,  0.20400485187E+007,  0.19000000000E+002,  0.00000000000E+000,  0.10000000000E+001
  0.17611792509E+008,  0.20399892911E+007,  0.19000000000E+002,  0.00000000000E+000,  0.10000000000E+001
  0.17611942509E+008,  0.20399310716E+007,  0.19000000000E+002,  0.00000000000E+000,  0.10000000000E+001
  0.17612092509E+008,  0.20398738430E+007,  0.19000000000E+002,  0.00000000000E+000,  0.10000000000E+001
  0.17612242509E+008,  0.20398175886E+007,  0.19000000000E+002,  0.00000000000E+000,  0.10000000000E+001
  0.17612392509E+008,  0.20397622917E+007,  0.19000000000E+002,  0.00000000000E+000,  0.10000000000E+001
  0.17612542509E+008,  0.20397079360E+007,  0.19000000000E+002,  0.00000000000E+000,  0.10000000000E+001
  0.17612692509E+008,  0.20396545055E+007,  0.19000000000E+002,  0.00000000000E+000,  0.10000000000E+001
  0.17612842509E+008,  0.20396019843E+007,  0.19000000000E+002,  0.00000000000E+000,  0.10000000000E+001
  0.17612992509E+008,  0.20395503570E+007,  0.19000000000E+002,  0.00000000000E+000,  0.10000000000E+001
  0.17613142509E+008,  0.20394996083E+007,  0.19000000000E+002,  0.00000000000E+000,  0.10000000000E+001
  0.17613292509E+008,  0.20394497232E+007,  0.19000000000E+002,  0.00000000000E+000,  0.10000000000E+001
  0.17613442509E+008,  0.20394006870E+007,  0.19000000000E+002,  0.00000000000E+000,  0.10000000000E+001
  0.17613592509E+008,  0.20393524852E+007,  0.19000000000E+002,  0.00000000000E+000,  0.10000000000E+001
  0.17613742509E+008,  0.20393051035E+007,  0.19000000000E+002,  0.00000000000E+000,  0.10000000000E+001
  0.17613892509E+008,  0.20392585280E+007,  0.19000000000E+002,  0.00000000000E+000,  0.10000000000E+001
  0.17614042509E+008,  0.20392127449E+007,  0.19000000000E+002,  0.00000000000E+000,  0.10000000000E+001
  0.17614192509E+008,  0.20391677406E+007,  0.19000000000E+002,  0.00000000000E+000,  0.10000000000E+001
  0.17614342509E+008,  0.20391235018E+007,  0.19000000000E+002,  0.00000000000E+000,  0.10000000000E+001
  0.17614492509E+008,  0.20390800155E+007,  0.19000000000E+002,  0.00000000000E+000,  0.10000000000E+001
  0.17614642509E+008,  0.20390372688E+007,  0.19000000000E+002,  0.00000000000E+000,  0.10000000000E+001
  0.17614792509E+008,  0.20389952491E+007,  0.19000000000E+002,  0.00000000000E+000,  0.10000000000E+001
  0.17614942509E+008,  0.20389539438E+007,  0.19000000000E+002,  0.00000000000E+000,  0.10000000000E+001
  0.17615092509E+008,  0.20389133409E+007,  0.19000000000E+002,  0.00000000000E+000,  0.10000000000E+001
  0.17615242509E+008,  0.20388734283E+007,  0.19000000000E+002,  0.00000000000E+000,  0.10000000000E+001
  0.17615392509E+008,  0.20388341941E+007,  0.19000000000E+002,  0.00000000000E+000,  0.10000000000E+001
  0.17615542509E+008,  0.20387956269E+007,  0.19000000000E+002,  0.00000000000E+000,  0.10000000000E+001
  0.17615692509E+008,  0.20387577152E+007,  0.19000000000E+002,  0.00000000000E+000,  0.10000000000E+001
  0.17615842509E+008,  0.20387204477E+007,  0.19000000000E+002,  0.00000000000E+000,  0.10000000000E+001
  0.17615992509E+008,  0.20386838134E+007,  0.19000000000E+002,  0.00000000000E+000,  0.10000000000E+001
  0.17616142509E+008,  0.20386478016E+007,  0.19000000000E+002,  0.00000000000E+000,  0.10000000000E+001
  0.17616292509E+008,  0.20386124015E+007,  0.19000000000E+002,  0.00000000000E+000,  0.10000000000E+001
  0.17616442509E+008,  0.20385776028E+007,  0.19000000000E+002,  0.00000000000E+000,  0.10000000000E+001
  0.17616592509E+008,  0.20385433950E+007,  0.19000000000E+002,  0.00000000000E+000,  0.10000000000E+001
  0.17616742509E+008,  0.20385097681E+007,  0.19000000000E+002,  0.00000000000E+000,  0.10000000000E+001
  0.17616892509E+008,  0.20384767121E+007,  0.19000000000E+002,  0.00000000000E+000,  0.10000000000E+001
  0.17617042509E+008,  0.20384442173E+007,  0.19000000000E+002,  0.00000000000E+000,  0.10000000000E+001
  0.17617192509E+008,  0.20384122741E+007,  0.19000000000E+002,  0.00000000000E+000,  0.10000000000E+001
  0.17617342509E+008,  0.20383808732E+007,  0.19000000000E+002,  0.00000000000E+000,  0.10000000000E+001
  0.17617492509E+008,  0.20383500049E+007,  0.19000000000E+002,  0.00000000000E+000,  0.10000000000E+001
  0.17617642509E+008,  0.20383196604E+007,  0.19000000000E+002,  0.00000000000E+000,  0.10000000000E+001
  0.17617792509E+008,  0.20382898305E+007,  0.19000000000E+002,  0.00000000000E+000,  0.10000000000E+001
  0.17617942509E+008,  0.20382605066E+007,  0.19000000000E+002,  0.00000000000E+000,  0.10000000000E+001
  0.17618092509E+008,  0.20382316799E+007,  0.19000000000E+002,  0.00000000000E+000,  0.10000000000E+001
  0.17618242509E+008,  0.20382033421E+007,  0.19000000000E+002,  0.00000000000E+000,  0.10000000000E+001
  0.17618392509E+008,  0.20381754843E+007,  0.19000000000E+002,  0.00000000000E+000,  0.10000000000E+001
  0.17618542509E+008,  0.20381480990E+007,  0.19000000000E+002,  0.00000000000E+000,  0.10000000000E+001
  0.17618692509E+008,  0.20381211773E+007,  0.19000000000E+002,  0.00000000000E+000,  0.10000000000E+001
