"           TIME(S)","              PRES","              TEMP","             SAT_G","             SAT_L"
  0.18228740000E+008,  0.20001482747E+007,  0.19000000000E+002,  0.00000000000E+000,  0.10000000000E+001
  0.18228890000E+008,  0.20002551347E+007,  0.19000000000E+002,  0.00000000000E+000,  0.10000000000E+001
  0.18229040000E+008,  0.20002916062E+007,  0.19000000000E+002,  0.00000000000E+000,  0.10000000000E+001
  0.18229190000E+008,  0.20003162878E+007,  0.19000000000E+002,  0.00000000000E+000,  0.10000000000E+001
  0.18229340000E+008,  0.20003360152E+007,  0.19000000000E+002,  0.00000000000E+000,  0.10000000000E+001
  0.18229490000E+008,  0.20003520922E+007,  0.19000000000E+002,  0.00000000000E+000,  0.10000000000E+001
  0.18229640000E+008,  0.20003652556E+007,  0.19000000000E+002,  0.00000000000E+000,  0.10000000000E+001
  0.18229790000E+008,  0.20003761145E+007,  0.19000000000E+002,  0.00000000000E+000,  0.10000000000E+001
  0.18229940000E+008,  0.20003851706E+007,  0.19000000000E+002,  0.00000000000E+000,  0.10000000000E+001
  0.18230090000E+008,  0.20003928242E+007,  0.19000000000E+002,  0.00000000000E+000,  0.10000000000E+001
  0.18230240000E+008,  0.20003993894E+007,  0.19000000000E+002,  0.00000000000E+000,  0.10000000000E+001
  0.18230390000E+008,  0.20004051105E+007,  0.19000000000E+002,  0.00000000000E+000,  0.10000000000E+001
  0.18230540000E+008,  0.20004101772E+007,  0.19000000000E+002,  0.00000000000E+000,  0.10000000000E+001
  0.18230690000E+008,  0.20004147365E+007,  0.19000000000E+002,  0.00000000000E+000,  0.10000000000E+001
  0.18230840000E+008,  0.20004189022E+007,  0.19000000000E+002,  0.00000000000E+000,  0.10000000000E+001
  0.18230990000E+008,  0.20004227629E+007,  0.19000000000E+002,  0.00000000000E+000,  0.10000000000E+001
  0.18231140000E+008,  0.20004263867E+007,  0.19000000000E+002,  0.00000000000E+000,  0.10000000000E+001
  0.18231290000E+008,  0.20004298271E+007,  0.19000000000E+002,  0.00000000000E+000,  0.10000000000E+001
  0.18231440000E+008,  0.20004331248E+007,  0.19000000000E+002,  0.00000000000E+000,  0.10000000000E+001
  0.18231590000E+008,  0.20004363121E+007,  0.19000000000E+002,  0.00000000000E+000,  0.10000000000E+001
  0.18231740000E+008,  0.20004394135E+007,  0.19000000000E+002,  0.00000000000E+000,  0.10000000000E+001
  0.18231890000E+008,  0.20004424482E+007,  0.19000000000E+002,  0.00000000000E+000,  0.10000000000E+001
  0.18232040000E+008,  0.20004454315E+007,  0.19000000000E+002,  0.00000000000E+000,  0.10000000000E+001
  0.18232190000E+008,  0.20004483745E+007,  0.19000000000E+002,  0.00000000000E+000,  0.10000000000E+001
  0.18232340000E+008,  0.20004512863E+007,  0.19000000000E+002,  0.00000000000E+000,  0.10000000000E+001
  0.18232490000E+008,  0.20004541741E+007,  0.19000000000E+002,  0.00000000000E+000,  0.10000000000E+001
  0.18232640000E+008,  0.20004570430E+007,  0.19000000000E+002,  0.00000000000E+000,  0.10000000000E+001
  0.18232790000E+008,  0.20004598972E+007,  0.19000000000E+002,  0.00000000000E+000,  0.10000000000E+001
  0.18232940000E+008,  0.20004627403E+007,  0.19000000000E+002,  0.00000000000E+000,  0.10000000000E+001
  0.18233090000E+008,  0.20004655745E+007,  0.19000000000E+002,  0.00000000000E+000,  0.10000000000E+001
  0.18233240000E+008,  0.20004684018E+007,  0.19000000000E+002,  0.00000000000E+000,  0.10000000000E+001
  0.18233390000E+008,  0.20004712238E+007,  0.19000000000E+002,  0.00000000000E+000,  0.10000000000E+001
  0.18233540000E+008,  0.20004740417E+007,  0.19000000000E+002,  0.00000000000E+000,  0.10000000000E+001
  0.18233690000E+008,  0.20004768564E+007,  0.19000000000E+002,  0.00000000000E+000,  0.10000000000E+001
  0.18233840000E+008,  0.20004796686E+007,  0.19000000000E+002,  0.00000000000E+000,  0.10000000000E+001
  0.18233990000E+008,  0.20004824791E+007,  0.19000000000E+002,  0.00000000000E+000,  0.10000000000E+001
  0.18234140000E+008,  0.20004852881E+007,  0.19000000000E+002,  0.00000000000E+000,  0.10000000000E+001
  0.18234290000E+008,  0.20004880959E+007,  0.19000000000E+002,  0.00000000000E+000,  0.10000000000E+001
  0.18234440000E+008,  0.20004909028E+007,  0.19000000000E+002,  0.00000000000E+000,  0.10000000000E+001
  0.18234590000E+008,  0.20004937090E+007,  0.19000000000E+002,  0.00000000000E+000,  0.10000000000E+001
  0.18234740000E+008,  0.20004965148E+007,  0.19000000000E+002,  0.00000000000E+000,  0.10000000000E+001
  0.18234890000E+008,  0.20004993200E+007,  0.19000000000E+002,  0.00000000000E+000,  0.10000000000E+001
  0.18235040000E+008,  0.20005021248E+007,  0.19000000000E+002,  0.00000000000E+000,  0.10000000000E+001
  0.18235190000E+008,  0.20005049292E+007,  0.19000000000E+002,  0.00000000000E+000,  0.10000000000E+001
  0.18235340000E+008,  0.20005077335E+007,  0.19000000000E+002,  0.00000000000E+000,  0.10000000000E+001
  0.18235490000E+008,  0.20005105375E+007,  0.19000000000E+002,  0.00000000000E+000,  0.10000000000E+001
  0.18235640000E+008,  0.20005133681E+007,  0.19000000000E+002,  0.00000000000E+000,  0.10000000000E+001
  0.18235715000E+008,  0.20005147739E+007,  0.19000000000E+002,  0.00000000000E+000,  0.10000000000E+001
  0.18235865000E+008,  0.20005175567E+007,  0.19000000000E+002,  0.00000000000E+000,  0.10000000000E+001
  0.18236015000E+008,  0.20005203382E+007,  0.19000000000E+002,  0.00000000000E+000,  0.10000000000E+001
  0.18236165000E+008,  0.20005231249E+007,  0.19000000000E+002,  0.00000000000E+000,  0.10000000000E+001
  0.18236315000E+008,  0.20005259161E+007,  0.19000000000E+002,  0.00000000000E+000,  0.10000000000E+001
  0.18236465000E+008,  0.20005287104E+007,  0.19000000000E+002,  0.00000000000E+000,  0.10000000000E+001
  0.18236615000E+008,  0.20005315071E+007,  0.19000000000E+002,  0.00000000000E+000,  0.10000000000E+001
  0.18236765000E+008,  0.20005343056E+007,  0.19000000000E+002,  0.00000000000E+000,  0.10000000000E+001
  0.18236915000E+008,  0.20005371057E+007,  0.19000000000E+002,  0.00000000000E+000,  0.10000000000E+001
  0.18237065000E+008,  0.20005399067E+007,  0.19000000000E+002,  0.00000000000E+000,  0.10000000000E+001
  0.18237215000E+008,  0.20005427085E+007,  0.19000000000E+002,  0.00000000000E+000,  0.10000000000E+001
  0.18237365000E+008,  0.20005455109E+007,  0.19000000000E+002,  0.00000000000E+000,  0.10000000000E+001
  0.18237515000E+008,  0.20005483138E+007,  0.19000000000E+002,  0.00000000000E+000,  0.10000000000E+001
  0.18237665000E+008,  0.20005511170E+007,  0.19000000000E+002,  0.00000000000E+000,  0.10000000000E+001
  0.18237815000E+008,  0.20005539203E+007,  0.19000000000E+002,  0.00000000000E+000,  0.10000000000E+001
  0.18237965000E+008,  0.20005567238E+007,  0.19000000000E+002,  0.00000000000E+000,  0.10000000000E+001
  0.18238115000E+008,  0.20005595275E+007,  0.19000000000E+002,  0.00000000000E+000,  0.10000000000E+001
  0.18238265000E+008,  0.20005623311E+007,  0.19000000000E+002,  0.00000000000E+000,  0.10000000000E+001
  0.18238415000E+008,  0.20005651347E+007,  0.19000000000E+002,  0.00000000000E+000,  0.10000000000E+001
  0.18238565000E+008,  0.20005679384E+007,  0.19000000000E+002,  0.00000000000E+000,  0.10000000000E+001
  0.18238715000E+008,  0.20005707420E+007,  0.19000000000E+002,  0.00000000000E+000,  0.10000000000E+001
  0.18238865000E+008,  0.20005735457E+007,  0.19000000000E+002,  0.00000000000E+000,  0.10000000000E+001
  0.18239015000E+008,  0.20005763492E+007,  0.19000000000E+002,  0.00000000000E+000,  0.10000000000E+001
  0.18239165000E+008,  0.20005791527E+007,  0.19000000000E+002,  0.00000000000E+000,  0.10000000000E+001
  0.18239315000E+008,  0.20005819562E+007,  0.19000000000E+002,  0.00000000000E+000,  0.10000000000E+001
  0.18239465000E+008,  0.20005847597E+007,  0.19000000000E+002,  0.00000000000E+000,  0.10000000000E+001
  0.18239615000E+008,  0.20005875629E+007,  0.19000000000E+002,  0.00000000000E+000,  0.10000000000E+001
  0.18239765000E+008,  0.20005903661E+007,  0.19000000000E+002,  0.00000000000E+000,  0.10000000000E+001
  0.18239915000E+008,  0.20005931693E+007,  0.19000000000E+002,  0.00000000000E+000,  0.10000000000E+001
  0.18240065000E+008,  0.20005959723E+007,  0.19000000000E+002,  0.00000000000E+000,  0.10000000000E+001
  0.18240215000E+008,  0.20005987753E+007,  0.19000000000E+002,  0.00000000000E+000,  0.10000000000E+001
  0.18240365000E+008,  0.20006015781E+007,  0.19000000000E+002,  0.00000000000E+000,  0.10000000000E+001
  0.18240515000E+008,  0.20006043807E+007,  0.19000000000E+002,  0.00000000000E+000,  0.10000000000E+001
  0.18240665000E+008,  0.20006071834E+007,  0.19000000000E+002,  0.00000000000E+000,  0.10000000000E+001
  0.18240815000E+008,  0.20006099861E+007,  0.19000000000E+002,  0.00000000000E+000,  0.10000000000E+001
  0.18240965000E+008,  0.20006127887E+007,  0.19000000000E+002,  0.00000000000E+000,  0.10000000000E+001
  0.18241115000E+008,  0.20006155913E+007,  0.19000000000E+002,  0.00000000000E+000,  0.10000000000E+001
  0.18241265000E+008,  0.20006183938E+007,  0.19000000000E+002,  0.00000000000E+000,  0.10000000000E+001
  0.18241415000E+008,  0.20006211962E+007,  0.19000000000E+002,  0.00000000000E+000,  0.10000000000E+001
  0.18241565000E+008,  0.20006239986E+007,  0.19000000000E+002,  0.00000000000E+000,  0.10000000000E+001
  0.18241715000E+008,  0.20006268009E+007,  0.19000000000E+002,  0.00000000000E+000,  0.10000000000E+001
  0.18241865000E+008,  0.20006296029E+007,  0.19000000000E+002,  0.00000000000E+000,  0.10000000000E+001
  0.18242015000E+008,  0.20006324048E+007,  0.19000000000E+002,  0.00000000000E+000,  0.10000000000E+001
  0.18242165000E+008,  0.20006352067E+007,  0.19000000000E+002,  0.00000000000E+000,  0.10000000000E+001
  0.18242315000E+008,  0.20006380085E+007,  0.19000000000E+002,  0.00000000000E+000,  0.10000000000E+001
  0.18242465000E+008,  0.20006408099E+007,  0.19000000000E+002,  0.00000000000E+000,  0.10000000000E+001
  0.18242615000E+008,  0.20006436113E+007,  0.19000000000E+002,  0.00000000000E+000,  0.10000000000E+001
  0.18242765000E+008,  0.20006464124E+007,  0.19000000000E+002,  0.00000000000E+000,  0.10000000000E+001
  0.18242915000E+008,  0.20006492135E+007,  0.19000000000E+002,  0.00000000000E+000,  0.10000000000E+001
  0.18243065000E+008,  0.20006520144E+007,  0.19000000000E+002,  0.00000000000E+000,  0.10000000000E+001
  0.18243215000E+008,  0.20006548151E+007,  0.19000000000E+002,  0.00000000000E+000,  0.10000000000E+001
  0.18243365000E+008,  0.20006576156E+007,  0.19000000000E+002,  0.00000000000E+000,  0.10000000000E+001
  0.18243515000E+008,  0.20006604157E+007,  0.19000000000E+002,  0.00000000000E+000,  0.10000000000E+001
  0.18243665000E+008,  0.20006632153E+007,  0.19000000000E+002,  0.00000000000E+000,  0.10000000000E+001
  0.18243815000E+008,  0.20006660143E+007,  0.19000000000E+002,  0.00000000000E+000,  0.10000000000E+001
  0.18243965000E+008,  0.20006688127E+007,  0.19000000000E+002,  0.00000000000E+000,  0.10000000000E+001
  0.18244115000E+008,  0.20006716108E+007,  0.19000000000E+002,  0.00000000000E+000,  0.10000000000E+001
  0.18244265000E+008,  0.20006744084E+007,  0.19000000000E+002,  0.00000000000E+000,  0.10000000000E+001
  0.18244415000E+008,  0.20006772057E+007,  0.19000000000E+002,  0.00000000000E+000,  0.10000000000E+001
  0.18244565000E+008,  0.20006800027E+007,  0.19000000000E+002,  0.00000000000E+000,  0.10000000000E+001
  0.18244715000E+008,  0.20006827993E+007,  0.19000000000E+002,  0.00000000000E+000,  0.10000000000E+001
  0.18244865000E+008,  0.20006855959E+007,  0.19000000000E+002,  0.00000000000E+000,  0.10000000000E+001
  0.18245015000E+008,  0.20006883919E+007,  0.19000000000E+002,  0.00000000000E+000,  0.10000000000E+001
  0.18245165000E+008,  0.20006911873E+007,  0.19000000000E+002,  0.00000000000E+000,  0.10000000000E+001
  0.18245315000E+008,  0.20006939820E+007,  0.19000000000E+002,  0.00000000000E+000,  0.10000000000E+001
  0.18245465000E+008,  0.20006967765E+007,  0.19000000000E+002,  0.00000000000E+000,  0.10000000000E+001
  0.18245615000E+008,  0.20006995704E+007,  0.19000000000E+002,  0.00000000000E+000,  0.10000000000E+001
  0.18245765000E+008,  0.20007023640E+007,  0.19000000000E+002,  0.00000000000E+000,  0.10000000000E+001
  0.18245915000E+008,  0.20007051574E+007,  0.19000000000E+002,  0.00000000000E+000,  0.10000000000E+001
  0.18246065000E+008,  0.20007079507E+007,  0.19000000000E+002,  0.00000000000E+000,  0.10000000000E+001
  0.18246215000E+008,  0.20007107437E+007,  0.19000000000E+002,  0.00000000000E+000,  0.10000000000E+001
  0.18246365000E+008,  0.20007135368E+007,  0.19000000000E+002,  0.00000000000E+000,  0.10000000000E+001
  0.18246515000E+008,  0.20007163298E+007,  0.19000000000E+002,  0.00000000000E+000,  0.10000000000E+001
  0.18246665000E+008,  0.20007191229E+007,  0.19000000000E+002,  0.00000000000E+000,  0.10000000000E+001
  0.18246815000E+008,  0.20007219158E+007,  0.19000000000E+002,  0.00000000000E+000,  0.10000000000E+001
  0.18246965000E+008,  0.20007247086E+007,  0.19000000000E+002,  0.00000000000E+000,  0.10000000000E+001
  0.18247115000E+008,  0.20007275012E+007,  0.19000000000E+002,  0.00000000000E+000,  0.10000000000E+001
  0.18247265000E+008,  0.20007302936E+007,  0.19000000000E+002,  0.00000000000E+000,  0.10000000000E+001
  0.18247415000E+008,  0.20007330857E+007,  0.19000000000E+002,  0.00000000000E+000,  0.10000000000E+001
  0.18247565000E+008,  0.20007358774E+007,  0.19000000000E+002,  0.00000000000E+000,  0.10000000000E+001
  0.18247715000E+008,  0.20007386686E+007,  0.19000000000E+002,  0.00000000000E+000,  0.10000000000E+001
  0.18247865000E+008,  0.20007414597E+007,  0.19000000000E+002,  0.00000000000E+000,  0.10000000000E+001
  0.18248015000E+008,  0.20007442502E+007,  0.19000000000E+002,  0.00000000000E+000,  0.10000000000E+001
  0.18248165000E+008,  0.20007470403E+007,  0.19000000000E+002,  0.00000000000E+000,  0.10000000000E+001
  0.18248315000E+008,  0.20007498302E+007,  0.19000000000E+002,  0.00000000000E+000,  0.10000000000E+001
  0.18248465000E+008,  0.20007526198E+007,  0.19000000000E+002,  0.00000000000E+000,  0.10000000000E+001
  0.18248615000E+008,  0.20007554090E+007,  0.19000000000E+002,  0.00000000000E+000,  0.10000000000E+001
  0.18248765000E+008,  0.20007581979E+007,  0.19000000000E+002,  0.00000000000E+000,  0.10000000000E+001
  0.18248915000E+008,  0.20007609865E+007,  0.19000000000E+002,  0.00000000000E+000,  0.10000000000E+001
  0.18249065000E+008,  0.20007637747E+007,  0.19000000000E+002,  0.00000000000E+000,  0.10000000000E+001
  0.18249215000E+008,  0.20007665625E+007,  0.19000000000E+002,  0.00000000000E+000,  0.10000000000E+001
  0.18249365000E+008,  0.20007693500E+007,  0.19000000000E+002,  0.00000000000E+000,  0.10000000000E+001
  0.18249515000E+008,  0.20007721370E+007,  0.19000000000E+002,  0.00000000000E+000,  0.10000000000E+001
  0.18249665000E+008,  0.20007749234E+007,  0.19000000000E+002,  0.00000000000E+000,  0.10000000000E+001
  0.18249815000E+008,  0.20007777094E+007,  0.19000000000E+002,  0.00000000000E+000,  0.10000000000E+001
  0.18249965000E+008,  0.20007804950E+007,  0.19000000000E+002,  0.00000000000E+000,  0.10000000000E+001
  0.18250115000E+008,  0.20007832800E+007,  0.19000000000E+002,  0.00000000000E+000,  0.10000000000E+001
  0.18250265000E+008,  0.20007860644E+007,  0.19000000000E+002,  0.00000000000E+000,  0.10000000000E+001
  0.18250415000E+008,  0.20007888707E+007,  0.19000000000E+002,  0.00000000000E+000,  0.10000000000E+001
  0.18250490001E+008,  0.20007902749E+007,  0.19000000000E+002,  0.00000000000E+000,  0.10000000000E+001
  0.18250640001E+008,  0.20007930486E+007,  0.19000000000E+002,  0.00000000000E+000,  0.10000000000E+001
  0.18250790001E+008,  0.20007958256E+007,  0.19000000000E+002,  0.00000000000E+000,  0.10000000000E+001
  0.18250865001E+008,  0.20007972196E+007,  0.19000000000E+002,  0.00000000000E+000,  0.10000000000E+001
  0.18251015001E+008,  0.20007999797E+007,  0.19000000000E+002,  0.00000000000E+000,  0.10000000000E+001
  0.18251165001E+008,  0.20008027321E+007,  0.19000000000E+002,  0.00000000000E+000,  0.10000000000E+001
  0.18251315001E+008,  0.20008054874E+007,  0.19000000000E+002,  0.00000000000E+000,  0.10000000000E+001
  0.18251465001E+008,  0.20008082476E+007,  0.19000000000E+002,  0.00000000000E+000,  0.10000000000E+001
  0.18251615001E+008,  0.20008110120E+007,  0.19000000000E+002,  0.00000000000E+000,  0.10000000000E+001
  0.18251765001E+008,  0.20008138144E+007,  0.19000000000E+002,  0.00000000000E+000,  0.10000000000E+001
  0.18251840002E+008,  0.20008152045E+007,  0.19000000000E+002,  0.00000000000E+000,  0.10000000000E+001
  0.18251990002E+008,  0.20008179573E+007,  0.19000000000E+002,  0.00000000000E+000,  0.10000000000E+001
  0.18252140002E+008,  0.20008207067E+007,  0.19000000000E+002,  0.00000000000E+000,  0.10000000000E+001
  0.18252290002E+008,  0.20008234600E+007,  0.19000000000E+002,  0.00000000000E+000,  0.10000000000E+001
  0.18252440002E+008,  0.20008262181E+007,  0.19000000000E+002,  0.00000000000E+000,  0.10000000000E+001
  0.18252590002E+008,  0.20008289803E+007,  0.19000000000E+002,  0.00000000000E+000,  0.10000000000E+001
  0.18252740002E+008,  0.20008317446E+007,  0.19000000000E+002,  0.00000000000E+000,  0.10000000000E+001
  0.18252890002E+008,  0.20008345105E+007,  0.19000000000E+002,  0.00000000000E+000,  0.10000000000E+001
  0.18253040002E+008,  0.20008372773E+007,  0.19000000000E+002,  0.00000000000E+000,  0.10000000000E+001
  0.18253190002E+008,  0.20008400441E+007,  0.19000000000E+002,  0.00000000000E+000,  0.10000000000E+001
  0.18253340002E+008,  0.20008428108E+007,  0.19000000000E+002,  0.00000000000E+000,  0.10000000000E+001
  0.18253490002E+008,  0.20008455767E+007,  0.19000000000E+002,  0.00000000000E+000,  0.10000000000E+001
  0.18253640002E+008,  0.20008483421E+007,  0.19000000000E+002,  0.00000000000E+000,  0.10000000000E+001
  0.18253790002E+008,  0.20008511066E+007,  0.19000000000E+002,  0.00000000000E+000,  0.10000000000E+001
  0.18253940002E+008,  0.20008538697E+007,  0.19000000000E+002,  0.00000000000E+000,  0.10000000000E+001
  0.18254090002E+008,  0.20008566308E+007,  0.19000000000E+002,  0.00000000000E+000,  0.10000000000E+001
  0.18254240002E+008,  0.20008593904E+007,  0.19000000000E+002,  0.00000000000E+000,  0.10000000000E+001
  0.18254390002E+008,  0.20008621487E+007,  0.19000000000E+002,  0.00000000000E+000,  0.10000000000E+001
  0.18254540002E+008,  0.20008649059E+007,  0.19000000000E+002,  0.00000000000E+000,  0.10000000000E+001
  0.18254690002E+008,  0.20008676619E+007,  0.19000000000E+002,  0.00000000000E+000,  0.10000000000E+001
  0.18254840002E+008,  0.20008704169E+007,  0.19000000000E+002,  0.00000000000E+000,  0.10000000000E+001
  0.18254990002E+008,  0.20008731710E+007,  0.19000000000E+002,  0.00000000000E+000,  0.10000000000E+001
  0.18255140002E+008,  0.20008759244E+007,  0.19000000000E+002,  0.00000000000E+000,  0.10000000000E+001
  0.18255290002E+008,  0.20008786770E+007,  0.19000000000E+002,  0.00000000000E+000,  0.10000000000E+001
  0.18255440002E+008,  0.20008814287E+007,  0.19000000000E+002,  0.00000000000E+000,  0.10000000000E+001
  0.18255590002E+008,  0.20008841797E+007,  0.19000000000E+002,  0.00000000000E+000,  0.10000000000E+001
  0.18255740002E+008,  0.20008869301E+007,  0.19000000000E+002,  0.00000000000E+000,  0.10000000000E+001
  0.18255890002E+008,  0.20008896798E+007,  0.19000000000E+002,  0.00000000000E+000,  0.10000000000E+001
  0.18256040002E+008,  0.20008924287E+007,  0.19000000000E+002,  0.00000000000E+000,  0.10000000000E+001
  0.18256190002E+008,  0.20008951740E+007,  0.19000000000E+002,  0.00000000000E+000,  0.10000000000E+001
  0.18256340002E+008,  0.20008979127E+007,  0.19000000000E+002,  0.00000000000E+000,  0.10000000000E+001
  0.18256490002E+008,  0.20009006454E+007,  0.19000000000E+002,  0.00000000000E+000,  0.10000000000E+001
  0.18256640002E+008,  0.20009033706E+007,  0.19000000000E+002,  0.00000000000E+000,  0.10000000000E+001
