"           TIME(S)","              PRES","              TEMP","             SAT_G","             SAT_L"
  0.17592105000E+008,  0.21000000000E+007,  0.19000000000E+002,  0.00000000000E+000,  0.10000000000E+001
  0.17592130000E+008,  0.20999999734E+007,  0.19000000000E+002,  0.00000000000E+000,  0.10000000000E+001
  0.17592255000E+008,  0.20999456951E+007,  0.19000000000E+002,  0.00000000000E+000,  0.10000000000E+001
  0.17592405000E+008,  0.20997366992E+007,  0.19000000000E+002,  0.00000000000E+000,  0.10000000000E+001
  0.17592555000E+008,  0.20993847638E+007,  0.19000000000E+002,  0.00000000000E+000,  0.10000000000E+001
  0.17592705000E+008,  0.20989277568E+007,  0.19000000000E+002,  0.00000000000E+000,  0.10000000000E+001
  0.17592855000E+008,  0.20984084531E+007,  0.19000000000E+002,  0.00000000000E+000,  0.10000000000E+001
  0.17593005000E+008,  0.20978598631E+007,  0.19000000000E+002,  0.00000000000E+000,  0.10000000000E+001
  0.17593155000E+008,  0.20973030058E+007,  0.19000000000E+002,  0.00000000000E+000,  0.10000000000E+001
  0.17593305000E+008,  0.20967495101E+007,  0.19000000000E+002,  0.00000000000E+000,  0.10000000000E+001
  0.17593455000E+008,  0.20962049188E+007,  0.19000000000E+002,  0.00000000000E+000,  0.10000000000E+001
  0.17593605000E+008,  0.20956712970E+007,  0.19000000000E+002,  0.00000000000E+000,  0.10000000000E+001
  0.17593755000E+008,  0.20951489423E+007,  0.19000000000E+002,  0.00000000000E+000,  0.10000000000E+001
  0.17593905000E+008,  0.20946373837E+007,  0.19000000000E+002,  0.00000000000E+000,  0.10000000000E+001
  0.17594055000E+008,  0.20941359128E+007,  0.19000000000E+002,  0.00000000000E+000,  0.10000000000E+001
  0.17594205000E+008,  0.20936438350E+007,  0.19000000000E+002,  0.00000000000E+000,  0.10000000000E+001
  0.17594355000E+008,  0.20931605692E+007,  0.19000000000E+002,  0.00000000000E+000,  0.10000000000E+001
  0.17594505000E+008,  0.20926856701E+007,  0.19000000000E+002,  0.00000000000E+000,  0.10000000000E+001
  0.17594655000E+008,  0.20922188162E+007,  0.19000000000E+002,  0.00000000000E+000,  0.10000000000E+001
  0.17594805000E+008,  0.20917597850E+007,  0.19000000000E+002,  0.00000000000E+000,  0.10000000000E+001
  0.17594955000E+008,  0.20913084268E+007,  0.19000000000E+002,  0.00000000000E+000,  0.10000000000E+001
  0.17595105000E+008,  0.20908646418E+007,  0.19000000000E+002,  0.00000000000E+000,  0.10000000000E+001
  0.17595255000E+008,  0.20904283617E+007,  0.19000000000E+002,  0.00000000000E+000,  0.10000000000E+001
  0.17595405000E+008,  0.20899995353E+007,  0.19000000000E+002,  0.00000000000E+000,  0.10000000000E+001
  0.17595555000E+008,  0.20895745869E+007,  0.19000000000E+002,  0.00000000000E+000,  0.10000000000E+001
  0.17595630000E+008,  0.20893625378E+007,  0.19000000000E+002,  0.00000000000E+000,  0.10000000000E+001
  0.17595667501E+008,  0.20892565555E+007,  0.19000000000E+002,  0.00000000000E+000,  0.10000000000E+001
  0.17595817501E+008,  0.20888330573E+007,  0.19000000000E+002,  0.00000000000E+000,  0.10000000000E+001
  0.17595892501E+008,  0.20886215290E+007,  0.19000000000E+002,  0.00000000000E+000,  0.10000000000E+001
  0.17595930002E+008,  0.20885158382E+007,  0.19000000000E+002,  0.00000000000E+000,  0.10000000000E+001
  0.17596080002E+008,  0.20880947019E+007,  0.19000000000E+002,  0.00000000000E+000,  0.10000000000E+001
  0.17596230002E+008,  0.20876753533E+007,  0.19000000000E+002,  0.00000000000E+000,  0.10000000000E+001
  0.17596305002E+008,  0.20874661144E+007,  0.19000000000E+002,  0.00000000000E+000,  0.10000000000E+001
  0.17596342503E+008,  0.20873615982E+007,  0.19000000000E+002,  0.00000000000E+000,  0.10000000000E+001
  0.17596361253E+008,  0.20873093648E+007,  0.19000000000E+002,  0.00000000000E+000,  0.10000000000E+001
  0.17596370628E+008,  0.20872832542E+007,  0.19000000000E+002,  0.00000000000E+000,  0.10000000000E+001
  0.17596417504E+008,  0.20871528190E+007,  0.19000000000E+002,  0.00000000000E+000,  0.10000000000E+001
  0.17596440943E+008,  0.20870876256E+007,  0.19000000000E+002,  0.00000000000E+000,  0.10000000000E+001
  0.17596558134E+008,  0.20867615767E+007,  0.19000000000E+002,  0.00000000000E+000,  0.10000000000E+001
  0.17596616730E+008,  0.20865984511E+007,  0.19000000000E+002,  0.00000000000E+000,  0.10000000000E+001
  0.17596766730E+008,  0.20861792987E+007,  0.19000000000E+002,  0.00000000000E+000,  0.10000000000E+001
  0.17596841730E+008,  0.20859691762E+007,  0.19000000000E+002,  0.00000000000E+000,  0.10000000000E+001
  0.17596879231E+008,  0.20858639535E+007,  0.19000000000E+002,  0.00000000000E+000,  0.10000000000E+001
  0.17596897981E+008,  0.20858112980E+007,  0.19000000000E+002,  0.00000000000E+000,  0.10000000000E+001
  0.17596907356E+008,  0.20857849587E+007,  0.19000000000E+002,  0.00000000000E+000,  0.10000000000E+001
  0.17596912044E+008,  0.20857717860E+007,  0.19000000000E+002,  0.00000000000E+000,  0.10000000000E+001
  0.17596935482E+008,  0.20857058409E+007,  0.19000000000E+002,  0.00000000000E+000,  0.10000000000E+001
  0.17597052673E+008,  0.20853732510E+007,  0.19000000000E+002,  0.00000000000E+000,  0.10000000000E+001
  0.17597202673E+008,  0.20849422418E+007,  0.19000000000E+002,  0.00000000000E+000,  0.10000000000E+001
  0.17597352673E+008,  0.20845058849E+007,  0.19000000000E+002,  0.00000000000E+000,  0.10000000000E+001
  0.17597502673E+008,  0.20840645067E+007,  0.19000000000E+002,  0.00000000000E+000,  0.10000000000E+001
  0.17597652673E+008,  0.20836186869E+007,  0.19000000000E+002,  0.00000000000E+000,  0.10000000000E+001
  0.17597802673E+008,  0.20831691529E+007,  0.19000000000E+002,  0.00000000000E+000,  0.10000000000E+001
  0.17597952673E+008,  0.20827166880E+007,  0.19000000000E+002,  0.00000000000E+000,  0.10000000000E+001
  0.17598102673E+008,  0.20822620661E+007,  0.19000000000E+002,  0.00000000000E+000,  0.10000000000E+001
  0.17598252673E+008,  0.20818060097E+007,  0.19000000000E+002,  0.00000000000E+000,  0.10000000000E+001
  0.17598402673E+008,  0.20813491695E+007,  0.19000000000E+002,  0.00000000000E+000,  0.10000000000E+001
  0.17598552673E+008,  0.20808921156E+007,  0.19000000000E+002,  0.00000000000E+000,  0.10000000000E+001
  0.17598702673E+008,  0.20804353378E+007,  0.19000000000E+002,  0.00000000000E+000,  0.10000000000E+001
  0.17598852673E+008,  0.20799792503E+007,  0.19000000000E+002,  0.00000000000E+000,  0.10000000000E+001
  0.17599002673E+008,  0.20795241991E+007,  0.19000000000E+002,  0.00000000000E+000,  0.10000000000E+001
  0.17599152673E+008,  0.20790704697E+007,  0.19000000000E+002,  0.00000000000E+000,  0.10000000000E+001
  0.17599302673E+008,  0.20786182955E+007,  0.19000000000E+002,  0.00000000000E+000,  0.10000000000E+001
  0.17599452673E+008,  0.20781678652E+007,  0.19000000000E+002,  0.00000000000E+000,  0.10000000000E+001
  0.17599602673E+008,  0.20777193302E+007,  0.19000000000E+002,  0.00000000000E+000,  0.10000000000E+001
  0.17599752673E+008,  0.20772728102E+007,  0.19000000000E+002,  0.00000000000E+000,  0.10000000000E+001
  0.17599902673E+008,  0.20768283993E+007,  0.19000000000E+002,  0.00000000000E+000,  0.10000000000E+001
  0.17600052673E+008,  0.20763861703E+007,  0.19000000000E+002,  0.00000000000E+000,  0.10000000000E+001
  0.17600202673E+008,  0.20759461785E+007,  0.19000000000E+002,  0.00000000000E+000,  0.10000000000E+001
  0.17600352673E+008,  0.20755084653E+007,  0.19000000000E+002,  0.00000000000E+000,  0.10000000000E+001
  0.17600502673E+008,  0.20750730608E+007,  0.19000000000E+002,  0.00000000000E+000,  0.10000000000E+001
  0.17600652673E+008,  0.20746399861E+007,  0.19000000000E+002,  0.00000000000E+000,  0.10000000000E+001
  0.17600802673E+008,  0.20742092551E+007,  0.19000000000E+002,  0.00000000000E+000,  0.10000000000E+001
  0.17600952673E+008,  0.20737808760E+007,  0.19000000000E+002,  0.00000000000E+000,  0.10000000000E+001
  0.17601102673E+008,  0.20733548526E+007,  0.19000000000E+002,  0.00000000000E+000,  0.10000000000E+001
  0.17601252673E+008,  0.20729311852E+007,  0.19000000000E+002,  0.00000000000E+000,  0.10000000000E+001
  0.17601402673E+008,  0.20725098712E+007,  0.19000000000E+002,  0.00000000000E+000,  0.10000000000E+001
  0.17601552673E+008,  0.20720909060E+007,  0.19000000000E+002,  0.00000000000E+000,  0.10000000000E+001
  0.17601702673E+008,  0.20716742836E+007,  0.19000000000E+002,  0.00000000000E+000,  0.10000000000E+001
  0.17601852673E+008,  0.20712599964E+007,  0.19000000000E+002,  0.00000000000E+000,  0.10000000000E+001
  0.17602002673E+008,  0.20708480361E+007,  0.19000000000E+002,  0.00000000000E+000,  0.10000000000E+001
  0.17602152673E+008,  0.20704383935E+007,  0.19000000000E+002,  0.00000000000E+000,  0.10000000000E+001
  0.17602302673E+008,  0.20700310590E+007,  0.19000000000E+002,  0.00000000000E+000,  0.10000000000E+001
  0.17602452673E+008,  0.20696260226E+007,  0.19000000000E+002,  0.00000000000E+000,  0.10000000000E+001
  0.17602602673E+008,  0.20692232741E+007,  0.19000000000E+002,  0.00000000000E+000,  0.10000000000E+001
  0.17602752673E+008,  0.20688228028E+007,  0.19000000000E+002,  0.00000000000E+000,  0.10000000000E+001
  0.17602902673E+008,  0.20684245981E+007,  0.19000000000E+002,  0.00000000000E+000,  0.10000000000E+001
  0.17603052673E+008,  0.20680286493E+007,  0.19000000000E+002,  0.00000000000E+000,  0.10000000000E+001
  0.17603202673E+008,  0.20676349455E+007,  0.19000000000E+002,  0.00000000000E+000,  0.10000000000E+001
  0.17603352673E+008,  0.20672434760E+007,  0.19000000000E+002,  0.00000000000E+000,  0.10000000000E+001
  0.17603502673E+008,  0.20668542299E+007,  0.19000000000E+002,  0.00000000000E+000,  0.10000000000E+001
  0.17603652673E+008,  0.20664671962E+007,  0.19000000000E+002,  0.00000000000E+000,  0.10000000000E+001
  0.17603802673E+008,  0.20660823642E+007,  0.19000000000E+002,  0.00000000000E+000,  0.10000000000E+001
  0.17603952673E+008,  0.20656997230E+007,  0.19000000000E+002,  0.00000000000E+000,  0.10000000000E+001
  0.17604102673E+008,  0.20653192618E+007,  0.19000000000E+002,  0.00000000000E+000,  0.10000000000E+001
  0.17604252673E+008,  0.20649409698E+007,  0.19000000000E+002,  0.00000000000E+000,  0.10000000000E+001
  0.17604402673E+008,  0.20645648362E+007,  0.19000000000E+002,  0.00000000000E+000,  0.10000000000E+001
  0.17604552673E+008,  0.20641908503E+007,  0.19000000000E+002,  0.00000000000E+000,  0.10000000000E+001
  0.17604702673E+008,  0.20638190013E+007,  0.19000000000E+002,  0.00000000000E+000,  0.10000000000E+001
  0.17604852673E+008,  0.20634492785E+007,  0.19000000000E+002,  0.00000000000E+000,  0.10000000000E+001
  0.17605002673E+008,  0.20630816713E+007,  0.19000000000E+002,  0.00000000000E+000,  0.10000000000E+001
  0.17605152673E+008,  0.20627161691E+007,  0.19000000000E+002,  0.00000000000E+000,  0.10000000000E+001
  0.17605302673E+008,  0.20623527611E+007,  0.19000000000E+002,  0.00000000000E+000,  0.10000000000E+001
  0.17605452673E+008,  0.20619914369E+007,  0.19000000000E+002,  0.00000000000E+000,  0.10000000000E+001
  0.17605602673E+008,  0.20616321858E+007,  0.19000000000E+002,  0.00000000000E+000,  0.10000000000E+001
  0.17605752673E+008,  0.20612749974E+007,  0.19000000000E+002,  0.00000000000E+000,  0.10000000000E+001
  0.17605902673E+008,  0.20609198610E+007,  0.19000000000E+002,  0.00000000000E+000,  0.10000000000E+001
  0.17606052673E+008,  0.20605667662E+007,  0.19000000000E+002,  0.00000000000E+000,  0.10000000000E+001
  0.17606202673E+008,  0.20602157026E+007,  0.19000000000E+002,  0.00000000000E+000,  0.10000000000E+001
  0.17606352673E+008,  0.20598666597E+007,  0.19000000000E+002,  0.00000000000E+000,  0.10000000000E+001
  0.17606502673E+008,  0.20595196270E+007,  0.19000000000E+002,  0.00000000000E+000,  0.10000000000E+001
  0.17606652673E+008,  0.20591745943E+007,  0.19000000000E+002,  0.00000000000E+000,  0.10000000000E+001
  0.17606802673E+008,  0.20588315511E+007,  0.19000000000E+002,  0.00000000000E+000,  0.10000000000E+001
  0.17606952673E+008,  0.20584904872E+007,  0.19000000000E+002,  0.00000000000E+000,  0.10000000000E+001
  0.17607102673E+008,  0.20581513922E+007,  0.19000000000E+002,  0.00000000000E+000,  0.10000000000E+001
  0.17607252673E+008,  0.20578142558E+007,  0.19000000000E+002,  0.00000000000E+000,  0.10000000000E+001
  0.17607402673E+008,  0.20574790678E+007,  0.19000000000E+002,  0.00000000000E+000,  0.10000000000E+001
  0.17607552673E+008,  0.20571458180E+007,  0.19000000000E+002,  0.00000000000E+000,  0.10000000000E+001
  0.17607702673E+008,  0.20568144961E+007,  0.19000000000E+002,  0.00000000000E+000,  0.10000000000E+001
  0.17607852673E+008,  0.20564850922E+007,  0.19000000000E+002,  0.00000000000E+000,  0.10000000000E+001
  0.17608002673E+008,  0.20561575959E+007,  0.19000000000E+002,  0.00000000000E+000,  0.10000000000E+001
  0.17608152673E+008,  0.20558319972E+007,  0.19000000000E+002,  0.00000000000E+000,  0.10000000000E+001
  0.17608302673E+008,  0.20555082860E+007,  0.19000000000E+002,  0.00000000000E+000,  0.10000000000E+001
  0.17608452673E+008,  0.20551864523E+007,  0.19000000000E+002,  0.00000000000E+000,  0.10000000000E+001
  0.17608602673E+008,  0.20548664861E+007,  0.19000000000E+002,  0.00000000000E+000,  0.10000000000E+001
  0.17608752673E+008,  0.20545483775E+007,  0.19000000000E+002,  0.00000000000E+000,  0.10000000000E+001
  0.17608902673E+008,  0.20542321164E+007,  0.19000000000E+002,  0.00000000000E+000,  0.10000000000E+001
  0.17609052673E+008,  0.20539176929E+007,  0.19000000000E+002,  0.00000000000E+000,  0.10000000000E+001
  0.17609202673E+008,  0.20536050973E+007,  0.19000000000E+002,  0.00000000000E+000,  0.10000000000E+001
  0.17609352673E+008,  0.20532943195E+007,  0.19000000000E+002,  0.00000000000E+000,  0.10000000000E+001
  0.17609502673E+008,  0.20529853500E+007,  0.19000000000E+002,  0.00000000000E+000,  0.10000000000E+001
  0.17609652673E+008,  0.20526781787E+007,  0.19000000000E+002,  0.00000000000E+000,  0.10000000000E+001
  0.17609802673E+008,  0.20523727961E+007,  0.19000000000E+002,  0.00000000000E+000,  0.10000000000E+001
  0.17609952673E+008,  0.20520691925E+007,  0.19000000000E+002,  0.00000000000E+000,  0.10000000000E+001
  0.17610102673E+008,  0.20517673580E+007,  0.19000000000E+002,  0.00000000000E+000,  0.10000000000E+001
  0.17610252673E+008,  0.20514672832E+007,  0.19000000000E+002,  0.00000000000E+000,  0.10000000000E+001
  0.17610402673E+008,  0.20511689584E+007,  0.19000000000E+002,  0.00000000000E+000,  0.10000000000E+001
  0.17610552673E+008,  0.20508723741E+007,  0.19000000000E+002,  0.00000000000E+000,  0.10000000000E+001
  0.17610702673E+008,  0.20505775207E+007,  0.19000000000E+002,  0.00000000000E+000,  0.10000000000E+001
  0.17610852673E+008,  0.20502843887E+007,  0.19000000000E+002,  0.00000000000E+000,  0.10000000000E+001
  0.17611002673E+008,  0.20499929687E+007,  0.19000000000E+002,  0.00000000000E+000,  0.10000000000E+001
  0.17611152673E+008,  0.20497032514E+007,  0.19000000000E+002,  0.00000000000E+000,  0.10000000000E+001
  0.17611302673E+008,  0.20494152272E+007,  0.19000000000E+002,  0.00000000000E+000,  0.10000000000E+001
  0.17611452673E+008,  0.20491288869E+007,  0.19000000000E+002,  0.00000000000E+000,  0.10000000000E+001
  0.17611602673E+008,  0.20488442212E+007,  0.19000000000E+002,  0.00000000000E+000,  0.10000000000E+001
  0.17611752673E+008,  0.20485612208E+007,  0.19000000000E+002,  0.00000000000E+000,  0.10000000000E+001
  0.17611902673E+008,  0.20482798765E+007,  0.19000000000E+002,  0.00000000000E+000,  0.10000000000E+001
  0.17612052673E+008,  0.20480001791E+007,  0.19000000000E+002,  0.00000000000E+000,  0.10000000000E+001
  0.17612202673E+008,  0.20477221195E+007,  0.19000000000E+002,  0.00000000000E+000,  0.10000000000E+001
  0.17612352673E+008,  0.20474456886E+007,  0.19000000000E+002,  0.00000000000E+000,  0.10000000000E+001
  0.17612502673E+008,  0.20471708772E+007,  0.19000000000E+002,  0.00000000000E+000,  0.10000000000E+001
  0.17612652673E+008,  0.20468976765E+007,  0.19000000000E+002,  0.00000000000E+000,  0.10000000000E+001
  0.17612802673E+008,  0.20466260773E+007,  0.19000000000E+002,  0.00000000000E+000,  0.10000000000E+001
  0.17612952673E+008,  0.20463560708E+007,  0.19000000000E+002,  0.00000000000E+000,  0.10000000000E+001
  0.17613102673E+008,  0.20460876480E+007,  0.19000000000E+002,  0.00000000000E+000,  0.10000000000E+001
  0.17613252673E+008,  0.20458208000E+007,  0.19000000000E+002,  0.00000000000E+000,  0.10000000000E+001
  0.17613402673E+008,  0.20455555181E+007,  0.19000000000E+002,  0.00000000000E+000,  0.10000000000E+001
  0.17613552673E+008,  0.20452917935E+007,  0.19000000000E+002,  0.00000000000E+000,  0.10000000000E+001
  0.17613702673E+008,  0.20450296173E+007,  0.19000000000E+002,  0.00000000000E+000,  0.10000000000E+001
  0.17613852673E+008,  0.20447689810E+007,  0.19000000000E+002,  0.00000000000E+000,  0.10000000000E+001
  0.17614002673E+008,  0.20445098758E+007,  0.19000000000E+002,  0.00000000000E+000,  0.10000000000E+001
  0.17614152673E+008,  0.20442522931E+007,  0.19000000000E+002,  0.00000000000E+000,  0.10000000000E+001
  0.17614302673E+008,  0.20439962243E+007,  0.19000000000E+002,  0.00000000000E+000,  0.10000000000E+001
  0.17614452673E+008,  0.20437416610E+007,  0.19000000000E+002,  0.00000000000E+000,  0.10000000000E+001
  0.17614602673E+008,  0.20434885944E+007,  0.19000000000E+002,  0.00000000000E+000,  0.10000000000E+001
  0.17614752673E+008,  0.20432370163E+007,  0.19000000000E+002,  0.00000000000E+000,  0.10000000000E+001
  0.17614902673E+008,  0.20429869182E+007,  0.19000000000E+002,  0.00000000000E+000,  0.10000000000E+001
  0.17615052673E+008,  0.20427382916E+007,  0.19000000000E+002,  0.00000000000E+000,  0.10000000000E+001
  0.17615202673E+008,  0.20424911283E+007,  0.19000000000E+002,  0.00000000000E+000,  0.10000000000E+001
  0.17615352673E+008,  0.20422454200E+007,  0.19000000000E+002,  0.00000000000E+000,  0.10000000000E+001
  0.17615502673E+008,  0.20420011584E+007,  0.19000000000E+002,  0.00000000000E+000,  0.10000000000E+001
  0.17615652673E+008,  0.20417583352E+007,  0.19000000000E+002,  0.00000000000E+000,  0.10000000000E+001
  0.17615802673E+008,  0.20415169423E+007,  0.19000000000E+002,  0.00000000000E+000,  0.10000000000E+001
  0.17615952673E+008,  0.20412769715E+007,  0.19000000000E+002,  0.00000000000E+000,  0.10000000000E+001
  0.17616102673E+008,  0.20410384148E+007,  0.19000000000E+002,  0.00000000000E+000,  0.10000000000E+001
  0.17616252673E+008,  0.20408012641E+007,  0.19000000000E+002,  0.00000000000E+000,  0.10000000000E+001
  0.17616402673E+008,  0.20405655113E+007,  0.19000000000E+002,  0.00000000000E+000,  0.10000000000E+001
  0.17616552673E+008,  0.20403311485E+007,  0.19000000000E+002,  0.00000000000E+000,  0.10000000000E+001
  0.17616702673E+008,  0.20400981678E+007,  0.19000000000E+002,  0.00000000000E+000,  0.10000000000E+001
  0.17616852673E+008,  0.20398665612E+007,  0.19000000000E+002,  0.00000000000E+000,  0.10000000000E+001
  0.17617002673E+008,  0.20396363208E+007,  0.19000000000E+002,  0.00000000000E+000,  0.10000000000E+001
  0.17617152673E+008,  0.20394074389E+007,  0.19000000000E+002,  0.00000000000E+000,  0.10000000000E+001
  0.17617302673E+008,  0.20391799077E+007,  0.19000000000E+002,  0.00000000000E+000,  0.10000000000E+001
  0.17617452673E+008,  0.20389537194E+007,  0.19000000000E+002,  0.00000000000E+000,  0.10000000000E+001
  0.17617602673E+008,  0.20387288664E+007,  0.19000000000E+002,  0.00000000000E+000,  0.10000000000E+001
  0.17617752673E+008,  0.20385053409E+007,  0.19000000000E+002,  0.00000000000E+000,  0.10000000000E+001
  0.17617902673E+008,  0.20382831354E+007,  0.19000000000E+002,  0.00000000000E+000,  0.10000000000E+001
  0.17618052673E+008,  0.20380622422E+007,  0.19000000000E+002,  0.00000000000E+000,  0.10000000000E+001
  0.17618202673E+008,  0.20378426539E+007,  0.19000000000E+002,  0.00000000000E+000,  0.10000000000E+001
