"           TIME(S)","              PRES","              TEMP","             SAT_G","             SAT_L"
  0.18228740000E+008,  0.20000001820E+007,  0.19000000000E+002,  0.00000000000E+000,  0.10000000000E+001
  0.18228890000E+008,  0.20000085097E+007,  0.19000000000E+002,  0.00000000000E+000,  0.10000000000E+001
  0.18229040000E+008,  0.20000215568E+007,  0.19000000000E+002,  0.00000000000E+000,  0.10000000000E+001
  0.18229190000E+008,  0.20000357203E+007,  0.19000000000E+002,  0.00000000000E+000,  0.10000000000E+001
  0.18229340000E+008,  0.20000490883E+007,  0.19000000000E+002,  0.00000000000E+000,  0.10000000000E+001
  0.18229490000E+008,  0.20000610718E+007,  0.19000000000E+002,  0.00000000000E+000,  0.10000000000E+001
  0.18229640000E+008,  0.20000717078E+007,  0.19000000000E+002,  0.00000000000E+000,  0.10000000000E+001
  0.18229790000E+008,  0.20000812378E+007,  0.19000000000E+002,  0.00000000000E+000,  0.10000000000E+001
  0.18229940000E+008,  0.20000899233E+007,  0.19000000000E+002,  0.00000000000E+000,  0.10000000000E+001
  0.18230090000E+008,  0.20000979842E+007,  0.19000000000E+002,  0.00000000000E+000,  0.10000000000E+001
  0.18230240000E+008,  0.20001055845E+007,  0.19000000000E+002,  0.00000000000E+000,  0.10000000000E+001
  0.18230315000E+008,  0.20001092857E+007,  0.19000000000E+002,  0.00000000000E+000,  0.10000000000E+001
  0.18230465000E+008,  0.20001163662E+007,  0.19000000000E+002,  0.00000000000E+000,  0.10000000000E+001
  0.18230615000E+008,  0.20001231812E+007,  0.19000000000E+002,  0.00000000000E+000,  0.10000000000E+001
  0.18230765000E+008,  0.20001297820E+007,  0.19000000000E+002,  0.00000000000E+000,  0.10000000000E+001
  0.18230915000E+008,  0.20001362145E+007,  0.19000000000E+002,  0.00000000000E+000,  0.10000000000E+001
  0.18231065000E+008,  0.20001425159E+007,  0.19000000000E+002,  0.00000000000E+000,  0.10000000000E+001
  0.18231215000E+008,  0.20001487141E+007,  0.19000000000E+002,  0.00000000000E+000,  0.10000000000E+001
  0.18231365000E+008,  0.20001548281E+007,  0.19000000000E+002,  0.00000000000E+000,  0.10000000000E+001
  0.18231515000E+008,  0.20001608705E+007,  0.19000000000E+002,  0.00000000000E+000,  0.10000000000E+001
  0.18231665000E+008,  0.20001668486E+007,  0.19000000000E+002,  0.00000000000E+000,  0.10000000000E+001
  0.18231815000E+008,  0.20001727669E+007,  0.19000000000E+002,  0.00000000000E+000,  0.10000000000E+001
  0.18231965000E+008,  0.20001786276E+007,  0.19000000000E+002,  0.00000000000E+000,  0.10000000000E+001
  0.18232115000E+008,  0.20001844321E+007,  0.19000000000E+002,  0.00000000000E+000,  0.10000000000E+001
  0.18232265000E+008,  0.20001901811E+007,  0.19000000000E+002,  0.00000000000E+000,  0.10000000000E+001
  0.18232415000E+008,  0.20001958753E+007,  0.19000000000E+002,  0.00000000000E+000,  0.10000000000E+001
  0.18232565000E+008,  0.20002015151E+007,  0.19000000000E+002,  0.00000000000E+000,  0.10000000000E+001
  0.18232715000E+008,  0.20002071012E+007,  0.19000000000E+002,  0.00000000000E+000,  0.10000000000E+001
  0.18232865000E+008,  0.20002126345E+007,  0.19000000000E+002,  0.00000000000E+000,  0.10000000000E+001
  0.18233015000E+008,  0.20002181157E+007,  0.19000000000E+002,  0.00000000000E+000,  0.10000000000E+001
  0.18233165000E+008,  0.20002235458E+007,  0.19000000000E+002,  0.00000000000E+000,  0.10000000000E+001
  0.18233315000E+008,  0.20002289260E+007,  0.19000000000E+002,  0.00000000000E+000,  0.10000000000E+001
  0.18233465000E+008,  0.20002342572E+007,  0.19000000000E+002,  0.00000000000E+000,  0.10000000000E+001
  0.18233615000E+008,  0.20002395408E+007,  0.19000000000E+002,  0.00000000000E+000,  0.10000000000E+001
  0.18233765000E+008,  0.20002447777E+007,  0.19000000000E+002,  0.00000000000E+000,  0.10000000000E+001
  0.18233915000E+008,  0.20002499694E+007,  0.19000000000E+002,  0.00000000000E+000,  0.10000000000E+001
  0.18234065000E+008,  0.20002551168E+007,  0.19000000000E+002,  0.00000000000E+000,  0.10000000000E+001
  0.18234215000E+008,  0.20002602213E+007,  0.19000000000E+002,  0.00000000000E+000,  0.10000000000E+001
  0.18234365000E+008,  0.20002652830E+007,  0.19000000000E+002,  0.00000000000E+000,  0.10000000000E+001
  0.18234440001E+008,  0.20002678028E+007,  0.19000000000E+002,  0.00000000000E+000,  0.10000000000E+001
  0.18234477501E+008,  0.20002690600E+007,  0.19000000000E+002,  0.00000000000E+000,  0.10000000000E+001
  0.18234627501E+008,  0.20002740297E+007,  0.19000000000E+002,  0.00000000000E+000,  0.10000000000E+001
  0.18234777501E+008,  0.20002789304E+007,  0.19000000000E+002,  0.00000000000E+000,  0.10000000000E+001
  0.18234927501E+008,  0.20002837603E+007,  0.19000000000E+002,  0.00000000000E+000,  0.10000000000E+001
  0.18235077501E+008,  0.20002885241E+007,  0.19000000000E+002,  0.00000000000E+000,  0.10000000000E+001
  0.18235152502E+008,  0.20002908903E+007,  0.19000000000E+002,  0.00000000000E+000,  0.10000000000E+001
  0.18235302502E+008,  0.20002955622E+007,  0.19000000000E+002,  0.00000000000E+000,  0.10000000000E+001
  0.18235452502E+008,  0.20003001751E+007,  0.19000000000E+002,  0.00000000000E+000,  0.10000000000E+001
  0.18235602502E+008,  0.20003047321E+007,  0.19000000000E+002,  0.00000000000E+000,  0.10000000000E+001
  0.18235752502E+008,  0.20003092386E+007,  0.19000000000E+002,  0.00000000000E+000,  0.10000000000E+001
  0.18235902502E+008,  0.20003137011E+007,  0.19000000000E+002,  0.00000000000E+000,  0.10000000000E+001
  0.18236052502E+008,  0.20003181257E+007,  0.19000000000E+002,  0.00000000000E+000,  0.10000000000E+001
  0.18236202502E+008,  0.20003225182E+007,  0.19000000000E+002,  0.00000000000E+000,  0.10000000000E+001
  0.18236352502E+008,  0.20003268832E+007,  0.19000000000E+002,  0.00000000000E+000,  0.10000000000E+001
  0.18236502502E+008,  0.20003312242E+007,  0.19000000000E+002,  0.00000000000E+000,  0.10000000000E+001
  0.18236652502E+008,  0.20003355440E+007,  0.19000000000E+002,  0.00000000000E+000,  0.10000000000E+001
  0.18236802502E+008,  0.20003398445E+007,  0.19000000000E+002,  0.00000000000E+000,  0.10000000000E+001
  0.18236952502E+008,  0.20003441268E+007,  0.19000000000E+002,  0.00000000000E+000,  0.10000000000E+001
  0.18237102502E+008,  0.20003483919E+007,  0.19000000000E+002,  0.00000000000E+000,  0.10000000000E+001
  0.18237252502E+008,  0.20003526404E+007,  0.19000000000E+002,  0.00000000000E+000,  0.10000000000E+001
  0.18237402502E+008,  0.20003568724E+007,  0.19000000000E+002,  0.00000000000E+000,  0.10000000000E+001
  0.18237552502E+008,  0.20003610883E+007,  0.19000000000E+002,  0.00000000000E+000,  0.10000000000E+001
  0.18237702502E+008,  0.20003652882E+007,  0.19000000000E+002,  0.00000000000E+000,  0.10000000000E+001
  0.18237852502E+008,  0.20003694723E+007,  0.19000000000E+002,  0.00000000000E+000,  0.10000000000E+001
  0.18238002502E+008,  0.20003736408E+007,  0.19000000000E+002,  0.00000000000E+000,  0.10000000000E+001
  0.18238152502E+008,  0.20003777939E+007,  0.19000000000E+002,  0.00000000000E+000,  0.10000000000E+001
  0.18238302502E+008,  0.20003819317E+007,  0.19000000000E+002,  0.00000000000E+000,  0.10000000000E+001
  0.18238452502E+008,  0.20003860546E+007,  0.19000000000E+002,  0.00000000000E+000,  0.10000000000E+001
  0.18238602502E+008,  0.20003901628E+007,  0.19000000000E+002,  0.00000000000E+000,  0.10000000000E+001
  0.18238752502E+008,  0.20003942565E+007,  0.19000000000E+002,  0.00000000000E+000,  0.10000000000E+001
  0.18238902502E+008,  0.20003983362E+007,  0.19000000000E+002,  0.00000000000E+000,  0.10000000000E+001
  0.18239052502E+008,  0.20004024020E+007,  0.19000000000E+002,  0.00000000000E+000,  0.10000000000E+001
  0.18239202502E+008,  0.20004064543E+007,  0.19000000000E+002,  0.00000000000E+000,  0.10000000000E+001
  0.18239352502E+008,  0.20004104934E+007,  0.19000000000E+002,  0.00000000000E+000,  0.10000000000E+001
  0.18239502502E+008,  0.20004145197E+007,  0.19000000000E+002,  0.00000000000E+000,  0.10000000000E+001
  0.18239652502E+008,  0.20004185334E+007,  0.19000000000E+002,  0.00000000000E+000,  0.10000000000E+001
  0.18239802502E+008,  0.20004225348E+007,  0.19000000000E+002,  0.00000000000E+000,  0.10000000000E+001
  0.18239952502E+008,  0.20004265243E+007,  0.19000000000E+002,  0.00000000000E+000,  0.10000000000E+001
  0.18240102502E+008,  0.20004305022E+007,  0.19000000000E+002,  0.00000000000E+000,  0.10000000000E+001
  0.18240252502E+008,  0.20004344687E+007,  0.19000000000E+002,  0.00000000000E+000,  0.10000000000E+001
  0.18240402502E+008,  0.20004384242E+007,  0.19000000000E+002,  0.00000000000E+000,  0.10000000000E+001
  0.18240552502E+008,  0.20004423689E+007,  0.19000000000E+002,  0.00000000000E+000,  0.10000000000E+001
  0.18240702502E+008,  0.20004463032E+007,  0.19000000000E+002,  0.00000000000E+000,  0.10000000000E+001
  0.18240852502E+008,  0.20004502272E+007,  0.19000000000E+002,  0.00000000000E+000,  0.10000000000E+001
  0.18241002502E+008,  0.20004541412E+007,  0.19000000000E+002,  0.00000000000E+000,  0.10000000000E+001
  0.18241152502E+008,  0.20004580455E+007,  0.19000000000E+002,  0.00000000000E+000,  0.10000000000E+001
  0.18241302502E+008,  0.20004619403E+007,  0.19000000000E+002,  0.00000000000E+000,  0.10000000000E+001
  0.18241452502E+008,  0.20004658259E+007,  0.19000000000E+002,  0.00000000000E+000,  0.10000000000E+001
  0.18241602502E+008,  0.20004697025E+007,  0.19000000000E+002,  0.00000000000E+000,  0.10000000000E+001
  0.18241752502E+008,  0.20004735703E+007,  0.19000000000E+002,  0.00000000000E+000,  0.10000000000E+001
  0.18241902502E+008,  0.20004774295E+007,  0.19000000000E+002,  0.00000000000E+000,  0.10000000000E+001
  0.18242052502E+008,  0.20004812803E+007,  0.19000000000E+002,  0.00000000000E+000,  0.10000000000E+001
  0.18242202502E+008,  0.20004851230E+007,  0.19000000000E+002,  0.00000000000E+000,  0.10000000000E+001
  0.18242352502E+008,  0.20004889577E+007,  0.19000000000E+002,  0.00000000000E+000,  0.10000000000E+001
  0.18242502502E+008,  0.20004927847E+007,  0.19000000000E+002,  0.00000000000E+000,  0.10000000000E+001
  0.18242652502E+008,  0.20004966041E+007,  0.19000000000E+002,  0.00000000000E+000,  0.10000000000E+001
  0.18242802502E+008,  0.20005004160E+007,  0.19000000000E+002,  0.00000000000E+000,  0.10000000000E+001
  0.18242952502E+008,  0.20005042208E+007,  0.19000000000E+002,  0.00000000000E+000,  0.10000000000E+001
  0.18243102502E+008,  0.20005080185E+007,  0.19000000000E+002,  0.00000000000E+000,  0.10000000000E+001
  0.18243252502E+008,  0.20005118093E+007,  0.19000000000E+002,  0.00000000000E+000,  0.10000000000E+001
  0.18243402502E+008,  0.20005155933E+007,  0.19000000000E+002,  0.00000000000E+000,  0.10000000000E+001
  0.18243552502E+008,  0.20005193708E+007,  0.19000000000E+002,  0.00000000000E+000,  0.10000000000E+001
  0.18243702502E+008,  0.20005231418E+007,  0.19000000000E+002,  0.00000000000E+000,  0.10000000000E+001
  0.18243777502E+008,  0.20005250256E+007,  0.19000000000E+002,  0.00000000000E+000,  0.10000000000E+001
  0.18243927502E+008,  0.20005287846E+007,  0.19000000000E+002,  0.00000000000E+000,  0.10000000000E+001
  0.18244077502E+008,  0.20005325329E+007,  0.19000000000E+002,  0.00000000000E+000,  0.10000000000E+001
  0.18244152503E+008,  0.20005344041E+007,  0.19000000000E+002,  0.00000000000E+000,  0.10000000000E+001
  0.18244302503E+008,  0.20005381304E+007,  0.19000000000E+002,  0.00000000000E+000,  0.10000000000E+001
  0.18244377503E+008,  0.20005399887E+007,  0.19000000000E+002,  0.00000000000E+000,  0.10000000000E+001
  0.18244527503E+008,  0.20005436788E+007,  0.19000000000E+002,  0.00000000000E+000,  0.10000000000E+001
  0.18244677503E+008,  0.20005473374E+007,  0.19000000000E+002,  0.00000000000E+000,  0.10000000000E+001
  0.18244827503E+008,  0.20005509628E+007,  0.19000000000E+002,  0.00000000000E+000,  0.10000000000E+001
  0.18244977503E+008,  0.20005545563E+007,  0.19000000000E+002,  0.00000000000E+000,  0.10000000000E+001
  0.18245127503E+008,  0.20005581210E+007,  0.19000000000E+002,  0.00000000000E+000,  0.10000000000E+001
  0.18245202504E+008,  0.20005598966E+007,  0.19000000000E+002,  0.00000000000E+000,  0.10000000000E+001
  0.18245352504E+008,  0.20005634241E+007,  0.19000000000E+002,  0.00000000000E+000,  0.10000000000E+001
  0.18245502504E+008,  0.20005669304E+007,  0.19000000000E+002,  0.00000000000E+000,  0.10000000000E+001
  0.18245652504E+008,  0.20005704181E+007,  0.19000000000E+002,  0.00000000000E+000,  0.10000000000E+001
  0.18245802504E+008,  0.20005738903E+007,  0.19000000000E+002,  0.00000000000E+000,  0.10000000000E+001
  0.18245952504E+008,  0.20005773500E+007,  0.19000000000E+002,  0.00000000000E+000,  0.10000000000E+001
  0.18246102504E+008,  0.20005808000E+007,  0.19000000000E+002,  0.00000000000E+000,  0.10000000000E+001
  0.18246252504E+008,  0.20005842428E+007,  0.19000000000E+002,  0.00000000000E+000,  0.10000000000E+001
  0.18246402504E+008,  0.20005876805E+007,  0.19000000000E+002,  0.00000000000E+000,  0.10000000000E+001
  0.18246477504E+008,  0.20005893982E+007,  0.19000000000E+002,  0.00000000000E+000,  0.10000000000E+001
  0.18246627504E+008,  0.20005928278E+007,  0.19000000000E+002,  0.00000000000E+000,  0.10000000000E+001
  0.18246777504E+008,  0.20005962495E+007,  0.19000000000E+002,  0.00000000000E+000,  0.10000000000E+001
  0.18246927504E+008,  0.20005996627E+007,  0.19000000000E+002,  0.00000000000E+000,  0.10000000000E+001
  0.18247077504E+008,  0.20006030677E+007,  0.19000000000E+002,  0.00000000000E+000,  0.10000000000E+001
  0.18247227504E+008,  0.20006064657E+007,  0.19000000000E+002,  0.00000000000E+000,  0.10000000000E+001
  0.18247377504E+008,  0.20006098582E+007,  0.19000000000E+002,  0.00000000000E+000,  0.10000000000E+001
  0.18247527504E+008,  0.20006132465E+007,  0.19000000000E+002,  0.00000000000E+000,  0.10000000000E+001
  0.18247677504E+008,  0.20006166320E+007,  0.19000000000E+002,  0.00000000000E+000,  0.10000000000E+001
  0.18247827504E+008,  0.20006200158E+007,  0.19000000000E+002,  0.00000000000E+000,  0.10000000000E+001
  0.18247977504E+008,  0.20006233991E+007,  0.19000000000E+002,  0.00000000000E+000,  0.10000000000E+001
  0.18248127504E+008,  0.20006267826E+007,  0.19000000000E+002,  0.00000000000E+000,  0.10000000000E+001
  0.18248277504E+008,  0.20006301670E+007,  0.19000000000E+002,  0.00000000000E+000,  0.10000000000E+001
  0.18248427504E+008,  0.20006335532E+007,  0.19000000000E+002,  0.00000000000E+000,  0.10000000000E+001
  0.18248577504E+008,  0.20006369417E+007,  0.19000000000E+002,  0.00000000000E+000,  0.10000000000E+001
  0.18248727504E+008,  0.20006403332E+007,  0.19000000000E+002,  0.00000000000E+000,  0.10000000000E+001
  0.18248877504E+008,  0.20006437281E+007,  0.19000000000E+002,  0.00000000000E+000,  0.10000000000E+001
  0.18249027504E+008,  0.20006471270E+007,  0.19000000000E+002,  0.00000000000E+000,  0.10000000000E+001
  0.18249177504E+008,  0.20006505302E+007,  0.19000000000E+002,  0.00000000000E+000,  0.10000000000E+001
  0.18249327504E+008,  0.20006539378E+007,  0.19000000000E+002,  0.00000000000E+000,  0.10000000000E+001
  0.18249477504E+008,  0.20006573500E+007,  0.19000000000E+002,  0.00000000000E+000,  0.10000000000E+001
  0.18249627504E+008,  0.20006607669E+007,  0.19000000000E+002,  0.00000000000E+000,  0.10000000000E+001
  0.18249777504E+008,  0.20006641885E+007,  0.19000000000E+002,  0.00000000000E+000,  0.10000000000E+001
  0.18249927504E+008,  0.20006676148E+007,  0.19000000000E+002,  0.00000000000E+000,  0.10000000000E+001
  0.18250077504E+008,  0.20006710457E+007,  0.19000000000E+002,  0.00000000000E+000,  0.10000000000E+001
  0.18250227504E+008,  0.20006744812E+007,  0.19000000000E+002,  0.00000000000E+000,  0.10000000000E+001
  0.18250377504E+008,  0.20006779212E+007,  0.19000000000E+002,  0.00000000000E+000,  0.10000000000E+001
  0.18250527504E+008,  0.20006813656E+007,  0.19000000000E+002,  0.00000000000E+000,  0.10000000000E+001
  0.18250677504E+008,  0.20006848143E+007,  0.19000000000E+002,  0.00000000000E+000,  0.10000000000E+001
  0.18250827504E+008,  0.20006882672E+007,  0.19000000000E+002,  0.00000000000E+000,  0.10000000000E+001
  0.18250977504E+008,  0.20006917243E+007,  0.19000000000E+002,  0.00000000000E+000,  0.10000000000E+001
  0.18251127504E+008,  0.20006951854E+007,  0.19000000000E+002,  0.00000000000E+000,  0.10000000000E+001
  0.18251277504E+008,  0.20006986505E+007,  0.19000000000E+002,  0.00000000000E+000,  0.10000000000E+001
  0.18251427504E+008,  0.20007021194E+007,  0.19000000000E+002,  0.00000000000E+000,  0.10000000000E+001
  0.18251577504E+008,  0.20007055920E+007,  0.19000000000E+002,  0.00000000000E+000,  0.10000000000E+001
  0.18251727504E+008,  0.20007090684E+007,  0.19000000000E+002,  0.00000000000E+000,  0.10000000000E+001
  0.18251877504E+008,  0.20007125483E+007,  0.19000000000E+002,  0.00000000000E+000,  0.10000000000E+001
  0.18252027504E+008,  0.20007160317E+007,  0.19000000000E+002,  0.00000000000E+000,  0.10000000000E+001
  0.18252177504E+008,  0.20007195186E+007,  0.19000000000E+002,  0.00000000000E+000,  0.10000000000E+001
  0.18252327504E+008,  0.20007230087E+007,  0.19000000000E+002,  0.00000000000E+000,  0.10000000000E+001
  0.18252477504E+008,  0.20007265021E+007,  0.19000000000E+002,  0.00000000000E+000,  0.10000000000E+001
  0.18252627504E+008,  0.20007299986E+007,  0.19000000000E+002,  0.00000000000E+000,  0.10000000000E+001
  0.18252777504E+008,  0.20007334982E+007,  0.19000000000E+002,  0.00000000000E+000,  0.10000000000E+001
  0.18252927504E+008,  0.20007370008E+007,  0.19000000000E+002,  0.00000000000E+000,  0.10000000000E+001
  0.18253077504E+008,  0.20007405064E+007,  0.19000000000E+002,  0.00000000000E+000,  0.10000000000E+001
  0.18253227504E+008,  0.20007440149E+007,  0.19000000000E+002,  0.00000000000E+000,  0.10000000000E+001
  0.18253377504E+008,  0.20007475264E+007,  0.19000000000E+002,  0.00000000000E+000,  0.10000000000E+001
  0.18253527504E+008,  0.20007510410E+007,  0.19000000000E+002,  0.00000000000E+000,  0.10000000000E+001
  0.18253677504E+008,  0.20007545589E+007,  0.19000000000E+002,  0.00000000000E+000,  0.10000000000E+001
  0.18253752505E+008,  0.20007563186E+007,  0.19000000000E+002,  0.00000000000E+000,  0.10000000000E+001
  0.18253902505E+008,  0.20007598396E+007,  0.19000000000E+002,  0.00000000000E+000,  0.10000000000E+001
  0.18254052505E+008,  0.20007633598E+007,  0.19000000000E+002,  0.00000000000E+000,  0.10000000000E+001
  0.18254202505E+008,  0.20007668771E+007,  0.19000000000E+002,  0.00000000000E+000,  0.10000000000E+001
  0.18254352505E+008,  0.20007703910E+007,  0.19000000000E+002,  0.00000000000E+000,  0.10000000000E+001
  0.18254502505E+008,  0.20007739015E+007,  0.19000000000E+002,  0.00000000000E+000,  0.10000000000E+001
  0.18254652505E+008,  0.20007774093E+007,  0.19000000000E+002,  0.00000000000E+000,  0.10000000000E+001
  0.18254802505E+008,  0.20007809154E+007,  0.19000000000E+002,  0.00000000000E+000,  0.10000000000E+001
  0.18254952505E+008,  0.20007844205E+007,  0.19000000000E+002,  0.00000000000E+000,  0.10000000000E+001
  0.18255102505E+008,  0.20007879256E+007,  0.19000000000E+002,  0.00000000000E+000,  0.10000000000E+001
  0.18255252505E+008,  0.20007914315E+007,  0.19000000000E+002,  0.00000000000E+000,  0.10000000000E+001
  0.18255402505E+008,  0.20007949387E+007,  0.19000000000E+002,  0.00000000000E+000,  0.10000000000E+001
  0.18255552505E+008,  0.20007984477E+007,  0.19000000000E+002,  0.00000000000E+000,  0.10000000000E+001
  0.18255702505E+008,  0.20008019591E+007,  0.19000000000E+002,  0.00000000000E+000,  0.10000000000E+001
  0.18255852505E+008,  0.20008054731E+007,  0.19000000000E+002,  0.00000000000E+000,  0.10000000000E+001
  0.18256002505E+008,  0.20008089900E+007,  0.19000000000E+002,  0.00000000000E+000,  0.10000000000E+001
  0.18256152505E+008,  0.20008125099E+007,  0.19000000000E+002,  0.00000000000E+000,  0.10000000000E+001
