"           TIME(S)","              PRES","              TEMP","             SAT_G","             SAT_L"
  0.19073486328E-005,  0.20000000000E+007,  0.19000000000E+002,  0.00000000000E+000,  0.10000000000E+001
  0.11444091797E-004,  0.20000000000E+007,  0.19000000000E+002,  0.00000000000E+000,  0.10000000000E+001
  0.59127807617E-004,  0.20000000000E+007,  0.19000000000E+002,  0.00000000000E+000,  0.10000000000E+001
  0.29754638672E-003,  0.20000000000E+007,  0.19000000000E+002,  0.00000000000E+000,  0.10000000000E+001
  0.14896392822E-002,  0.20000000000E+007,  0.19000000000E+002,  0.00000000000E+000,  0.10000000000E+001
  0.74501037598E-002,  0.20000000000E+007,  0.19000000000E+002,  0.00000000000E+000,  0.10000000000E+001
  0.37252426147E-001,  0.20000000000E+007,  0.19000000000E+002,  0.00000000000E+000,  0.10000000000E+001
  0.18626403809E+000,  0.20000000001E+007,  0.19000000000E+002,  0.00000000000E+000,  0.10000000000E+001
  0.93132209778E+000,  0.20000002247E+007,  0.19000000000E+002,  0.00000000000E+000,  0.10000000000E+001
  0.29313220978E+001,  0.20000046023E+007,  0.19000000000E+002,  0.00000000000E+000,  0.10000000000E+001
  0.49313220978E+001,  0.20000061027E+007,  0.19000000000E+002,  0.00000000000E+000,  0.10000000000E+001
  0.69313220978E+001,  0.19999872608E+007,  0.19000000000E+002,  0.00000000000E+000,  0.10000000000E+001
  0.71813220978E+001,  0.19999845510E+007,  0.19000000000E+002,  0.00000000000E+000,  0.10000000000E+001
  0.84313220978E+001,  0.19999557988E+007,  0.19000000000E+002,  0.00000000000E+000,  0.10000000000E+001
  0.85094471647E+001,  0.19999539408E+007,  0.19000000000E+002,  0.00000000000E+000,  0.10000000000E+001
  0.89000724996E+001,  0.19999429136E+007,  0.19000000000E+002,  0.00000000000E+000,  0.10000000000E+001
  0.90953853672E+001,  0.19999369379E+007,  0.19000000000E+002,  0.00000000000E+000,  0.10000000000E+001
  0.91930419052E+001,  0.19999338310E+007,  0.19000000000E+002,  0.00000000000E+000,  0.10000000000E+001
  0.96813245951E+001,  0.19999148380E+007,  0.19000000000E+002,  0.00000000000E+000,  0.10000000000E+001
  0.11681324595E+002,  0.19997369276E+007,  0.19000000000E+002,  0.00000000000E+000,  0.10000000000E+001
  0.13681324595E+002,  0.19994124885E+007,  0.19000000000E+002,  0.00000000000E+000,  0.10000000000E+001
  0.15681324595E+002,  0.19988960598E+007,  0.19000000000E+002,  0.00000000000E+000,  0.10000000000E+001
  0.17681324595E+002,  0.19981477011E+007,  0.19000000000E+002,  0.00000000000E+000,  0.10000000000E+001
  0.19681324595E+002,  0.19971360507E+007,  0.19000000000E+002,  0.00000000000E+000,  0.10000000000E+001
  0.21681324595E+002,  0.19958397227E+007,  0.19000000000E+002,  0.00000000000E+000,  0.10000000000E+001
  0.23681324595E+002,  0.19942473531E+007,  0.19000000000E+002,  0.00000000000E+000,  0.10000000000E+001
  0.25681324595E+002,  0.19923567671E+007,  0.19000000000E+002,  0.00000000000E+000,  0.10000000000E+001
  0.26681324936E+002,  0.19913371880E+007,  0.19000000000E+002,  0.00000000000E+000,  0.10000000000E+001
  0.28681324936E+002,  0.19890101943E+007,  0.19000000000E+002,  0.00000000000E+000,  0.10000000000E+001
  0.30681324936E+002,  0.19864103695E+007,  0.19000000000E+002,  0.00000000000E+000,  0.10000000000E+001
  0.32681324936E+002,  0.19835569525E+007,  0.19000000000E+002,  0.00000000000E+000,  0.10000000000E+001
  0.34681324936E+002,  0.19804720710E+007,  0.19000000000E+002,  0.00000000000E+000,  0.10000000000E+001
  0.36681324936E+002,  0.19771795348E+007,  0.19000000000E+002,  0.00000000000E+000,  0.10000000000E+001
  0.38681324936E+002,  0.19737038056E+007,  0.19000000000E+002,  0.00000000000E+000,  0.10000000000E+001
  0.40681324936E+002,  0.19700691681E+007,  0.19000000000E+002,  0.00000000000E+000,  0.10000000000E+001
  0.42681324936E+002,  0.19662991174E+007,  0.19000000000E+002,  0.00000000000E+000,  0.10000000000E+001
  0.44681324936E+002,  0.19624159504E+007,  0.19000000000E+002,  0.00000000000E+000,  0.10000000000E+001
  0.46681324936E+002,  0.19584405239E+007,  0.19000000000E+002,  0.00000000000E+000,  0.10000000000E+001
  0.48681324936E+002,  0.19543921299E+007,  0.19000000000E+002,  0.00000000000E+000,  0.10000000000E+001
  0.50681324936E+002,  0.19502884431E+007,  0.19000000000E+002,  0.00000000000E+000,  0.10000000000E+001
  0.52681324936E+002,  0.19461455079E+007,  0.19000000000E+002,  0.00000000000E+000,  0.10000000000E+001
  0.54681324936E+002,  0.19419777480E+007,  0.19000000000E+002,  0.00000000000E+000,  0.10000000000E+001
  0.56681324936E+002,  0.19377979908E+007,  0.19000000000E+002,  0.00000000000E+000,  0.10000000000E+001
  0.58681324936E+002,  0.19336175068E+007,  0.19000000000E+002,  0.00000000000E+000,  0.10000000000E+001
  0.58931324936E+002,  0.19330949586E+007,  0.19000000000E+002,  0.00000000000E+000,  0.10000000000E+001
  0.60181324936E+002,  0.19304849412E+007,  0.19000000000E+002,  0.00000000000E+000,  0.10000000000E+001
  0.62181324936E+002,  0.19263245591E+007,  0.19000000000E+002,  0.00000000000E+000,  0.10000000000E+001
  0.63181325727E+002,  0.19242492783E+007,  0.19000000000E+002,  0.00000000000E+000,  0.10000000000E+001
  0.63681326790E+002,  0.19232129833E+007,  0.19000000000E+002,  0.00000000000E+000,  0.10000000000E+001
  0.65681326790E+002,  0.19190956121E+007,  0.19000000000E+002,  0.00000000000E+000,  0.10000000000E+001
  0.67681326790E+002,  0.19150111379E+007,  0.19000000000E+002,  0.00000000000E+000,  0.10000000000E+001
  0.69681326790E+002,  0.19109635914E+007,  0.19000000000E+002,  0.00000000000E+000,  0.10000000000E+001
  0.71681326790E+002,  0.19069561159E+007,  0.19000000000E+002,  0.00000000000E+000,  0.10000000000E+001
  0.73681326790E+002,  0.19029911286E+007,  0.19000000000E+002,  0.00000000000E+000,  0.10000000000E+001
  0.74681326989E+002,  0.19010195223E+007,  0.19000000000E+002,  0.00000000000E+000,  0.10000000000E+001
  0.75181327102E+002,  0.19000364714E+007,  0.19000000000E+002,  0.00000000000E+000,  0.10000000000E+001
  0.75431327279E+002,  0.18995456373E+007,  0.19000000000E+002,  0.00000000000E+000,  0.10000000000E+001
  0.76681328164E+002,  0.18971091255E+007,  0.19000000000E+002,  0.00000000000E+000,  0.10000000000E+001
  0.78681328164E+002,  0.18932570549E+007,  0.19000000000E+002,  0.00000000000E+000,  0.10000000000E+001
  0.80681328164E+002,  0.18894521584E+007,  0.19000000000E+002,  0.00000000000E+000,  0.10000000000E+001
  0.82681328164E+002,  0.18856950354E+007,  0.19000000000E+002,  0.00000000000E+000,  0.10000000000E+001
  0.84681328164E+002,  0.18819861287E+007,  0.19000000000E+002,  0.00000000000E+000,  0.10000000000E+001
  0.86681328164E+002,  0.18783257626E+007,  0.19000000000E+002,  0.00000000000E+000,  0.10000000000E+001
  0.88681328164E+002,  0.18747141540E+007,  0.19000000000E+002,  0.00000000000E+000,  0.10000000000E+001
  0.90681328164E+002,  0.18711514028E+007,  0.19000000000E+002,  0.00000000000E+000,  0.10000000000E+001
  0.92681328164E+002,  0.18676374734E+007,  0.19000000000E+002,  0.00000000000E+000,  0.10000000000E+001
  0.94681328164E+002,  0.18641721792E+007,  0.19000000000E+002,  0.00000000000E+000,  0.10000000000E+001
  0.96681328164E+002,  0.18607551735E+007,  0.19000000000E+002,  0.00000000000E+000,  0.10000000000E+001
  0.98681328164E+002,  0.18573859506E+007,  0.19000000000E+002,  0.00000000000E+000,  0.10000000000E+001
  0.10068132816E+003,  0.18540638540E+007,  0.19000000000E+002,  0.00000000000E+000,  0.10000000000E+001
  0.10268132816E+003,  0.18507880920E+007,  0.19000000000E+002,  0.00000000000E+000,  0.10000000000E+001
  0.10468132816E+003,  0.18475577576E+007,  0.19000000000E+002,  0.00000000000E+000,  0.10000000000E+001
  0.10568132874E+003,  0.18459538293E+007,  0.19000000000E+002,  0.00000000000E+000,  0.10000000000E+001
  0.10618132920E+003,  0.18451546594E+007,  0.19000000000E+002,  0.00000000000E+000,  0.10000000000E+001
  0.10818132920E+003,  0.18420016332E+007,  0.19000000000E+002,  0.00000000000E+000,  0.10000000000E+001
  0.11018132920E+003,  0.18388912058E+007,  0.19000000000E+002,  0.00000000000E+000,  0.10000000000E+001
  0.11218132920E+003,  0.18358223565E+007,  0.19000000000E+002,  0.00000000000E+000,  0.10000000000E+001
  0.11318132939E+003,  0.18342982049E+007,  0.19000000000E+002,  0.00000000000E+000,  0.10000000000E+001
  0.11518132939E+003,  0.18312901018E+007,  0.19000000000E+002,  0.00000000000E+000,  0.10000000000E+001
  0.11718132939E+003,  0.18283214477E+007,  0.19000000000E+002,  0.00000000000E+000,  0.10000000000E+001
  0.11818133014E+003,  0.18268468977E+007,  0.19000000000E+002,  0.00000000000E+000,  0.10000000000E+001
  0.12018133014E+003,  0.18239363179E+007,  0.19000000000E+002,  0.00000000000E+000,  0.10000000000E+001
  0.12218133014E+003,  0.18210637577E+007,  0.19000000000E+002,  0.00000000000E+000,  0.10000000000E+001
  0.12418133014E+003,  0.18182287593E+007,  0.19000000000E+002,  0.00000000000E+000,  0.10000000000E+001
  0.12618133014E+003,  0.18154308800E+007,  0.19000000000E+002,  0.00000000000E+000,  0.10000000000E+001
  0.12818133014E+003,  0.18126696688E+007,  0.19000000000E+002,  0.00000000000E+000,  0.10000000000E+001
  0.12918133064E+003,  0.18112981738E+007,  0.19000000000E+002,  0.00000000000E+000,  0.10000000000E+001
  0.13118133064E+003,  0.18085911263E+007,  0.19000000000E+002,  0.00000000000E+000,  0.10000000000E+001
  0.13318133064E+003,  0.18059194933E+007,  0.19000000000E+002,  0.00000000000E+000,  0.10000000000E+001
  0.13418133084E+003,  0.18045924632E+007,  0.19000000000E+002,  0.00000000000E+000,  0.10000000000E+001
  0.13618133084E+003,  0.18019729558E+007,  0.19000000000E+002,  0.00000000000E+000,  0.10000000000E+001
  0.13818133084E+003,  0.17993873935E+007,  0.19000000000E+002,  0.00000000000E+000,  0.10000000000E+001
  0.14018133084E+003,  0.17968351434E+007,  0.19000000000E+002,  0.00000000000E+000,  0.10000000000E+001
  0.14218133084E+003,  0.17943155530E+007,  0.19000000000E+002,  0.00000000000E+000,  0.10000000000E+001
  0.14418133084E+003,  0.17918279493E+007,  0.19000000000E+002,  0.00000000000E+000,  0.10000000000E+001
  0.14618133084E+003,  0.17893716362E+007,  0.19000000000E+002,  0.00000000000E+000,  0.10000000000E+001
  0.14818133084E+003,  0.17869458998E+007,  0.19000000000E+002,  0.00000000000E+000,  0.10000000000E+001
  0.15018133084E+003,  0.17845500218E+007,  0.19000000000E+002,  0.00000000000E+000,  0.10000000000E+001
  0.15218133084E+003,  0.17821832983E+007,  0.19000000000E+002,  0.00000000000E+000,  0.10000000000E+001
  0.15418133084E+003,  0.17798450520E+007,  0.19000000000E+002,  0.00000000000E+000,  0.10000000000E+001
  0.15618133084E+003,  0.17775346377E+007,  0.19000000000E+002,  0.00000000000E+000,  0.10000000000E+001
  0.15818133084E+003,  0.17752514458E+007,  0.19000000000E+002,  0.00000000000E+000,  0.10000000000E+001
  0.15918133181E+003,  0.17741165818E+007,  0.19000000000E+002,  0.00000000000E+000,  0.10000000000E+001
  0.15968133290E+003,  0.17735508233E+007,  0.19000000000E+002,  0.00000000000E+000,  0.10000000000E+001
  0.15993133377E+003,  0.17732683611E+007,  0.19000000000E+002,  0.00000000000E+000,  0.10000000000E+001
  0.16118133814E+003,  0.17718663475E+007,  0.19000000000E+002,  0.00000000000E+000,  0.10000000000E+001
  0.16318133814E+003,  0.17696489938E+007,  0.19000000000E+002,  0.00000000000E+000,  0.10000000000E+001
  0.16418133817E+003,  0.17685467237E+007,  0.19000000000E+002,  0.00000000000E+000,  0.10000000000E+001
  0.16468133853E+003,  0.17679971828E+007,  0.19000000000E+002,  0.00000000000E+000,  0.10000000000E+001
  0.16668133853E+003,  0.17658241223E+007,  0.19000000000E+002,  0.00000000000E+000,  0.10000000000E+001
  0.16868133853E+003,  0.17636758498E+007,  0.19000000000E+002,  0.00000000000E+000,  0.10000000000E+001
  0.17068133853E+003,  0.17615521369E+007,  0.19000000000E+002,  0.00000000000E+000,  0.10000000000E+001
  0.17268133853E+003,  0.17594528293E+007,  0.19000000000E+002,  0.00000000000E+000,  0.10000000000E+001
  0.17468133853E+003,  0.17573778115E+007,  0.19000000000E+002,  0.00000000000E+000,  0.10000000000E+001
  0.17668133853E+003,  0.17553269636E+007,  0.19000000000E+002,  0.00000000000E+000,  0.10000000000E+001
  0.17868133853E+003,  0.17533001213E+007,  0.19000000000E+002,  0.00000000000E+000,  0.10000000000E+001
  0.18068133853E+003,  0.17512970509E+007,  0.19000000000E+002,  0.00000000000E+000,  0.10000000000E+001
  0.18168133867E+003,  0.17503014255E+007,  0.19000000000E+002,  0.00000000000E+000,  0.10000000000E+001
  0.18218133912E+003,  0.17498050854E+007,  0.19000000000E+002,  0.00000000000E+000,  0.10000000000E+001
  0.18418133912E+003,  0.17478429379E+007,  0.19000000000E+002,  0.00000000000E+000,  0.10000000000E+001
  0.18618133912E+003,  0.17459036357E+007,  0.19000000000E+002,  0.00000000000E+000,  0.10000000000E+001
  0.18818133912E+003,  0.17439868258E+007,  0.19000000000E+002,  0.00000000000E+000,  0.10000000000E+001
  0.18918134006E+003,  0.17430340017E+007,  0.19000000000E+002,  0.00000000000E+000,  0.10000000000E+001
  0.19118134006E+003,  0.17411503804E+007,  0.19000000000E+002,  0.00000000000E+000,  0.10000000000E+001
  0.19318134006E+003,  0.17392885273E+007,  0.19000000000E+002,  0.00000000000E+000,  0.10000000000E+001
  0.19518134006E+003,  0.17374482075E+007,  0.19000000000E+002,  0.00000000000E+000,  0.10000000000E+001
  0.19718134006E+003,  0.17356291925E+007,  0.19000000000E+002,  0.00000000000E+000,  0.10000000000E+001
  0.19818134017E+003,  0.17347249833E+007,  0.19000000000E+002,  0.00000000000E+000,  0.10000000000E+001
  0.20018134017E+003,  0.17329375124E+007,  0.19000000000E+002,  0.00000000000E+000,  0.10000000000E+001
  0.20118134053E+003,  0.17320489836E+007,  0.19000000000E+002,  0.00000000000E+000,  0.10000000000E+001
  0.20318134053E+003,  0.17302924901E+007,  0.19000000000E+002,  0.00000000000E+000,  0.10000000000E+001
  0.20518134053E+003,  0.17285562977E+007,  0.19000000000E+002,  0.00000000000E+000,  0.10000000000E+001
  0.20718134053E+003,  0.17268401445E+007,  0.19000000000E+002,  0.00000000000E+000,  0.10000000000E+001
  0.20918134053E+003,  0.17251437727E+007,  0.19000000000E+002,  0.00000000000E+000,  0.10000000000E+001
  0.21118134053E+003,  0.17234669271E+007,  0.19000000000E+002,  0.00000000000E+000,  0.10000000000E+001
  0.21318134053E+003,  0.17218093535E+007,  0.19000000000E+002,  0.00000000000E+000,  0.10000000000E+001
  0.21418134081E+003,  0.17209853534E+007,  0.19000000000E+002,  0.00000000000E+000,  0.10000000000E+001
  0.21618134081E+003,  0.17193562532E+007,  0.19000000000E+002,  0.00000000000E+000,  0.10000000000E+001
  0.21818134081E+003,  0.17177458324E+007,  0.19000000000E+002,  0.00000000000E+000,  0.10000000000E+001
  0.22018134081E+003,  0.17161539060E+007,  0.19000000000E+002,  0.00000000000E+000,  0.10000000000E+001
  0.22218134081E+003,  0.17145803310E+007,  0.19000000000E+002,  0.00000000000E+000,  0.10000000000E+001
  0.22418134081E+003,  0.17130250045E+007,  0.19000000000E+002,  0.00000000000E+000,  0.10000000000E+001
  0.22618134081E+003,  0.17114878575E+007,  0.19000000000E+002,  0.00000000000E+000,  0.10000000000E+001
  0.22818134081E+003,  0.17099688464E+007,  0.19000000000E+002,  0.00000000000E+000,  0.10000000000E+001
  0.23018134081E+003,  0.17084679421E+007,  0.19000000000E+002,  0.00000000000E+000,  0.10000000000E+001
  0.23218134081E+003,  0.17069851201E+007,  0.19000000000E+002,  0.00000000000E+000,  0.10000000000E+001
  0.23418134081E+003,  0.17055203529E+007,  0.19000000000E+002,  0.00000000000E+000,  0.10000000000E+001
  0.23618134081E+003,  0.17040736084E+007,  0.19000000000E+002,  0.00000000000E+000,  0.10000000000E+001
  0.23818134081E+003,  0.17026448515E+007,  0.19000000000E+002,  0.00000000000E+000,  0.10000000000E+001
  0.24018134081E+003,  0.17012340465E+007,  0.19000000000E+002,  0.00000000000E+000,  0.10000000000E+001
  0.24218134081E+003,  0.16998411581E+007,  0.19000000000E+002,  0.00000000000E+000,  0.10000000000E+001
  0.24318134246E+003,  0.16991491881E+007,  0.19000000000E+002,  0.00000000000E+000,  0.10000000000E+001
  0.24518134246E+003,  0.16977831171E+007,  0.19000000000E+002,  0.00000000000E+000,  0.10000000000E+001
  0.24718134246E+003,  0.16964348914E+007,  0.19000000000E+002,  0.00000000000E+000,  0.10000000000E+001
  0.24918134246E+003,  0.16951045039E+007,  0.19000000000E+002,  0.00000000000E+000,  0.10000000000E+001
  0.25118134246E+003,  0.16937919674E+007,  0.19000000000E+002,  0.00000000000E+000,  0.10000000000E+001
  0.25218134464E+003,  0.16931401636E+007,  0.19000000000E+002,  0.00000000000E+000,  0.10000000000E+001
  0.25418134464E+003,  0.16918544579E+007,  0.19000000000E+002,  0.00000000000E+000,  0.10000000000E+001
  0.25518134652E+003,  0.16912160846E+007,  0.19000000000E+002,  0.00000000000E+000,  0.10000000000E+001
  0.25568134882E+003,  0.16908980179E+007,  0.19000000000E+002,  0.00000000000E+000,  0.10000000000E+001
  0.25768134882E+003,  0.16896437320E+007,  0.19000000000E+002,  0.00000000000E+000,  0.10000000000E+001
  0.25868135080E+003,  0.16890210872E+007,  0.19000000000E+002,  0.00000000000E+000,  0.10000000000E+001
  0.26068135080E+003,  0.16877938207E+007,  0.19000000000E+002,  0.00000000000E+000,  0.10000000000E+001
  0.26268135080E+003,  0.16865845828E+007,  0.19000000000E+002,  0.00000000000E+000,  0.10000000000E+001
  0.26468135080E+003,  0.16853933620E+007,  0.19000000000E+002,  0.00000000000E+000,  0.10000000000E+001
  0.26668135080E+003,  0.16842201289E+007,  0.19000000000E+002,  0.00000000000E+000,  0.10000000000E+001
  0.26868135080E+003,  0.16830648383E+007,  0.19000000000E+002,  0.00000000000E+000,  0.10000000000E+001
  0.27068135080E+003,  0.16819274302E+007,  0.19000000000E+002,  0.00000000000E+000,  0.10000000000E+001
  0.27268135080E+003,  0.16808078321E+007,  0.19000000000E+002,  0.00000000000E+000,  0.10000000000E+001
  0.27468135080E+003,  0.16797059625E+007,  0.19000000000E+002,  0.00000000000E+000,  0.10000000000E+001
  0.27668135080E+003,  0.16786217369E+007,  0.19000000000E+002,  0.00000000000E+000,  0.10000000000E+001
  0.27868135080E+003,  0.16775550720E+007,  0.19000000000E+002,  0.00000000000E+000,  0.10000000000E+001
  0.28068135080E+003,  0.16765058875E+007,  0.19000000000E+002,  0.00000000000E+000,  0.10000000000E+001
  0.28168135301E+003,  0.16759856545E+007,  0.19000000000E+002,  0.00000000000E+000,  0.10000000000E+001
  0.28368135301E+003,  0.16749625523E+007,  0.19000000000E+002,  0.00000000000E+000,  0.10000000000E+001
  0.28568135301E+003,  0.16739567285E+007,  0.19000000000E+002,  0.00000000000E+000,  0.10000000000E+001
  0.28768135301E+003,  0.16729680923E+007,  0.19000000000E+002,  0.00000000000E+000,  0.10000000000E+001
  0.28968135301E+003,  0.16719965449E+007,  0.19000000000E+002,  0.00000000000E+000,  0.10000000000E+001
  0.29168135301E+003,  0.16710419807E+007,  0.19000000000E+002,  0.00000000000E+000,  0.10000000000E+001
  0.29368135301E+003,  0.16701042875E+007,  0.19000000000E+002,  0.00000000000E+000,  0.10000000000E+001
  0.29568135301E+003,  0.16691833478E+007,  0.19000000000E+002,  0.00000000000E+000,  0.10000000000E+001
  0.29768135301E+003,  0.16682790380E+007,  0.19000000000E+002,  0.00000000000E+000,  0.10000000000E+001
  0.29968135301E+003,  0.16673912282E+007,  0.19000000000E+002,  0.00000000000E+000,  0.10000000000E+001
  0.30168135301E+003,  0.16665197819E+007,  0.19000000000E+002,  0.00000000000E+000,  0.10000000000E+001
  0.30268135595E+003,  0.16660881311E+007,  0.19000000000E+002,  0.00000000000E+000,  0.10000000000E+001
  0.30468135595E+003,  0.16652409787E+007,  0.19000000000E+002,  0.00000000000E+000,  0.10000000000E+001
  0.30668135595E+003,  0.16644098223E+007,  0.19000000000E+002,  0.00000000000E+000,  0.10000000000E+001
  0.30868135595E+003,  0.16635945084E+007,  0.19000000000E+002,  0.00000000000E+000,  0.10000000000E+001
  0.31068135595E+003,  0.16627948832E+007,  0.19000000000E+002,  0.00000000000E+000,  0.10000000000E+001
