"           TIME(S)","              PRES","              TEMP","             SAT_G","             SAT_L"
  0.17592105000E+008,  0.21000000000E+007,  0.19000000000E+002,  0.00000000000E+000,  0.10000000000E+001
  0.17592130000E+008,  0.20999998234E+007,  0.19000000000E+002,  0.00000000000E+000,  0.10000000000E+001
  0.17592255000E+008,  0.20998617031E+007,  0.19000000000E+002,  0.00000000000E+000,  0.10000000000E+001
  0.17592405000E+008,  0.20994218464E+007,  0.19000000000E+002,  0.00000000000E+000,  0.10000000000E+001
  0.17592555000E+008,  0.20987737884E+007,  0.19000000000E+002,  0.00000000000E+000,  0.10000000000E+001
  0.17592705000E+008,  0.20980162024E+007,  0.19000000000E+002,  0.00000000000E+000,  0.10000000000E+001
  0.17592855000E+008,  0.20972244993E+007,  0.19000000000E+002,  0.00000000000E+000,  0.10000000000E+001
  0.17593005000E+008,  0.20964420461E+007,  0.19000000000E+002,  0.00000000000E+000,  0.10000000000E+001
  0.17593155000E+008,  0.20956885939E+007,  0.19000000000E+002,  0.00000000000E+000,  0.10000000000E+001
  0.17593305000E+008,  0.20949701914E+007,  0.19000000000E+002,  0.00000000000E+000,  0.10000000000E+001
  0.17593455000E+008,  0.20942861576E+007,  0.19000000000E+002,  0.00000000000E+000,  0.10000000000E+001
  0.17593605000E+008,  0.20936331111E+007,  0.19000000000E+002,  0.00000000000E+000,  0.10000000000E+001
  0.17593755000E+008,  0.20930070210E+007,  0.19000000000E+002,  0.00000000000E+000,  0.10000000000E+001
  0.17593905000E+008,  0.20924041229E+007,  0.19000000000E+002,  0.00000000000E+000,  0.10000000000E+001
  0.17594055000E+008,  0.20918212441E+007,  0.19000000000E+002,  0.00000000000E+000,  0.10000000000E+001
  0.17594205000E+008,  0.20912558498E+007,  0.19000000000E+002,  0.00000000000E+000,  0.10000000000E+001
  0.17594355000E+008,  0.20907059737E+007,  0.19000000000E+002,  0.00000000000E+000,  0.10000000000E+001
  0.17594505000E+008,  0.20901701133E+007,  0.19000000000E+002,  0.00000000000E+000,  0.10000000000E+001
  0.17594655000E+008,  0.20896471258E+007,  0.19000000000E+002,  0.00000000000E+000,  0.10000000000E+001
  0.17594805000E+008,  0.20891361387E+007,  0.19000000000E+002,  0.00000000000E+000,  0.10000000000E+001
  0.17594955000E+008,  0.20886364786E+007,  0.19000000000E+002,  0.00000000000E+000,  0.10000000000E+001
  0.17595105000E+008,  0.20881476157E+007,  0.19000000000E+002,  0.00000000000E+000,  0.10000000000E+001
  0.17595255000E+008,  0.20876691237E+007,  0.19000000000E+002,  0.00000000000E+000,  0.10000000000E+001
  0.17595405000E+008,  0.20872006493E+007,  0.19000000000E+002,  0.00000000000E+000,  0.10000000000E+001
  0.17595555000E+008,  0.20867401661E+007,  0.19000000000E+002,  0.00000000000E+000,  0.10000000000E+001
  0.17595630000E+008,  0.20865115831E+007,  0.19000000000E+002,  0.00000000000E+000,  0.10000000000E+001
  0.17595667501E+008,  0.20863976615E+007,  0.19000000000E+002,  0.00000000000E+000,  0.10000000000E+001
  0.17595817501E+008,  0.20859466701E+007,  0.19000000000E+002,  0.00000000000E+000,  0.10000000000E+001
  0.17595892501E+008,  0.20857222908E+007,  0.19000000000E+002,  0.00000000000E+000,  0.10000000000E+001
  0.17595930002E+008,  0.20856103780E+007,  0.19000000000E+002,  0.00000000000E+000,  0.10000000000E+001
  0.17596080002E+008,  0.20851671482E+007,  0.19000000000E+002,  0.00000000000E+000,  0.10000000000E+001
  0.17596230002E+008,  0.20847282446E+007,  0.19000000000E+002,  0.00000000000E+000,  0.10000000000E+001
  0.17596305002E+008,  0.20845098507E+007,  0.19000000000E+002,  0.00000000000E+000,  0.10000000000E+001
  0.17596342503E+008,  0.20844009137E+007,  0.19000000000E+002,  0.00000000000E+000,  0.10000000000E+001
  0.17596361253E+008,  0.20843465094E+007,  0.19000000000E+002,  0.00000000000E+000,  0.10000000000E+001
  0.17596370628E+008,  0.20843193232E+007,  0.19000000000E+002,  0.00000000000E+000,  0.10000000000E+001
  0.17596417504E+008,  0.20841837758E+007,  0.19000000000E+002,  0.00000000000E+000,  0.10000000000E+001
  0.17596440943E+008,  0.20841160952E+007,  0.19000000000E+002,  0.00000000000E+000,  0.10000000000E+001
  0.17596558134E+008,  0.20837795828E+007,  0.19000000000E+002,  0.00000000000E+000,  0.10000000000E+001
  0.17596616730E+008,  0.20836117409E+007,  0.19000000000E+002,  0.00000000000E+000,  0.10000000000E+001
  0.17596766730E+008,  0.20831839739E+007,  0.19000000000E+002,  0.00000000000E+000,  0.10000000000E+001
  0.17596841730E+008,  0.20829704511E+007,  0.19000000000E+002,  0.00000000000E+000,  0.10000000000E+001
  0.17596879231E+008,  0.20828637642E+007,  0.19000000000E+002,  0.00000000000E+000,  0.10000000000E+001
  0.17596897981E+008,  0.20828104372E+007,  0.19000000000E+002,  0.00000000000E+000,  0.10000000000E+001
  0.17596907356E+008,  0.20827837775E+007,  0.19000000000E+002,  0.00000000000E+000,  0.10000000000E+001
  0.17596912044E+008,  0.20827704485E+007,  0.19000000000E+002,  0.00000000000E+000,  0.10000000000E+001
  0.17596935482E+008,  0.20827038228E+007,  0.19000000000E+002,  0.00000000000E+000,  0.10000000000E+001
  0.17597052673E+008,  0.20823705901E+007,  0.19000000000E+002,  0.00000000000E+000,  0.10000000000E+001
  0.17597202673E+008,  0.20819431017E+007,  0.19000000000E+002,  0.00000000000E+000,  0.10000000000E+001
  0.17597352673E+008,  0.20815142099E+007,  0.19000000000E+002,  0.00000000000E+000,  0.10000000000E+001
  0.17597502673E+008,  0.20810837461E+007,  0.19000000000E+002,  0.00000000000E+000,  0.10000000000E+001
  0.17597652673E+008,  0.20806517486E+007,  0.19000000000E+002,  0.00000000000E+000,  0.10000000000E+001
  0.17597802673E+008,  0.20802184035E+007,  0.19000000000E+002,  0.00000000000E+000,  0.10000000000E+001
  0.17597952673E+008,  0.20797839905E+007,  0.19000000000E+002,  0.00000000000E+000,  0.10000000000E+001
  0.17598102673E+008,  0.20793488374E+007,  0.19000000000E+002,  0.00000000000E+000,  0.10000000000E+001
  0.17598252673E+008,  0.20789132865E+007,  0.19000000000E+002,  0.00000000000E+000,  0.10000000000E+001
  0.17598402673E+008,  0.20784776717E+007,  0.19000000000E+002,  0.00000000000E+000,  0.10000000000E+001
  0.17598552673E+008,  0.20780423053E+007,  0.19000000000E+002,  0.00000000000E+000,  0.10000000000E+001
  0.17598702673E+008,  0.20776074705E+007,  0.19000000000E+002,  0.00000000000E+000,  0.10000000000E+001
  0.17598852673E+008,  0.20771734183E+007,  0.19000000000E+002,  0.00000000000E+000,  0.10000000000E+001
  0.17599002673E+008,  0.20767403678E+007,  0.19000000000E+002,  0.00000000000E+000,  0.10000000000E+001
  0.17599152673E+008,  0.20763085075E+007,  0.19000000000E+002,  0.00000000000E+000,  0.10000000000E+001
  0.17599302673E+008,  0.20758779980E+007,  0.19000000000E+002,  0.00000000000E+000,  0.10000000000E+001
  0.17599452673E+008,  0.20754489752E+007,  0.19000000000E+002,  0.00000000000E+000,  0.10000000000E+001
  0.17599602673E+008,  0.20750215527E+007,  0.19000000000E+002,  0.00000000000E+000,  0.10000000000E+001
  0.17599752673E+008,  0.20745958253E+007,  0.19000000000E+002,  0.00000000000E+000,  0.10000000000E+001
  0.17599902673E+008,  0.20741718718E+007,  0.19000000000E+002,  0.00000000000E+000,  0.10000000000E+001
  0.17600052673E+008,  0.20737497569E+007,  0.19000000000E+002,  0.00000000000E+000,  0.10000000000E+001
  0.17600202673E+008,  0.20733295339E+007,  0.19000000000E+002,  0.00000000000E+000,  0.10000000000E+001
  0.17600352673E+008,  0.20729112464E+007,  0.19000000000E+002,  0.00000000000E+000,  0.10000000000E+001
  0.17600502673E+008,  0.20724949299E+007,  0.19000000000E+002,  0.00000000000E+000,  0.10000000000E+001
  0.17600652673E+008,  0.20720806131E+007,  0.19000000000E+002,  0.00000000000E+000,  0.10000000000E+001
  0.17600802673E+008,  0.20716683193E+007,  0.19000000000E+002,  0.00000000000E+000,  0.10000000000E+001
  0.17600952673E+008,  0.20712580669E+007,  0.19000000000E+002,  0.00000000000E+000,  0.10000000000E+001
  0.17601102673E+008,  0.20708498707E+007,  0.19000000000E+002,  0.00000000000E+000,  0.10000000000E+001
  0.17601252673E+008,  0.20704437422E+007,  0.19000000000E+002,  0.00000000000E+000,  0.10000000000E+001
  0.17601402673E+008,  0.20700396902E+007,  0.19000000000E+002,  0.00000000000E+000,  0.10000000000E+001
  0.17601552673E+008,  0.20696377214E+007,  0.19000000000E+002,  0.00000000000E+000,  0.10000000000E+001
  0.17601702673E+008,  0.20692378404E+007,  0.19000000000E+002,  0.00000000000E+000,  0.10000000000E+001
  0.17601852673E+008,  0.20688400506E+007,  0.19000000000E+002,  0.00000000000E+000,  0.10000000000E+001
  0.17602002673E+008,  0.20684443536E+007,  0.19000000000E+002,  0.00000000000E+000,  0.10000000000E+001
  0.17602152673E+008,  0.20680507502E+007,  0.19000000000E+002,  0.00000000000E+000,  0.10000000000E+001
  0.17602302673E+008,  0.20676592401E+007,  0.19000000000E+002,  0.00000000000E+000,  0.10000000000E+001
  0.17602452673E+008,  0.20672698219E+007,  0.19000000000E+002,  0.00000000000E+000,  0.10000000000E+001
  0.17602602673E+008,  0.20668824938E+007,  0.19000000000E+002,  0.00000000000E+000,  0.10000000000E+001
  0.17602752673E+008,  0.20664972532E+007,  0.19000000000E+002,  0.00000000000E+000,  0.10000000000E+001
  0.17602902673E+008,  0.20661140968E+007,  0.19000000000E+002,  0.00000000000E+000,  0.10000000000E+001
  0.17603052673E+008,  0.20657330208E+007,  0.19000000000E+002,  0.00000000000E+000,  0.10000000000E+001
  0.17603202673E+008,  0.20653540211E+007,  0.19000000000E+002,  0.00000000000E+000,  0.10000000000E+001
  0.17603352673E+008,  0.20649770930E+007,  0.19000000000E+002,  0.00000000000E+000,  0.10000000000E+001
  0.17603502673E+008,  0.20646022314E+007,  0.19000000000E+002,  0.00000000000E+000,  0.10000000000E+001
  0.17603652673E+008,  0.20642294309E+007,  0.19000000000E+002,  0.00000000000E+000,  0.10000000000E+001
  0.17603802673E+008,  0.20638586858E+007,  0.19000000000E+002,  0.00000000000E+000,  0.10000000000E+001
  0.17603952673E+008,  0.20634899900E+007,  0.19000000000E+002,  0.00000000000E+000,  0.10000000000E+001
  0.17604102673E+008,  0.20631233373E+007,  0.19000000000E+002,  0.00000000000E+000,  0.10000000000E+001
  0.17604252673E+008,  0.20627587210E+007,  0.19000000000E+002,  0.00000000000E+000,  0.10000000000E+001
  0.17604402673E+008,  0.20623961344E+007,  0.19000000000E+002,  0.00000000000E+000,  0.10000000000E+001
  0.17604552673E+008,  0.20620355705E+007,  0.19000000000E+002,  0.00000000000E+000,  0.10000000000E+001
  0.17604702673E+008,  0.20616770220E+007,  0.19000000000E+002,  0.00000000000E+000,  0.10000000000E+001
  0.17604852673E+008,  0.20613204815E+007,  0.19000000000E+002,  0.00000000000E+000,  0.10000000000E+001
  0.17605002673E+008,  0.20609659415E+007,  0.19000000000E+002,  0.00000000000E+000,  0.10000000000E+001
  0.17605152673E+008,  0.20606133943E+007,  0.19000000000E+002,  0.00000000000E+000,  0.10000000000E+001
  0.17605302673E+008,  0.20602628319E+007,  0.19000000000E+002,  0.00000000000E+000,  0.10000000000E+001
  0.17605452673E+008,  0.20599142465E+007,  0.19000000000E+002,  0.00000000000E+000,  0.10000000000E+001
  0.17605602673E+008,  0.20595676298E+007,  0.19000000000E+002,  0.00000000000E+000,  0.10000000000E+001
  0.17605752673E+008,  0.20592229737E+007,  0.19000000000E+002,  0.00000000000E+000,  0.10000000000E+001
  0.17605902673E+008,  0.20588802698E+007,  0.19000000000E+002,  0.00000000000E+000,  0.10000000000E+001
  0.17606052673E+008,  0.20585395097E+007,  0.19000000000E+002,  0.00000000000E+000,  0.10000000000E+001
  0.17606202673E+008,  0.20582006849E+007,  0.19000000000E+002,  0.00000000000E+000,  0.10000000000E+001
  0.17606352673E+008,  0.20578637868E+007,  0.19000000000E+002,  0.00000000000E+000,  0.10000000000E+001
  0.17606502673E+008,  0.20575288067E+007,  0.19000000000E+002,  0.00000000000E+000,  0.10000000000E+001
  0.17606652673E+008,  0.20571957360E+007,  0.19000000000E+002,  0.00000000000E+000,  0.10000000000E+001
  0.17606802673E+008,  0.20568645658E+007,  0.19000000000E+002,  0.00000000000E+000,  0.10000000000E+001
  0.17606952673E+008,  0.20565352874E+007,  0.19000000000E+002,  0.00000000000E+000,  0.10000000000E+001
  0.17607102673E+008,  0.20562078919E+007,  0.19000000000E+002,  0.00000000000E+000,  0.10000000000E+001
  0.17607252673E+008,  0.20558823703E+007,  0.19000000000E+002,  0.00000000000E+000,  0.10000000000E+001
  0.17607402673E+008,  0.20555587137E+007,  0.19000000000E+002,  0.00000000000E+000,  0.10000000000E+001
  0.17607552673E+008,  0.20552369132E+007,  0.19000000000E+002,  0.00000000000E+000,  0.10000000000E+001
  0.17607702673E+008,  0.20549169597E+007,  0.19000000000E+002,  0.00000000000E+000,  0.10000000000E+001
  0.17607852673E+008,  0.20545988442E+007,  0.19000000000E+002,  0.00000000000E+000,  0.10000000000E+001
  0.17608002673E+008,  0.20542825577E+007,  0.19000000000E+002,  0.00000000000E+000,  0.10000000000E+001
  0.17608152673E+008,  0.20539680912E+007,  0.19000000000E+002,  0.00000000000E+000,  0.10000000000E+001
  0.17608302673E+008,  0.20536554355E+007,  0.19000000000E+002,  0.00000000000E+000,  0.10000000000E+001
  0.17608452673E+008,  0.20533445816E+007,  0.19000000000E+002,  0.00000000000E+000,  0.10000000000E+001
  0.17608602673E+008,  0.20530355204E+007,  0.19000000000E+002,  0.00000000000E+000,  0.10000000000E+001
  0.17608752673E+008,  0.20527282429E+007,  0.19000000000E+002,  0.00000000000E+000,  0.10000000000E+001
  0.17608902673E+008,  0.20524227398E+007,  0.19000000000E+002,  0.00000000000E+000,  0.10000000000E+001
  0.17609052673E+008,  0.20521190023E+007,  0.19000000000E+002,  0.00000000000E+000,  0.10000000000E+001
  0.17609202673E+008,  0.20518170212E+007,  0.19000000000E+002,  0.00000000000E+000,  0.10000000000E+001
  0.17609352673E+008,  0.20515167874E+007,  0.19000000000E+002,  0.00000000000E+000,  0.10000000000E+001
  0.17609502673E+008,  0.20512182919E+007,  0.19000000000E+002,  0.00000000000E+000,  0.10000000000E+001
  0.17609652673E+008,  0.20509215256E+007,  0.19000000000E+002,  0.00000000000E+000,  0.10000000000E+001
  0.17609802673E+008,  0.20506264795E+007,  0.19000000000E+002,  0.00000000000E+000,  0.10000000000E+001
  0.17609952673E+008,  0.20503331446E+007,  0.19000000000E+002,  0.00000000000E+000,  0.10000000000E+001
  0.17610102673E+008,  0.20500415118E+007,  0.19000000000E+002,  0.00000000000E+000,  0.10000000000E+001
  0.17610252673E+008,  0.20497515723E+007,  0.19000000000E+002,  0.00000000000E+000,  0.10000000000E+001
  0.17610402673E+008,  0.20494633169E+007,  0.19000000000E+002,  0.00000000000E+000,  0.10000000000E+001
  0.17610552673E+008,  0.20491767369E+007,  0.19000000000E+002,  0.00000000000E+000,  0.10000000000E+001
  0.17610702673E+008,  0.20488918232E+007,  0.19000000000E+002,  0.00000000000E+000,  0.10000000000E+001
  0.17610852673E+008,  0.20486085669E+007,  0.19000000000E+002,  0.00000000000E+000,  0.10000000000E+001
  0.17611002673E+008,  0.20483269592E+007,  0.19000000000E+002,  0.00000000000E+000,  0.10000000000E+001
  0.17611152673E+008,  0.20480469912E+007,  0.19000000000E+002,  0.00000000000E+000,  0.10000000000E+001
  0.17611302673E+008,  0.20477686540E+007,  0.19000000000E+002,  0.00000000000E+000,  0.10000000000E+001
  0.17611452673E+008,  0.20474919390E+007,  0.19000000000E+002,  0.00000000000E+000,  0.10000000000E+001
  0.17611602673E+008,  0.20472168372E+007,  0.19000000000E+002,  0.00000000000E+000,  0.10000000000E+001
  0.17611752673E+008,  0.20469433399E+007,  0.19000000000E+002,  0.00000000000E+000,  0.10000000000E+001
  0.17611902673E+008,  0.20466714385E+007,  0.19000000000E+002,  0.00000000000E+000,  0.10000000000E+001
  0.17612052673E+008,  0.20464011242E+007,  0.19000000000E+002,  0.00000000000E+000,  0.10000000000E+001
  0.17612202673E+008,  0.20461323884E+007,  0.19000000000E+002,  0.00000000000E+000,  0.10000000000E+001
  0.17612352673E+008,  0.20458652224E+007,  0.19000000000E+002,  0.00000000000E+000,  0.10000000000E+001
  0.17612502673E+008,  0.20455996176E+007,  0.19000000000E+002,  0.00000000000E+000,  0.10000000000E+001
  0.17612652673E+008,  0.20453355655E+007,  0.19000000000E+002,  0.00000000000E+000,  0.10000000000E+001
  0.17612802673E+008,  0.20450730574E+007,  0.19000000000E+002,  0.00000000000E+000,  0.10000000000E+001
  0.17612952673E+008,  0.20448120850E+007,  0.19000000000E+002,  0.00000000000E+000,  0.10000000000E+001
  0.17613102673E+008,  0.20445526397E+007,  0.19000000000E+002,  0.00000000000E+000,  0.10000000000E+001
  0.17613252673E+008,  0.20442947132E+007,  0.19000000000E+002,  0.00000000000E+000,  0.10000000000E+001
  0.17613402673E+008,  0.20440382969E+007,  0.19000000000E+002,  0.00000000000E+000,  0.10000000000E+001
  0.17613552673E+008,  0.20437833825E+007,  0.19000000000E+002,  0.00000000000E+000,  0.10000000000E+001
  0.17613702673E+008,  0.20435299617E+007,  0.19000000000E+002,  0.00000000000E+000,  0.10000000000E+001
  0.17613852673E+008,  0.20432780261E+007,  0.19000000000E+002,  0.00000000000E+000,  0.10000000000E+001
  0.17614002673E+008,  0.20430275676E+007,  0.19000000000E+002,  0.00000000000E+000,  0.10000000000E+001
  0.17614152673E+008,  0.20427785778E+007,  0.19000000000E+002,  0.00000000000E+000,  0.10000000000E+001
  0.17614302673E+008,  0.20425310486E+007,  0.19000000000E+002,  0.00000000000E+000,  0.10000000000E+001
  0.17614452673E+008,  0.20422849717E+007,  0.19000000000E+002,  0.00000000000E+000,  0.10000000000E+001
  0.17614602673E+008,  0.20420403392E+007,  0.19000000000E+002,  0.00000000000E+000,  0.10000000000E+001
  0.17614752673E+008,  0.20417971428E+007,  0.19000000000E+002,  0.00000000000E+000,  0.10000000000E+001
  0.17614902673E+008,  0.20415553745E+007,  0.19000000000E+002,  0.00000000000E+000,  0.10000000000E+001
  0.17615052673E+008,  0.20413150264E+007,  0.19000000000E+002,  0.00000000000E+000,  0.10000000000E+001
  0.17615202673E+008,  0.20410760903E+007,  0.19000000000E+002,  0.00000000000E+000,  0.10000000000E+001
  0.17615352673E+008,  0.20408385584E+007,  0.19000000000E+002,  0.00000000000E+000,  0.10000000000E+001
  0.17615502673E+008,  0.20406024227E+007,  0.19000000000E+002,  0.00000000000E+000,  0.10000000000E+001
  0.17615652673E+008,  0.20403676755E+007,  0.19000000000E+002,  0.00000000000E+000,  0.10000000000E+001
  0.17615802673E+008,  0.20401343087E+007,  0.19000000000E+002,  0.00000000000E+000,  0.10000000000E+001
  0.17615952673E+008,  0.20399023147E+007,  0.19000000000E+002,  0.00000000000E+000,  0.10000000000E+001
  0.17616102673E+008,  0.20396716856E+007,  0.19000000000E+002,  0.00000000000E+000,  0.10000000000E+001
  0.17616252673E+008,  0.20394424138E+007,  0.19000000000E+002,  0.00000000000E+000,  0.10000000000E+001
  0.17616402673E+008,  0.20392144915E+007,  0.19000000000E+002,  0.00000000000E+000,  0.10000000000E+001
  0.17616552673E+008,  0.20389879111E+007,  0.19000000000E+002,  0.00000000000E+000,  0.10000000000E+001
  0.17616702673E+008,  0.20387626650E+007,  0.19000000000E+002,  0.00000000000E+000,  0.10000000000E+001
  0.17616852673E+008,  0.20385387456E+007,  0.19000000000E+002,  0.00000000000E+000,  0.10000000000E+001
  0.17617002673E+008,  0.20383161453E+007,  0.19000000000E+002,  0.00000000000E+000,  0.10000000000E+001
  0.17617152673E+008,  0.20380948566E+007,  0.19000000000E+002,  0.00000000000E+000,  0.10000000000E+001
  0.17617302673E+008,  0.20378748721E+007,  0.19000000000E+002,  0.00000000000E+000,  0.10000000000E+001
  0.17617452673E+008,  0.20376561843E+007,  0.19000000000E+002,  0.00000000000E+000,  0.10000000000E+001
  0.17617602673E+008,  0.20374387859E+007,  0.19000000000E+002,  0.00000000000E+000,  0.10000000000E+001
  0.17617752673E+008,  0.20372226694E+007,  0.19000000000E+002,  0.00000000000E+000,  0.10000000000E+001
  0.17617902673E+008,  0.20370078275E+007,  0.19000000000E+002,  0.00000000000E+000,  0.10000000000E+001
  0.17618052673E+008,  0.20367942530E+007,  0.19000000000E+002,  0.00000000000E+000,  0.10000000000E+001
  0.17618202673E+008,  0.20365819387E+007,  0.19000000000E+002,  0.00000000000E+000,  0.10000000000E+001
