"           TIME(S)","              PRES","              TEMP","             SAT_G","             SAT_L"
  0.17593600000E+008,  0.20920848755E+007,  0.19000000000E+002,  0.00000000000E+000,  0.10000000000E+001
  0.17601100000E+008,  0.20703090452E+007,  0.19000000000E+002,  0.00000000000E+000,  0.10000000000E+001
  0.17616100000E+008,  0.20445210329E+007,  0.19000000000E+002,  0.00000000000E+000,  0.10000000000E+001
  0.17631100000E+008,  0.20283010823E+007,  0.19000000000E+002,  0.00000000000E+000,  0.10000000000E+001
  0.17646100000E+008,  0.20181132532E+007,  0.19000000000E+002,  0.00000000000E+000,  0.10000000000E+001
  0.17661100000E+008,  0.20117292174E+007,  0.19000000000E+002,  0.00000000000E+000,  0.10000000000E+001
  0.17676100000E+008,  0.20077338803E+007,  0.19000000000E+002,  0.00000000000E+000,  0.10000000000E+001
  0.17691100000E+008,  0.20052351822E+007,  0.19000000000E+002,  0.00000000000E+000,  0.10000000000E+001
  0.17706100000E+008,  0.20036730885E+007,  0.19000000000E+002,  0.00000000000E+000,  0.10000000000E+001
  0.17721100000E+008,  0.20026967442E+007,  0.19000000000E+002,  0.00000000000E+000,  0.10000000000E+001
  0.17736100000E+008,  0.20020865886E+007,  0.19000000000E+002,  0.00000000000E+000,  0.10000000000E+001
  0.17751100000E+008,  0.20017053098E+007,  0.19000000000E+002,  0.00000000000E+000,  0.10000000000E+001
  0.17766100000E+008,  0.20014670653E+007,  0.19000000000E+002,  0.00000000000E+000,  0.10000000000E+001
  0.17781100000E+008,  0.20013182014E+007,  0.19000000000E+002,  0.00000000000E+000,  0.10000000000E+001
  0.17796100000E+008,  0.20012251875E+007,  0.19000000000E+002,  0.00000000000E+000,  0.10000000000E+001
  0.17811100000E+008,  0.20011670712E+007,  0.19000000000E+002,  0.00000000000E+000,  0.10000000000E+001
  0.17826100000E+008,  0.20011307591E+007,  0.19000000000E+002,  0.00000000000E+000,  0.10000000000E+001
  0.17841100000E+008,  0.20011080709E+007,  0.19000000000E+002,  0.00000000000E+000,  0.10000000000E+001
  0.17856100000E+008,  0.20010938952E+007,  0.19000000000E+002,  0.00000000000E+000,  0.10000000000E+001
  0.17871100000E+008,  0.20011307880E+007,  0.19000000000E+002,  0.00000000000E+000,  0.10000000000E+001
  0.17886100000E+008,  0.20011589704E+007,  0.19000000000E+002,  0.00000000000E+000,  0.10000000000E+001
  0.17901100000E+008,  0.20011762987E+007,  0.19000000000E+002,  0.00000000000E+000,  0.10000000000E+001
  0.17916100000E+008,  0.20012047324E+007,  0.19000000000E+002,  0.00000000000E+000,  0.10000000000E+001
  0.17931100000E+008,  0.20012484896E+007,  0.19000000000E+002,  0.00000000000E+000,  0.10000000000E+001
  0.17946100000E+008,  0.20012753774E+007,  0.19000000000E+002,  0.00000000000E+000,  0.10000000000E+001
  0.17961100000E+008,  0.20012902578E+007,  0.19000000000E+002,  0.00000000000E+000,  0.10000000000E+001
  0.17976100000E+008,  0.20012970951E+007,  0.19000000000E+002,  0.00000000000E+000,  0.10000000000E+001
  0.17991100000E+008,  0.20012994920E+007,  0.19000000000E+002,  0.00000000000E+000,  0.10000000000E+001
  0.18006100000E+008,  0.20012993262E+007,  0.19000000000E+002,  0.00000000000E+000,  0.10000000000E+001
  0.18021100000E+008,  0.20012980816E+007,  0.19000000000E+002,  0.00000000000E+000,  0.10000000000E+001
  0.18036100000E+008,  0.20012966183E+007,  0.19000000000E+002,  0.00000000000E+000,  0.10000000000E+001
  0.18051100000E+008,  0.20012943154E+007,  0.19000000000E+002,  0.00000000000E+000,  0.10000000000E+001
  0.18066100000E+008,  0.20012915177E+007,  0.19000000000E+002,  0.00000000000E+000,  0.10000000000E+001
  0.18081100000E+008,  0.20013282643E+007,  0.19000000000E+002,  0.00000000000E+000,  0.10000000000E+001
  0.18096100000E+008,  0.20013596120E+007,  0.19000000000E+002,  0.00000000000E+000,  0.10000000000E+001
  0.18111100000E+008,  0.20013767859E+007,  0.19000000000E+002,  0.00000000000E+000,  0.10000000000E+001
  0.18126100000E+008,  0.20014022238E+007,  0.19000000000E+002,  0.00000000000E+000,  0.10000000000E+001
  0.18141100000E+008,  0.20014594193E+007,  0.19000000000E+002,  0.00000000000E+000,  0.10000000000E+001
  0.18156100000E+008,  0.20014919974E+007,  0.19000000000E+002,  0.00000000000E+000,  0.10000000000E+001
  0.18171100000E+008,  0.20015072499E+007,  0.19000000000E+002,  0.00000000000E+000,  0.10000000000E+001
  0.18186100000E+008,  0.20015136778E+007,  0.19000000000E+002,  0.00000000000E+000,  0.10000000000E+001
  0.18201100000E+008,  0.20015138117E+007,  0.19000000000E+002,  0.00000000000E+000,  0.10000000000E+001
  0.18216100000E+008,  0.20015097279E+007,  0.19000000000E+002,  0.00000000000E+000,  0.10000000000E+001
  0.18231100000E+008,  0.20015039033E+007,  0.19000000000E+002,  0.00000000000E+000,  0.10000000000E+001
  0.18246100000E+008,  0.20014987958E+007,  0.19000000000E+002,  0.00000000000E+000,  0.10000000000E+001
  0.18261100000E+008,  0.20015582292E+007,  0.19000000000E+002,  0.00000000000E+000,  0.10000000000E+001
  0.18276100000E+008,  0.20018808535E+007,  0.19000000000E+002,  0.00000000000E+000,  0.10000000000E+001
  0.18291100000E+008,  0.20021368981E+007,  0.19000000000E+002,  0.00000000000E+000,  0.10000000000E+001
  0.18306100000E+008,  0.20023276312E+007,  0.19000000000E+002,  0.00000000000E+000,  0.10000000000E+001
  0.18321100000E+008,  0.20024708893E+007,  0.19000000000E+002,  0.00000000000E+000,  0.10000000000E+001
  0.18336100000E+008,  0.20025848377E+007,  0.19000000000E+002,  0.00000000000E+000,  0.10000000000E+001
  0.18351100000E+008,  0.20026863628E+007,  0.19000000000E+002,  0.00000000000E+000,  0.10000000000E+001
  0.18366100000E+008,  0.20027736131E+007,  0.19000000000E+002,  0.00000000000E+000,  0.10000000000E+001
  0.18381100000E+008,  0.20028511325E+007,  0.19000000000E+002,  0.00000000000E+000,  0.10000000000E+001
  0.18396100000E+008,  0.20029337875E+007,  0.19000000000E+002,  0.00000000000E+000,  0.10000000000E+001
  0.18411100000E+008,  0.20030168768E+007,  0.19000000000E+002,  0.00000000000E+000,  0.10000000000E+001
  0.18426100000E+008,  0.20030932450E+007,  0.19000000000E+002,  0.00000000000E+000,  0.10000000000E+001
  0.18441100000E+008,  0.20031658442E+007,  0.19000000000E+002,  0.00000000000E+000,  0.10000000000E+001
  0.18456100000E+008,  0.20032476471E+007,  0.19000000000E+002,  0.00000000000E+000,  0.10000000000E+001
  0.18471100000E+008,  0.20033241543E+007,  0.19000000000E+002,  0.00000000000E+000,  0.10000000000E+001
  0.18486100000E+008,  0.20033960386E+007,  0.19000000000E+002,  0.00000000000E+000,  0.10000000000E+001
  0.18501100000E+008,  0.20034734329E+007,  0.19000000000E+002,  0.00000000000E+000,  0.10000000000E+001
  0.18516100000E+008,  0.20035538311E+007,  0.19000000000E+002,  0.00000000000E+000,  0.10000000000E+001
  0.18531100000E+008,  0.20036293360E+007,  0.19000000000E+002,  0.00000000000E+000,  0.10000000000E+001
  0.18546100000E+008,  0.20037014171E+007,  0.19000000000E+002,  0.00000000000E+000,  0.10000000000E+001
  0.18561100000E+008,  0.20037911421E+007,  0.19000000000E+002,  0.00000000000E+000,  0.10000000000E+001
  0.18576100000E+008,  0.20038746860E+007,  0.19000000000E+002,  0.00000000000E+000,  0.10000000000E+001
  0.18591100000E+008,  0.20039521909E+007,  0.19000000000E+002,  0.00000000000E+000,  0.10000000000E+001
  0.18606100000E+008,  0.20040306769E+007,  0.19000000000E+002,  0.00000000000E+000,  0.10000000000E+001
  0.18621100000E+008,  0.20041105546E+007,  0.19000000000E+002,  0.00000000000E+000,  0.10000000000E+001
  0.18636100000E+008,  0.20041862350E+007,  0.19000000000E+002,  0.00000000000E+000,  0.10000000000E+001
  0.18651100000E+008,  0.20042585017E+007,  0.19000000000E+002,  0.00000000000E+000,  0.10000000000E+001
  0.18666100000E+008,  0.20043608810E+007,  0.19000000000E+002,  0.00000000000E+000,  0.10000000000E+001
  0.18681100000E+008,  0.20044563934E+007,  0.19000000000E+002,  0.00000000000E+000,  0.10000000000E+001
  0.18696100000E+008,  0.20045430413E+007,  0.19000000000E+002,  0.00000000000E+000,  0.10000000000E+001
  0.18698900000E+008,  0.20045603391E+007,  0.19000000000E+002,  0.00000000000E+000,  0.10000000000E+001
  0.18713900000E+008,  0.20046504007E+007,  0.19000000000E+002,  0.00000000000E+000,  0.10000000000E+001
  0.18728900000E+008,  0.20047404331E+007,  0.19000000000E+002,  0.00000000000E+000,  0.10000000000E+001
  0.18743900000E+008,  0.20048279015E+007,  0.19000000000E+002,  0.00000000000E+000,  0.10000000000E+001
  0.18758900000E+008,  0.20049157623E+007,  0.19000000000E+002,  0.00000000000E+000,  0.10000000000E+001
  0.18773900000E+008,  0.20050169186E+007,  0.19000000000E+002,  0.00000000000E+000,  0.10000000000E+001
  0.18788900000E+008,  0.20051102032E+007,  0.19000000000E+002,  0.00000000000E+000,  0.10000000000E+001
  0.18803900000E+008,  0.20051960659E+007,  0.19000000000E+002,  0.00000000000E+000,  0.10000000000E+001
  0.18818900000E+008,  0.20052908371E+007,  0.19000000000E+002,  0.00000000000E+000,  0.10000000000E+001
  0.18833900000E+008,  0.20053907373E+007,  0.19000000000E+002,  0.00000000000E+000,  0.10000000000E+001
  0.18848900000E+008,  0.20054828756E+007,  0.19000000000E+002,  0.00000000000E+000,  0.10000000000E+001
  0.18863900000E+008,  0.20055691729E+007,  0.19000000000E+002,  0.00000000000E+000,  0.10000000000E+001
  0.18878900000E+008,  0.20056825708E+007,  0.19000000000E+002,  0.00000000000E+000,  0.10000000000E+001
  0.18893900000E+008,  0.20057869488E+007,  0.19000000000E+002,  0.00000000000E+000,  0.10000000000E+001
  0.18908900000E+008,  0.20058814803E+007,  0.19000000000E+002,  0.00000000000E+000,  0.10000000000E+001
  0.18923900000E+008,  0.20059860786E+007,  0.19000000000E+002,  0.00000000000E+000,  0.10000000000E+001
  0.18938900000E+008,  0.20061007293E+007,  0.19000000000E+002,  0.00000000000E+000,  0.10000000000E+001
  0.18953900000E+008,  0.20062050391E+007,  0.19000000000E+002,  0.00000000000E+000,  0.10000000000E+001
  0.18968900000E+008,  0.20062999535E+007,  0.19000000000E+002,  0.00000000000E+000,  0.10000000000E+001
  0.18983900000E+008,  0.20064299052E+007,  0.19000000000E+002,  0.00000000000E+000,  0.10000000000E+001
  0.18998900000E+008,  0.20065502199E+007,  0.19000000000E+002,  0.00000000000E+000,  0.10000000000E+001
  0.19013900000E+008,  0.20066573441E+007,  0.19000000000E+002,  0.00000000000E+000,  0.10000000000E+001
  0.19028900000E+008,  0.20067660048E+007,  0.19000000000E+002,  0.00000000000E+000,  0.10000000000E+001
  0.19043900000E+008,  0.20068810920E+007,  0.19000000000E+002,  0.00000000000E+000,  0.10000000000E+001
  0.19058900000E+008,  0.20069865457E+007,  0.19000000000E+002,  0.00000000000E+000,  0.10000000000E+001
  0.19073900000E+008,  0.20070833226E+007,  0.19000000000E+002,  0.00000000000E+000,  0.10000000000E+001
  0.19088900000E+008,  0.20072175623E+007,  0.19000000000E+002,  0.00000000000E+000,  0.10000000000E+001
  0.19103900000E+008,  0.20073457155E+007,  0.19000000000E+002,  0.00000000000E+000,  0.10000000000E+001
  0.19118900000E+008,  0.20074598914E+007,  0.19000000000E+002,  0.00000000000E+000,  0.10000000000E+001
  0.19133900000E+008,  0.20075765823E+007,  0.19000000000E+002,  0.00000000000E+000,  0.10000000000E+001
  0.19148900000E+008,  0.20077070947E+007,  0.19000000000E+002,  0.00000000000E+000,  0.10000000000E+001
  0.19163900000E+008,  0.20078257409E+007,  0.19000000000E+002,  0.00000000000E+000,  0.10000000000E+001
  0.19178900000E+008,  0.20079328428E+007,  0.19000000000E+002,  0.00000000000E+000,  0.10000000000E+001
  0.19193900000E+008,  0.20080764801E+007,  0.19000000000E+002,  0.00000000000E+000,  0.10000000000E+001
  0.19208900000E+008,  0.20082169750E+007,  0.19000000000E+002,  0.00000000000E+000,  0.10000000000E+001
  0.19223900000E+008,  0.20083416327E+007,  0.19000000000E+002,  0.00000000000E+000,  0.10000000000E+001
  0.19238900000E+008,  0.20084634643E+007,  0.19000000000E+002,  0.00000000000E+000,  0.10000000000E+001
  0.19253900000E+008,  0.20085978954E+007,  0.19000000000E+002,  0.00000000000E+000,  0.10000000000E+001
  0.19268900000E+008,  0.20087204146E+007,  0.19000000000E+002,  0.00000000000E+000,  0.10000000000E+001
  0.19283900000E+008,  0.20088312385E+007,  0.19000000000E+002,  0.00000000000E+000,  0.10000000000E+001
  0.19298900000E+008,  0.20089856920E+007,  0.19000000000E+002,  0.00000000000E+000,  0.10000000000E+001
  0.19313900000E+008,  0.20091427216E+007,  0.19000000000E+002,  0.00000000000E+000,  0.10000000000E+001
  0.19328900000E+008,  0.20092813352E+007,  0.19000000000E+002,  0.00000000000E+000,  0.10000000000E+001
  0.19343900000E+008,  0.20094188233E+007,  0.19000000000E+002,  0.00000000000E+000,  0.10000000000E+001
  0.19358900000E+008,  0.20095905563E+007,  0.19000000000E+002,  0.00000000000E+000,  0.10000000000E+001
  0.19373900000E+008,  0.20097448377E+007,  0.19000000000E+002,  0.00000000000E+000,  0.10000000000E+001
  0.19388900000E+008,  0.20098796729E+007,  0.19000000000E+002,  0.00000000000E+000,  0.10000000000E+001
  0.19403900000E+008,  0.20083348962E+007,  0.19000000000E+002,  0.00000000000E+000,  0.10000000000E+001
  0.19418900000E+008,  0.20062937201E+007,  0.19000000000E+002,  0.00000000000E+000,  0.10000000000E+001
  0.19433900000E+008,  0.20047296769E+007,  0.19000000000E+002,  0.00000000000E+000,  0.10000000000E+001
  0.19448900000E+008,  0.20036272834E+007,  0.19000000000E+002,  0.00000000000E+000,  0.10000000000E+001
  0.19463900000E+008,  0.20028112003E+007,  0.19000000000E+002,  0.00000000000E+000,  0.10000000000E+001
  0.19478900000E+008,  0.20022471013E+007,  0.19000000000E+002,  0.00000000000E+000,  0.10000000000E+001
  0.19493900000E+008,  0.20018642661E+007,  0.19000000000E+002,  0.00000000000E+000,  0.10000000000E+001
  0.19508900000E+008,  0.20016507007E+007,  0.19000000000E+002,  0.00000000000E+000,  0.10000000000E+001
  0.19523900000E+008,  0.20015399048E+007,  0.19000000000E+002,  0.00000000000E+000,  0.10000000000E+001
  0.19538900000E+008,  0.20014715339E+007,  0.19000000000E+002,  0.00000000000E+000,  0.10000000000E+001
  0.19553900000E+008,  0.20014187224E+007,  0.19000000000E+002,  0.00000000000E+000,  0.10000000000E+001
  0.19568900000E+008,  0.20013200799E+007,  0.19000000000E+002,  0.00000000000E+000,  0.10000000000E+001
  0.19583900000E+008,  0.20012414304E+007,  0.19000000000E+002,  0.00000000000E+000,  0.10000000000E+001
  0.19598900000E+008,  0.20011861838E+007,  0.19000000000E+002,  0.00000000000E+000,  0.10000000000E+001
  0.19613900000E+008,  0.20011586302E+007,  0.19000000000E+002,  0.00000000000E+000,  0.10000000000E+001
  0.19628900000E+008,  0.20011492428E+007,  0.19000000000E+002,  0.00000000000E+000,  0.10000000000E+001
  0.19643900000E+008,  0.20011446671E+007,  0.19000000000E+002,  0.00000000000E+000,  0.10000000000E+001
  0.19658900000E+008,  0.20011465504E+007,  0.19000000000E+002,  0.00000000000E+000,  0.10000000000E+001
  0.19673900000E+008,  0.20012312735E+007,  0.19000000000E+002,  0.00000000000E+000,  0.10000000000E+001
  0.19688900000E+008,  0.20013045196E+007,  0.19000000000E+002,  0.00000000000E+000,  0.10000000000E+001
  0.19703900000E+008,  0.20013568911E+007,  0.19000000000E+002,  0.00000000000E+000,  0.10000000000E+001
  0.19718900000E+008,  0.20013383738E+007,  0.19000000000E+002,  0.00000000000E+000,  0.10000000000E+001
  0.19733900000E+008,  0.20012652677E+007,  0.19000000000E+002,  0.00000000000E+000,  0.10000000000E+001
  0.19748900000E+008,  0.20012043737E+007,  0.19000000000E+002,  0.00000000000E+000,  0.10000000000E+001
  0.19763900000E+008,  0.20011611893E+007,  0.19000000000E+002,  0.00000000000E+000,  0.10000000000E+001
  0.19778900000E+008,  0.20011402870E+007,  0.19000000000E+002,  0.00000000000E+000,  0.10000000000E+001
  0.19793900000E+008,  0.20011278983E+007,  0.19000000000E+002,  0.00000000000E+000,  0.10000000000E+001
  0.19805800000E+008,  0.20011210465E+007,  0.19000000000E+002,  0.00000000000E+000,  0.10000000000E+001
  0.19820800000E+008,  0.20011131389E+007,  0.19000000000E+002,  0.00000000000E+000,  0.10000000000E+001
  0.19835800000E+008,  0.20011008295E+007,  0.19000000000E+002,  0.00000000000E+000,  0.10000000000E+001
  0.19850800000E+008,  0.20010911856E+007,  0.19000000000E+002,  0.00000000000E+000,  0.10000000000E+001
  0.19865800000E+008,  0.20010844364E+007,  0.19000000000E+002,  0.00000000000E+000,  0.10000000000E+001
  0.19880800000E+008,  0.20011364237E+007,  0.19000000000E+002,  0.00000000000E+000,  0.10000000000E+001
  0.19895800000E+008,  0.20012044183E+007,  0.19000000000E+002,  0.00000000000E+000,  0.10000000000E+001
  0.19910800000E+008,  0.20012565401E+007,  0.19000000000E+002,  0.00000000000E+000,  0.10000000000E+001
  0.19925800000E+008,  0.20012944941E+007,  0.19000000000E+002,  0.00000000000E+000,  0.10000000000E+001
  0.19940800000E+008,  0.20013277695E+007,  0.19000000000E+002,  0.00000000000E+000,  0.10000000000E+001
  0.19955800000E+008,  0.20013517245E+007,  0.19000000000E+002,  0.00000000000E+000,  0.10000000000E+001
  0.19970800000E+008,  0.20013681869E+007,  0.19000000000E+002,  0.00000000000E+000,  0.10000000000E+001
  0.19985800000E+008,  0.20013222273E+007,  0.19000000000E+002,  0.00000000000E+000,  0.10000000000E+001
  0.20000800000E+008,  0.20012498751E+007,  0.19000000000E+002,  0.00000000000E+000,  0.10000000000E+001
  0.20015800000E+008,  0.20011931916E+007,  0.19000000000E+002,  0.00000000000E+000,  0.10000000000E+001
  0.20030800000E+008,  0.20011535139E+007,  0.19000000000E+002,  0.00000000000E+000,  0.10000000000E+001
  0.20045800000E+008,  0.20011264853E+007,  0.19000000000E+002,  0.00000000000E+000,  0.10000000000E+001
  0.20060800000E+008,  0.20011082053E+007,  0.19000000000E+002,  0.00000000000E+000,  0.10000000000E+001
  0.20075800000E+008,  0.20010958661E+007,  0.19000000000E+002,  0.00000000000E+000,  0.10000000000E+001
  0.20090800000E+008,  0.20011290887E+007,  0.19000000000E+002,  0.00000000000E+000,  0.10000000000E+001
  0.20105800000E+008,  0.20011880184E+007,  0.19000000000E+002,  0.00000000000E+000,  0.10000000000E+001
  0.20120800000E+008,  0.20012347634E+007,  0.19000000000E+002,  0.00000000000E+000,  0.10000000000E+001
  0.20135800000E+008,  0.20012633897E+007,  0.19000000000E+002,  0.00000000000E+000,  0.10000000000E+001
  0.20150800000E+008,  0.20012162781E+007,  0.19000000000E+002,  0.00000000000E+000,  0.10000000000E+001
  0.20165800000E+008,  0.20011716517E+007,  0.19000000000E+002,  0.00000000000E+000,  0.10000000000E+001
  0.20180800000E+008,  0.20011391954E+007,  0.19000000000E+002,  0.00000000000E+000,  0.10000000000E+001
  0.20195800000E+008,  0.20011168688E+007,  0.19000000000E+002,  0.00000000000E+000,  0.10000000000E+001
  0.20210800000E+008,  0.20011017282E+007,  0.19000000000E+002,  0.00000000000E+000,  0.10000000000E+001
  0.20225800000E+008,  0.20010915002E+007,  0.19000000000E+002,  0.00000000000E+000,  0.10000000000E+001
  0.20240800000E+008,  0.20010845979E+007,  0.19000000000E+002,  0.00000000000E+000,  0.10000000000E+001
  0.20255800000E+008,  0.20010799413E+007,  0.19000000000E+002,  0.00000000000E+000,  0.10000000000E+001
  0.20270800000E+008,  0.20010767999E+007,  0.19000000000E+002,  0.00000000000E+000,  0.10000000000E+001
  0.20285800000E+008,  0.20010746809E+007,  0.19000000000E+002,  0.00000000000E+000,  0.10000000000E+001
  0.20300800000E+008,  0.20011018958E+007,  0.19000000000E+002,  0.00000000000E+000,  0.10000000000E+001
  0.20315800000E+008,  0.20011585404E+007,  0.19000000000E+002,  0.00000000000E+000,  0.10000000000E+001
  0.20330800000E+008,  0.20012041153E+007,  0.19000000000E+002,  0.00000000000E+000,  0.10000000000E+001
  0.20345800000E+008,  0.20012362221E+007,  0.19000000000E+002,  0.00000000000E+000,  0.10000000000E+001
  0.20360800000E+008,  0.20012008257E+007,  0.19000000000E+002,  0.00000000000E+000,  0.10000000000E+001
  0.20375800000E+008,  0.20011618033E+007,  0.19000000000E+002,  0.00000000000E+000,  0.10000000000E+001
  0.20390800000E+008,  0.20011326608E+007,  0.19000000000E+002,  0.00000000000E+000,  0.10000000000E+001
