"           TIME(S)","              PRES","              TEMP","             SAT_G","             SAT_L"
  0.17812600500E+008,  0.20000006801E+007,  0.19000000000E+002,  0.00000000000E+000,  0.10000000000E+001
  0.17812602500E+008,  0.20000242642E+007,  0.19000000000E+002,  0.00000000000E+000,  0.10000000000E+001
  0.17812604500E+008,  0.20000591454E+007,  0.19000000000E+002,  0.00000000000E+000,  0.10000000000E+001
  0.17812606500E+008,  0.20000960988E+007,  0.19000000000E+002,  0.00000000000E+000,  0.10000000000E+001
  0.17812608500E+008,  0.20001303027E+007,  0.19000000000E+002,  0.00000000000E+000,  0.10000000000E+001
  0.17812610500E+008,  0.20001600843E+007,  0.19000000000E+002,  0.00000000000E+000,  0.10000000000E+001
  0.17812612500E+008,  0.20001853294E+007,  0.19000000000E+002,  0.00000000000E+000,  0.10000000000E+001
  0.17812614500E+008,  0.20002065259E+007,  0.19000000000E+002,  0.00000000000E+000,  0.10000000000E+001
  0.17812616500E+008,  0.20002243123E+007,  0.19000000000E+002,  0.00000000000E+000,  0.10000000000E+001
  0.17812618500E+008,  0.20002392954E+007,  0.19000000000E+002,  0.00000000000E+000,  0.10000000000E+001
  0.17812620500E+008,  0.20002519933E+007,  0.19000000000E+002,  0.00000000000E+000,  0.10000000000E+001
  0.17812622500E+008,  0.20002628283E+007,  0.19000000000E+002,  0.00000000000E+000,  0.10000000000E+001
  0.17812624500E+008,  0.20002721390E+007,  0.19000000000E+002,  0.00000000000E+000,  0.10000000000E+001
  0.17812626500E+008,  0.20002801945E+007,  0.19000000000E+002,  0.00000000000E+000,  0.10000000000E+001
  0.17812628500E+008,  0.20002872088E+007,  0.19000000000E+002,  0.00000000000E+000,  0.10000000000E+001
  0.17812630500E+008,  0.20002933531E+007,  0.19000000000E+002,  0.00000000000E+000,  0.10000000000E+001
  0.17812632500E+008,  0.20002987650E+007,  0.19000000000E+002,  0.00000000000E+000,  0.10000000000E+001
  0.17812634500E+008,  0.20003035562E+007,  0.19000000000E+002,  0.00000000000E+000,  0.10000000000E+001
  0.17812636500E+008,  0.20003078176E+007,  0.19000000000E+002,  0.00000000000E+000,  0.10000000000E+001
  0.17812638500E+008,  0.20003116242E+007,  0.19000000000E+002,  0.00000000000E+000,  0.10000000000E+001
  0.17812640500E+008,  0.20003150382E+007,  0.19000000000E+002,  0.00000000000E+000,  0.10000000000E+001
  0.17812642500E+008,  0.20003181114E+007,  0.19000000000E+002,  0.00000000000E+000,  0.10000000000E+001
  0.17812644500E+008,  0.20003208876E+007,  0.19000000000E+002,  0.00000000000E+000,  0.10000000000E+001
  0.17812646500E+008,  0.20003234036E+007,  0.19000000000E+002,  0.00000000000E+000,  0.10000000000E+001
  0.17812648500E+008,  0.20003256910E+007,  0.19000000000E+002,  0.00000000000E+000,  0.10000000000E+001
  0.17812650500E+008,  0.20003277767E+007,  0.19000000000E+002,  0.00000000000E+000,  0.10000000000E+001
  0.17812652500E+008,  0.20003296840E+007,  0.19000000000E+002,  0.00000000000E+000,  0.10000000000E+001
  0.17812654500E+008,  0.20003314329E+007,  0.19000000000E+002,  0.00000000000E+000,  0.10000000000E+001
  0.17812656500E+008,  0.20003330409E+007,  0.19000000000E+002,  0.00000000000E+000,  0.10000000000E+001
  0.17812658500E+008,  0.20003345233E+007,  0.19000000000E+002,  0.00000000000E+000,  0.10000000000E+001
  0.17812660500E+008,  0.20003358935E+007,  0.19000000000E+002,  0.00000000000E+000,  0.10000000000E+001
  0.17812662500E+008,  0.20003371631E+007,  0.19000000000E+002,  0.00000000000E+000,  0.10000000000E+001
  0.17812664500E+008,  0.20003383427E+007,  0.19000000000E+002,  0.00000000000E+000,  0.10000000000E+001
  0.17812666500E+008,  0.20003394413E+007,  0.19000000000E+002,  0.00000000000E+000,  0.10000000000E+001
  0.17812668500E+008,  0.20003404671E+007,  0.19000000000E+002,  0.00000000000E+000,  0.10000000000E+001
  0.17812670500E+008,  0.20003414275E+007,  0.19000000000E+002,  0.00000000000E+000,  0.10000000000E+001
  0.17812672500E+008,  0.20003423289E+007,  0.19000000000E+002,  0.00000000000E+000,  0.10000000000E+001
  0.17812674500E+008,  0.20003431770E+007,  0.19000000000E+002,  0.00000000000E+000,  0.10000000000E+001
  0.17812676500E+008,  0.20003439771E+007,  0.19000000000E+002,  0.00000000000E+000,  0.10000000000E+001
  0.17812678500E+008,  0.20003447338E+007,  0.19000000000E+002,  0.00000000000E+000,  0.10000000000E+001
  0.17812680500E+008,  0.20003454513E+007,  0.19000000000E+002,  0.00000000000E+000,  0.10000000000E+001
  0.17812682500E+008,  0.20003461334E+007,  0.19000000000E+002,  0.00000000000E+000,  0.10000000000E+001
  0.17812684500E+008,  0.20003467835E+007,  0.19000000000E+002,  0.00000000000E+000,  0.10000000000E+001
  0.17812686500E+008,  0.20003474047E+007,  0.19000000000E+002,  0.00000000000E+000,  0.10000000000E+001
  0.17812688500E+008,  0.20003479997E+007,  0.19000000000E+002,  0.00000000000E+000,  0.10000000000E+001
  0.17812690500E+008,  0.20003485710E+007,  0.19000000000E+002,  0.00000000000E+000,  0.10000000000E+001
  0.17812692500E+008,  0.20003491210E+007,  0.19000000000E+002,  0.00000000000E+000,  0.10000000000E+001
  0.17812694500E+008,  0.20003496517E+007,  0.19000000000E+002,  0.00000000000E+000,  0.10000000000E+001
  0.17812696500E+008,  0.20003501649E+007,  0.19000000000E+002,  0.00000000000E+000,  0.10000000000E+001
  0.17812698500E+008,  0.20003506624E+007,  0.19000000000E+002,  0.00000000000E+000,  0.10000000000E+001
  0.17812700500E+008,  0.20003511458E+007,  0.19000000000E+002,  0.00000000000E+000,  0.10000000000E+001
  0.17812702500E+008,  0.20003516163E+007,  0.19000000000E+002,  0.00000000000E+000,  0.10000000000E+001
  0.17812704500E+008,  0.20003520754E+007,  0.19000000000E+002,  0.00000000000E+000,  0.10000000000E+001
  0.17812706500E+008,  0.20003525241E+007,  0.19000000000E+002,  0.00000000000E+000,  0.10000000000E+001
  0.17812708500E+008,  0.20003529635E+007,  0.19000000000E+002,  0.00000000000E+000,  0.10000000000E+001
  0.17812710500E+008,  0.20003533947E+007,  0.19000000000E+002,  0.00000000000E+000,  0.10000000000E+001
  0.17812712500E+008,  0.20003538184E+007,  0.19000000000E+002,  0.00000000000E+000,  0.10000000000E+001
  0.17812714500E+008,  0.20003542355E+007,  0.19000000000E+002,  0.00000000000E+000,  0.10000000000E+001
  0.17812716500E+008,  0.20003546467E+007,  0.19000000000E+002,  0.00000000000E+000,  0.10000000000E+001
  0.17812718500E+008,  0.20003550526E+007,  0.19000000000E+002,  0.00000000000E+000,  0.10000000000E+001
  0.17812720500E+008,  0.20003554539E+007,  0.19000000000E+002,  0.00000000000E+000,  0.10000000000E+001
  0.17812722500E+008,  0.20003558512E+007,  0.19000000000E+002,  0.00000000000E+000,  0.10000000000E+001
  0.17812724500E+008,  0.20003562448E+007,  0.19000000000E+002,  0.00000000000E+000,  0.10000000000E+001
  0.17812726500E+008,  0.20003566353E+007,  0.19000000000E+002,  0.00000000000E+000,  0.10000000000E+001
  0.17812728500E+008,  0.20003570231E+007,  0.19000000000E+002,  0.00000000000E+000,  0.10000000000E+001
  0.17812730500E+008,  0.20003574086E+007,  0.19000000000E+002,  0.00000000000E+000,  0.10000000000E+001
  0.17812732500E+008,  0.20003577921E+007,  0.19000000000E+002,  0.00000000000E+000,  0.10000000000E+001
  0.17812734500E+008,  0.20003581739E+007,  0.19000000000E+002,  0.00000000000E+000,  0.10000000000E+001
  0.17812736500E+008,  0.20003585543E+007,  0.19000000000E+002,  0.00000000000E+000,  0.10000000000E+001
  0.17812738500E+008,  0.20003589336E+007,  0.19000000000E+002,  0.00000000000E+000,  0.10000000000E+001
  0.17812740500E+008,  0.20003593120E+007,  0.19000000000E+002,  0.00000000000E+000,  0.10000000000E+001
  0.17812742500E+008,  0.20003596896E+007,  0.19000000000E+002,  0.00000000000E+000,  0.10000000000E+001
  0.17812744500E+008,  0.20003600668E+007,  0.19000000000E+002,  0.00000000000E+000,  0.10000000000E+001
  0.17812746500E+008,  0.20003604436E+007,  0.19000000000E+002,  0.00000000000E+000,  0.10000000000E+001
  0.17812748500E+008,  0.20003608202E+007,  0.19000000000E+002,  0.00000000000E+000,  0.10000000000E+001
  0.17812750500E+008,  0.20003611968E+007,  0.19000000000E+002,  0.00000000000E+000,  0.10000000000E+001
  0.17812752500E+008,  0.20003615734E+007,  0.19000000000E+002,  0.00000000000E+000,  0.10000000000E+001
  0.17812754500E+008,  0.20003619502E+007,  0.19000000000E+002,  0.00000000000E+000,  0.10000000000E+001
  0.17812756500E+008,  0.20003623274E+007,  0.19000000000E+002,  0.00000000000E+000,  0.10000000000E+001
  0.17812758500E+008,  0.20003627048E+007,  0.19000000000E+002,  0.00000000000E+000,  0.10000000000E+001
  0.17812760500E+008,  0.20003630828E+007,  0.19000000000E+002,  0.00000000000E+000,  0.10000000000E+001
  0.17812762500E+008,  0.20003634613E+007,  0.19000000000E+002,  0.00000000000E+000,  0.10000000000E+001
  0.17812764500E+008,  0.20003638403E+007,  0.19000000000E+002,  0.00000000000E+000,  0.10000000000E+001
  0.17812766500E+008,  0.20003642200E+007,  0.19000000000E+002,  0.00000000000E+000,  0.10000000000E+001
  0.17812768500E+008,  0.20003646003E+007,  0.19000000000E+002,  0.00000000000E+000,  0.10000000000E+001
  0.17812770500E+008,  0.20003649814E+007,  0.19000000000E+002,  0.00000000000E+000,  0.10000000000E+001
  0.17812772500E+008,  0.20003653633E+007,  0.19000000000E+002,  0.00000000000E+000,  0.10000000000E+001
  0.17812774500E+008,  0.20003657459E+007,  0.19000000000E+002,  0.00000000000E+000,  0.10000000000E+001
  0.17812776500E+008,  0.20003661293E+007,  0.19000000000E+002,  0.00000000000E+000,  0.10000000000E+001
  0.17812778500E+008,  0.20003665135E+007,  0.19000000000E+002,  0.00000000000E+000,  0.10000000000E+001
  0.17812780500E+008,  0.20003668986E+007,  0.19000000000E+002,  0.00000000000E+000,  0.10000000000E+001
  0.17812782500E+008,  0.20003672845E+007,  0.19000000000E+002,  0.00000000000E+000,  0.10000000000E+001
  0.17812784500E+008,  0.20003676712E+007,  0.19000000000E+002,  0.00000000000E+000,  0.10000000000E+001
  0.17812786500E+008,  0.20003680589E+007,  0.19000000000E+002,  0.00000000000E+000,  0.10000000000E+001
  0.17812788500E+008,  0.20003684473E+007,  0.19000000000E+002,  0.00000000000E+000,  0.10000000000E+001
  0.17812790500E+008,  0.20003688367E+007,  0.19000000000E+002,  0.00000000000E+000,  0.10000000000E+001
  0.17812792500E+008,  0.20003692269E+007,  0.19000000000E+002,  0.00000000000E+000,  0.10000000000E+001
  0.17812794500E+008,  0.20003696179E+007,  0.19000000000E+002,  0.00000000000E+000,  0.10000000000E+001
  0.17812796500E+008,  0.20003700098E+007,  0.19000000000E+002,  0.00000000000E+000,  0.10000000000E+001
  0.17812798500E+008,  0.20003704025E+007,  0.19000000000E+002,  0.00000000000E+000,  0.10000000000E+001
  0.17812800500E+008,  0.20003707960E+007,  0.19000000000E+002,  0.00000000000E+000,  0.10000000000E+001
  0.17812802500E+008,  0.20003711904E+007,  0.19000000000E+002,  0.00000000000E+000,  0.10000000000E+001
  0.17812804500E+008,  0.20003715855E+007,  0.19000000000E+002,  0.00000000000E+000,  0.10000000000E+001
  0.17812806500E+008,  0.20003719814E+007,  0.19000000000E+002,  0.00000000000E+000,  0.10000000000E+001
  0.17812808500E+008,  0.20003723781E+007,  0.19000000000E+002,  0.00000000000E+000,  0.10000000000E+001
  0.17812810500E+008,  0.20003727756E+007,  0.19000000000E+002,  0.00000000000E+000,  0.10000000000E+001
  0.17812812500E+008,  0.20003731738E+007,  0.19000000000E+002,  0.00000000000E+000,  0.10000000000E+001
  0.17812814500E+008,  0.20003735727E+007,  0.19000000000E+002,  0.00000000000E+000,  0.10000000000E+001
  0.17812816500E+008,  0.20003739723E+007,  0.19000000000E+002,  0.00000000000E+000,  0.10000000000E+001
  0.17812818500E+008,  0.20003743725E+007,  0.19000000000E+002,  0.00000000000E+000,  0.10000000000E+001
  0.17812820500E+008,  0.20003747735E+007,  0.19000000000E+002,  0.00000000000E+000,  0.10000000000E+001
  0.17812822500E+008,  0.20003751751E+007,  0.19000000000E+002,  0.00000000000E+000,  0.10000000000E+001
  0.17812824500E+008,  0.20003755773E+007,  0.19000000000E+002,  0.00000000000E+000,  0.10000000000E+001
  0.17812826500E+008,  0.20003759801E+007,  0.19000000000E+002,  0.00000000000E+000,  0.10000000000E+001
  0.17812828500E+008,  0.20003763835E+007,  0.19000000000E+002,  0.00000000000E+000,  0.10000000000E+001
  0.17812830500E+008,  0.20003767875E+007,  0.19000000000E+002,  0.00000000000E+000,  0.10000000000E+001
  0.17812832500E+008,  0.20003771920E+007,  0.19000000000E+002,  0.00000000000E+000,  0.10000000000E+001
  0.17812834500E+008,  0.20003775971E+007,  0.19000000000E+002,  0.00000000000E+000,  0.10000000000E+001
  0.17812836500E+008,  0.20003780026E+007,  0.19000000000E+002,  0.00000000000E+000,  0.10000000000E+001
  0.17812838500E+008,  0.20003784087E+007,  0.19000000000E+002,  0.00000000000E+000,  0.10000000000E+001
  0.17812840500E+008,  0.20003788152E+007,  0.19000000000E+002,  0.00000000000E+000,  0.10000000000E+001
  0.17812842500E+008,  0.20003792222E+007,  0.19000000000E+002,  0.00000000000E+000,  0.10000000000E+001
  0.17812844500E+008,  0.20003796296E+007,  0.19000000000E+002,  0.00000000000E+000,  0.10000000000E+001
  0.17812846500E+008,  0.20003800374E+007,  0.19000000000E+002,  0.00000000000E+000,  0.10000000000E+001
  0.17812848500E+008,  0.20003804456E+007,  0.19000000000E+002,  0.00000000000E+000,  0.10000000000E+001
  0.17812850500E+008,  0.20003808542E+007,  0.19000000000E+002,  0.00000000000E+000,  0.10000000000E+001
  0.17812852500E+008,  0.20003812631E+007,  0.19000000000E+002,  0.00000000000E+000,  0.10000000000E+001
  0.17812854500E+008,  0.20003816724E+007,  0.19000000000E+002,  0.00000000000E+000,  0.10000000000E+001
  0.17812856500E+008,  0.20003820820E+007,  0.19000000000E+002,  0.00000000000E+000,  0.10000000000E+001
  0.17812858500E+008,  0.20003824919E+007,  0.19000000000E+002,  0.00000000000E+000,  0.10000000000E+001
  0.17812860500E+008,  0.20003829021E+007,  0.19000000000E+002,  0.00000000000E+000,  0.10000000000E+001
  0.17812862500E+008,  0.20003833125E+007,  0.19000000000E+002,  0.00000000000E+000,  0.10000000000E+001
  0.17812864500E+008,  0.20003837232E+007,  0.19000000000E+002,  0.00000000000E+000,  0.10000000000E+001
  0.17812866500E+008,  0.20003841342E+007,  0.19000000000E+002,  0.00000000000E+000,  0.10000000000E+001
  0.17812868500E+008,  0.20003845453E+007,  0.19000000000E+002,  0.00000000000E+000,  0.10000000000E+001
  0.17812870500E+008,  0.20003849567E+007,  0.19000000000E+002,  0.00000000000E+000,  0.10000000000E+001
  0.17812872500E+008,  0.20003853682E+007,  0.19000000000E+002,  0.00000000000E+000,  0.10000000000E+001
  0.17812874500E+008,  0.20003857799E+007,  0.19000000000E+002,  0.00000000000E+000,  0.10000000000E+001
  0.17812876500E+008,  0.20003861918E+007,  0.19000000000E+002,  0.00000000000E+000,  0.10000000000E+001
  0.17812878500E+008,  0.20003866038E+007,  0.19000000000E+002,  0.00000000000E+000,  0.10000000000E+001
  0.17812880500E+008,  0.20003870159E+007,  0.19000000000E+002,  0.00000000000E+000,  0.10000000000E+001
  0.17812882500E+008,  0.20003874282E+007,  0.19000000000E+002,  0.00000000000E+000,  0.10000000000E+001
  0.17812884500E+008,  0.20003878405E+007,  0.19000000000E+002,  0.00000000000E+000,  0.10000000000E+001
  0.17812886500E+008,  0.20003882529E+007,  0.19000000000E+002,  0.00000000000E+000,  0.10000000000E+001
  0.17812888500E+008,  0.20003886654E+007,  0.19000000000E+002,  0.00000000000E+000,  0.10000000000E+001
  0.17812890500E+008,  0.20003890780E+007,  0.19000000000E+002,  0.00000000000E+000,  0.10000000000E+001
  0.17812892500E+008,  0.20003894905E+007,  0.19000000000E+002,  0.00000000000E+000,  0.10000000000E+001
  0.17812894500E+008,  0.20003899032E+007,  0.19000000000E+002,  0.00000000000E+000,  0.10000000000E+001
  0.17812896500E+008,  0.20003903158E+007,  0.19000000000E+002,  0.00000000000E+000,  0.10000000000E+001
  0.17812898500E+008,  0.20003907284E+007,  0.19000000000E+002,  0.00000000000E+000,  0.10000000000E+001
  0.17812900500E+008,  0.20003911411E+007,  0.19000000000E+002,  0.00000000000E+000,  0.10000000000E+001
  0.17812902500E+008,  0.20003915537E+007,  0.19000000000E+002,  0.00000000000E+000,  0.10000000000E+001
  0.17812904500E+008,  0.20003919663E+007,  0.19000000000E+002,  0.00000000000E+000,  0.10000000000E+001
  0.17812906500E+008,  0.20003923788E+007,  0.19000000000E+002,  0.00000000000E+000,  0.10000000000E+001
  0.17812908500E+008,  0.20003927913E+007,  0.19000000000E+002,  0.00000000000E+000,  0.10000000000E+001
  0.17812910500E+008,  0.20003932038E+007,  0.19000000000E+002,  0.00000000000E+000,  0.10000000000E+001
  0.17812912500E+008,  0.20003936161E+007,  0.19000000000E+002,  0.00000000000E+000,  0.10000000000E+001
  0.17812914500E+008,  0.20003940284E+007,  0.19000000000E+002,  0.00000000000E+000,  0.10000000000E+001
  0.17812916500E+008,  0.20003944406E+007,  0.19000000000E+002,  0.00000000000E+000,  0.10000000000E+001
  0.17812918500E+008,  0.20003948527E+007,  0.19000000000E+002,  0.00000000000E+000,  0.10000000000E+001
  0.17812920500E+008,  0.20003952647E+007,  0.19000000000E+002,  0.00000000000E+000,  0.10000000000E+001
  0.17812922500E+008,  0.20003956766E+007,  0.19000000000E+002,  0.00000000000E+000,  0.10000000000E+001
  0.17812924500E+008,  0.20003960883E+007,  0.19000000000E+002,  0.00000000000E+000,  0.10000000000E+001
  0.17812926500E+008,  0.20003964999E+007,  0.19000000000E+002,  0.00000000000E+000,  0.10000000000E+001
  0.17812928500E+008,  0.20003969114E+007,  0.19000000000E+002,  0.00000000000E+000,  0.10000000000E+001
  0.17812930500E+008,  0.20003973227E+007,  0.19000000000E+002,  0.00000000000E+000,  0.10000000000E+001
  0.17812932500E+008,  0.20003977338E+007,  0.19000000000E+002,  0.00000000000E+000,  0.10000000000E+001
  0.17812934500E+008,  0.20003981448E+007,  0.19000000000E+002,  0.00000000000E+000,  0.10000000000E+001
  0.17812936500E+008,  0.20003985556E+007,  0.19000000000E+002,  0.00000000000E+000,  0.10000000000E+001
  0.17812938500E+008,  0.20003989662E+007,  0.19000000000E+002,  0.00000000000E+000,  0.10000000000E+001
  0.17812940500E+008,  0.20003993767E+007,  0.19000000000E+002,  0.00000000000E+000,  0.10000000000E+001
  0.17812942500E+008,  0.20003997869E+007,  0.19000000000E+002,  0.00000000000E+000,  0.10000000000E+001
  0.17812944500E+008,  0.20004001969E+007,  0.19000000000E+002,  0.00000000000E+000,  0.10000000000E+001
  0.17812946500E+008,  0.20004006068E+007,  0.19000000000E+002,  0.00000000000E+000,  0.10000000000E+001
  0.17812948500E+008,  0.20004010164E+007,  0.19000000000E+002,  0.00000000000E+000,  0.10000000000E+001
  0.17812950500E+008,  0.20004014258E+007,  0.19000000000E+002,  0.00000000000E+000,  0.10000000000E+001
  0.17812952500E+008,  0.20004018349E+007,  0.19000000000E+002,  0.00000000000E+000,  0.10000000000E+001
  0.17812954500E+008,  0.20004022438E+007,  0.19000000000E+002,  0.00000000000E+000,  0.10000000000E+001
  0.17812956500E+008,  0.20004026525E+007,  0.19000000000E+002,  0.00000000000E+000,  0.10000000000E+001
  0.17812958500E+008,  0.20004030610E+007,  0.19000000000E+002,  0.00000000000E+000,  0.10000000000E+001
  0.17812960500E+008,  0.20004034692E+007,  0.19000000000E+002,  0.00000000000E+000,  0.10000000000E+001
  0.17812962500E+008,  0.20004038771E+007,  0.19000000000E+002,  0.00000000000E+000,  0.10000000000E+001
  0.17812964500E+008,  0.20004042848E+007,  0.19000000000E+002,  0.00000000000E+000,  0.10000000000E+001
  0.17812966500E+008,  0.20004046922E+007,  0.19000000000E+002,  0.00000000000E+000,  0.10000000000E+001
  0.17812968500E+008,  0.20004050993E+007,  0.19000000000E+002,  0.00000000000E+000,  0.10000000000E+001
  0.17812970500E+008,  0.20004055062E+007,  0.19000000000E+002,  0.00000000000E+000,  0.10000000000E+001
  0.17812972500E+008,  0.20004059128E+007,  0.19000000000E+002,  0.00000000000E+000,  0.10000000000E+001
  0.17812974500E+008,  0.20004063191E+007,  0.19000000000E+002,  0.00000000000E+000,  0.10000000000E+001
  0.17812976500E+008,  0.20004067251E+007,  0.19000000000E+002,  0.00000000000E+000,  0.10000000000E+001
