"           TIME(S)","              PRES","              TEMP","             SAT_G","             SAT_L"
  0.17592105000E+008,  0.20999939015E+007,  0.19000000000E+002,  0.00000000000E+000,  0.10000000000E+001
  0.17592130000E+008,  0.20991579795E+007,  0.19000000000E+002,  0.00000000000E+000,  0.10000000000E+001
  0.17592255000E+008,  0.20902257947E+007,  0.19000000000E+002,  0.00000000000E+000,  0.10000000000E+001
  0.17592405000E+008,  0.20821971157E+007,  0.19000000000E+002,  0.00000000000E+000,  0.10000000000E+001
  0.17592555000E+008,  0.20770188173E+007,  0.19000000000E+002,  0.00000000000E+000,  0.10000000000E+001
  0.17592705000E+008,  0.20736292349E+007,  0.19000000000E+002,  0.00000000000E+000,  0.10000000000E+001
  0.17592855000E+008,  0.20712792042E+007,  0.19000000000E+002,  0.00000000000E+000,  0.10000000000E+001
  0.17593005000E+008,  0.20695438956E+007,  0.19000000000E+002,  0.00000000000E+000,  0.10000000000E+001
  0.17593155000E+008,  0.20681876222E+007,  0.19000000000E+002,  0.00000000000E+000,  0.10000000000E+001
  0.17593305000E+008,  0.20670758532E+007,  0.19000000000E+002,  0.00000000000E+000,  0.10000000000E+001
  0.17593455000E+008,  0.20661287002E+007,  0.19000000000E+002,  0.00000000000E+000,  0.10000000000E+001
  0.17593605000E+008,  0.20652968820E+007,  0.19000000000E+002,  0.00000000000E+000,  0.10000000000E+001
  0.17593755000E+008,  0.20645489583E+007,  0.19000000000E+002,  0.00000000000E+000,  0.10000000000E+001
  0.17593905000E+008,  0.20638642681E+007,  0.19000000000E+002,  0.00000000000E+000,  0.10000000000E+001
  0.17594055000E+008,  0.20632288619E+007,  0.19000000000E+002,  0.00000000000E+000,  0.10000000000E+001
  0.17594205000E+008,  0.20626330777E+007,  0.19000000000E+002,  0.00000000000E+000,  0.10000000000E+001
  0.17594355000E+008,  0.20620700526E+007,  0.19000000000E+002,  0.00000000000E+000,  0.10000000000E+001
  0.17594505000E+008,  0.20615347883E+007,  0.19000000000E+002,  0.00000000000E+000,  0.10000000000E+001
  0.17594655000E+008,  0.20610235521E+007,  0.19000000000E+002,  0.00000000000E+000,  0.10000000000E+001
  0.17594805000E+008,  0.20605334864E+007,  0.19000000000E+002,  0.00000000000E+000,  0.10000000000E+001
  0.17594955000E+008,  0.20600623510E+007,  0.19000000000E+002,  0.00000000000E+000,  0.10000000000E+001
  0.17595105000E+008,  0.20596083491E+007,  0.19000000000E+002,  0.00000000000E+000,  0.10000000000E+001
  0.17595255000E+008,  0.20591700096E+007,  0.19000000000E+002,  0.00000000000E+000,  0.10000000000E+001
  0.17595405000E+008,  0.20587461054E+007,  0.19000000000E+002,  0.00000000000E+000,  0.10000000000E+001
  0.17595555000E+008,  0.20583355420E+007,  0.19000000000E+002,  0.00000000000E+000,  0.10000000000E+001
  0.17595630000E+008,  0.20581334620E+007,  0.19000000000E+002,  0.00000000000E+000,  0.10000000000E+001
  0.17595667501E+008,  0.20580332058E+007,  0.19000000000E+002,  0.00000000000E+000,  0.10000000000E+001
  0.17595817501E+008,  0.20576437197E+007,  0.19000000000E+002,  0.00000000000E+000,  0.10000000000E+001
  0.17595892501E+008,  0.20574517351E+007,  0.19000000000E+002,  0.00000000000E+000,  0.10000000000E+001
  0.17595930002E+008,  0.20573564169E+007,  0.19000000000E+002,  0.00000000000E+000,  0.10000000000E+001
  0.17596080002E+008,  0.20569850636E+007,  0.19000000000E+002,  0.00000000000E+000,  0.10000000000E+001
  0.17596230002E+008,  0.20566228477E+007,  0.19000000000E+002,  0.00000000000E+000,  0.10000000000E+001
  0.17596305002E+008,  0.20564439320E+007,  0.19000000000E+002,  0.00000000000E+000,  0.10000000000E+001
  0.17596342503E+008,  0.20563550108E+007,  0.19000000000E+002,  0.00000000000E+000,  0.10000000000E+001
  0.17596361253E+008,  0.20563106829E+007,  0.19000000000E+002,  0.00000000000E+000,  0.10000000000E+001
  0.17596370628E+008,  0.20562885517E+007,  0.19000000000E+002,  0.00000000000E+000,  0.10000000000E+001
  0.17596417504E+008,  0.20561787031E+007,  0.19000000000E+002,  0.00000000000E+000,  0.10000000000E+001
  0.17596440943E+008,  0.20561239781E+007,  0.19000000000E+002,  0.00000000000E+000,  0.10000000000E+001
  0.17596558134E+008,  0.20558550351E+007,  0.19000000000E+002,  0.00000000000E+000,  0.10000000000E+001
  0.17596616730E+008,  0.20557216985E+007,  0.19000000000E+002,  0.00000000000E+000,  0.10000000000E+001
  0.17596766730E+008,  0.20553872392E+007,  0.19000000000E+002,  0.00000000000E+000,  0.10000000000E+001
  0.17596841730E+008,  0.20552216559E+007,  0.19000000000E+002,  0.00000000000E+000,  0.10000000000E+001
  0.17596879231E+008,  0.20551392668E+007,  0.19000000000E+002,  0.00000000000E+000,  0.10000000000E+001
  0.17596897981E+008,  0.20550981718E+007,  0.19000000000E+002,  0.00000000000E+000,  0.10000000000E+001
  0.17596907356E+008,  0.20550776489E+007,  0.19000000000E+002,  0.00000000000E+000,  0.10000000000E+001
  0.17596912044E+008,  0.20550673935E+007,  0.19000000000E+002,  0.00000000000E+000,  0.10000000000E+001
  0.17596935482E+008,  0.20550162699E+007,  0.19000000000E+002,  0.00000000000E+000,  0.10000000000E+001
  0.17597052673E+008,  0.20547642019E+007,  0.19000000000E+002,  0.00000000000E+000,  0.10000000000E+001
  0.17597202673E+008,  0.20544468603E+007,  0.19000000000E+002,  0.00000000000E+000,  0.10000000000E+001
  0.17597352673E+008,  0.20541343085E+007,  0.19000000000E+002,  0.00000000000E+000,  0.10000000000E+001
  0.17597502673E+008,  0.20538260730E+007,  0.19000000000E+002,  0.00000000000E+000,  0.10000000000E+001
  0.17597652673E+008,  0.20535217186E+007,  0.19000000000E+002,  0.00000000000E+000,  0.10000000000E+001
  0.17597802673E+008,  0.20532208518E+007,  0.19000000000E+002,  0.00000000000E+000,  0.10000000000E+001
  0.17597952673E+008,  0.20529231211E+007,  0.19000000000E+002,  0.00000000000E+000,  0.10000000000E+001
  0.17598102673E+008,  0.20526282164E+007,  0.19000000000E+002,  0.00000000000E+000,  0.10000000000E+001
  0.17598252673E+008,  0.20523358662E+007,  0.19000000000E+002,  0.00000000000E+000,  0.10000000000E+001
  0.17598402673E+008,  0.20520458342E+007,  0.19000000000E+002,  0.00000000000E+000,  0.10000000000E+001
  0.17598552673E+008,  0.20517579163E+007,  0.19000000000E+002,  0.00000000000E+000,  0.10000000000E+001
  0.17598702673E+008,  0.20514719366E+007,  0.19000000000E+002,  0.00000000000E+000,  0.10000000000E+001
  0.17598852673E+008,  0.20511877446E+007,  0.19000000000E+002,  0.00000000000E+000,  0.10000000000E+001
  0.17599002673E+008,  0.20509052117E+007,  0.19000000000E+002,  0.00000000000E+000,  0.10000000000E+001
  0.17599152673E+008,  0.20506242291E+007,  0.19000000000E+002,  0.00000000000E+000,  0.10000000000E+001
  0.17599302673E+008,  0.20503447054E+007,  0.19000000000E+002,  0.00000000000E+000,  0.10000000000E+001
  0.17599452673E+008,  0.20500665640E+007,  0.19000000000E+002,  0.00000000000E+000,  0.10000000000E+001
  0.17599602673E+008,  0.20497897416E+007,  0.19000000000E+002,  0.00000000000E+000,  0.10000000000E+001
  0.17599752673E+008,  0.20495141868E+007,  0.19000000000E+002,  0.00000000000E+000,  0.10000000000E+001
  0.17599902673E+008,  0.20492398579E+007,  0.19000000000E+002,  0.00000000000E+000,  0.10000000000E+001
  0.17600052673E+008,  0.20489667223E+007,  0.19000000000E+002,  0.00000000000E+000,  0.10000000000E+001
  0.17600202673E+008,  0.20486947547E+007,  0.19000000000E+002,  0.00000000000E+000,  0.10000000000E+001
  0.17600352673E+008,  0.20484239365E+007,  0.19000000000E+002,  0.00000000000E+000,  0.10000000000E+001
  0.17600502673E+008,  0.20481542544E+007,  0.19000000000E+002,  0.00000000000E+000,  0.10000000000E+001
  0.17600652673E+008,  0.20478856998E+007,  0.19000000000E+002,  0.00000000000E+000,  0.10000000000E+001
  0.17600802673E+008,  0.20476182681E+007,  0.19000000000E+002,  0.00000000000E+000,  0.10000000000E+001
  0.17600952673E+008,  0.20473519576E+007,  0.19000000000E+002,  0.00000000000E+000,  0.10000000000E+001
  0.17601102673E+008,  0.20470867695E+007,  0.19000000000E+002,  0.00000000000E+000,  0.10000000000E+001
  0.17601252673E+008,  0.20468227069E+007,  0.19000000000E+002,  0.00000000000E+000,  0.10000000000E+001
  0.17601402673E+008,  0.20465597746E+007,  0.19000000000E+002,  0.00000000000E+000,  0.10000000000E+001
  0.17601552673E+008,  0.20462979784E+007,  0.19000000000E+002,  0.00000000000E+000,  0.10000000000E+001
  0.17601702673E+008,  0.20460373252E+007,  0.19000000000E+002,  0.00000000000E+000,  0.10000000000E+001
  0.17601852673E+008,  0.20457778225E+007,  0.19000000000E+002,  0.00000000000E+000,  0.10000000000E+001
  0.17602002673E+008,  0.20455194779E+007,  0.19000000000E+002,  0.00000000000E+000,  0.10000000000E+001
  0.17602152673E+008,  0.20452622996E+007,  0.19000000000E+002,  0.00000000000E+000,  0.10000000000E+001
  0.17602302673E+008,  0.20450062953E+007,  0.19000000000E+002,  0.00000000000E+000,  0.10000000000E+001
  0.17602452673E+008,  0.20447514728E+007,  0.19000000000E+002,  0.00000000000E+000,  0.10000000000E+001
  0.17602602673E+008,  0.20444978398E+007,  0.19000000000E+002,  0.00000000000E+000,  0.10000000000E+001
  0.17602752673E+008,  0.20442454034E+007,  0.19000000000E+002,  0.00000000000E+000,  0.10000000000E+001
  0.17602902673E+008,  0.20439941703E+007,  0.19000000000E+002,  0.00000000000E+000,  0.10000000000E+001
  0.17603052673E+008,  0.20437441469E+007,  0.19000000000E+002,  0.00000000000E+000,  0.10000000000E+001
  0.17603202673E+008,  0.20434953390E+007,  0.19000000000E+002,  0.00000000000E+000,  0.10000000000E+001
  0.17603352673E+008,  0.20432477519E+007,  0.19000000000E+002,  0.00000000000E+000,  0.10000000000E+001
  0.17603502673E+008,  0.20430013905E+007,  0.19000000000E+002,  0.00000000000E+000,  0.10000000000E+001
  0.17603652673E+008,  0.20427562590E+007,  0.19000000000E+002,  0.00000000000E+000,  0.10000000000E+001
  0.17603802673E+008,  0.20425123611E+007,  0.19000000000E+002,  0.00000000000E+000,  0.10000000000E+001
  0.17603952673E+008,  0.20422697000E+007,  0.19000000000E+002,  0.00000000000E+000,  0.10000000000E+001
  0.17604102673E+008,  0.20420282784E+007,  0.19000000000E+002,  0.00000000000E+000,  0.10000000000E+001
  0.17604252673E+008,  0.20417880986E+007,  0.19000000000E+002,  0.00000000000E+000,  0.10000000000E+001
  0.17604402673E+008,  0.20415491620E+007,  0.19000000000E+002,  0.00000000000E+000,  0.10000000000E+001
  0.17604552673E+008,  0.20413114701E+007,  0.19000000000E+002,  0.00000000000E+000,  0.10000000000E+001
  0.17604702673E+008,  0.20410750236E+007,  0.19000000000E+002,  0.00000000000E+000,  0.10000000000E+001
  0.17604852673E+008,  0.20408398228E+007,  0.19000000000E+002,  0.00000000000E+000,  0.10000000000E+001
  0.17605002673E+008,  0.20406058677E+007,  0.19000000000E+002,  0.00000000000E+000,  0.10000000000E+001
  0.17605152673E+008,  0.20403731578E+007,  0.19000000000E+002,  0.00000000000E+000,  0.10000000000E+001
  0.17605302673E+008,  0.20401416923E+007,  0.19000000000E+002,  0.00000000000E+000,  0.10000000000E+001
  0.17605452673E+008,  0.20399114701E+007,  0.19000000000E+002,  0.00000000000E+000,  0.10000000000E+001
  0.17605602673E+008,  0.20396824896E+007,  0.19000000000E+002,  0.00000000000E+000,  0.10000000000E+001
  0.17605752673E+008,  0.20394547491E+007,  0.19000000000E+002,  0.00000000000E+000,  0.10000000000E+001
  0.17605902673E+008,  0.20392282464E+007,  0.19000000000E+002,  0.00000000000E+000,  0.10000000000E+001
  0.17606052673E+008,  0.20390029793E+007,  0.19000000000E+002,  0.00000000000E+000,  0.10000000000E+001
  0.17606202673E+008,  0.20387789451E+007,  0.19000000000E+002,  0.00000000000E+000,  0.10000000000E+001
  0.17606352673E+008,  0.20385561410E+007,  0.19000000000E+002,  0.00000000000E+000,  0.10000000000E+001
  0.17606502673E+008,  0.20383345639E+007,  0.19000000000E+002,  0.00000000000E+000,  0.10000000000E+001
  0.17606652673E+008,  0.20381142105E+007,  0.19000000000E+002,  0.00000000000E+000,  0.10000000000E+001
  0.17606802673E+008,  0.20378950775E+007,  0.19000000000E+002,  0.00000000000E+000,  0.10000000000E+001
  0.17606952673E+008,  0.20376771610E+007,  0.19000000000E+002,  0.00000000000E+000,  0.10000000000E+001
  0.17607102673E+008,  0.20374604574E+007,  0.19000000000E+002,  0.00000000000E+000,  0.10000000000E+001
  0.17607252673E+008,  0.20372449627E+007,  0.19000000000E+002,  0.00000000000E+000,  0.10000000000E+001
  0.17607402673E+008,  0.20370306728E+007,  0.19000000000E+002,  0.00000000000E+000,  0.10000000000E+001
  0.17607552673E+008,  0.20368175834E+007,  0.19000000000E+002,  0.00000000000E+000,  0.10000000000E+001
  0.17607702673E+008,  0.20366056902E+007,  0.19000000000E+002,  0.00000000000E+000,  0.10000000000E+001
  0.17607852673E+008,  0.20363949888E+007,  0.19000000000E+002,  0.00000000000E+000,  0.10000000000E+001
  0.17608002673E+008,  0.20361854745E+007,  0.19000000000E+002,  0.00000000000E+000,  0.10000000000E+001
  0.17608152673E+008,  0.20359771428E+007,  0.19000000000E+002,  0.00000000000E+000,  0.10000000000E+001
  0.17608302673E+008,  0.20357699888E+007,  0.19000000000E+002,  0.00000000000E+000,  0.10000000000E+001
  0.17608452673E+008,  0.20355640078E+007,  0.19000000000E+002,  0.00000000000E+000,  0.10000000000E+001
  0.17608602673E+008,  0.20353591947E+007,  0.19000000000E+002,  0.00000000000E+000,  0.10000000000E+001
  0.17608752673E+008,  0.20351555448E+007,  0.19000000000E+002,  0.00000000000E+000,  0.10000000000E+001
  0.17608902673E+008,  0.20349530529E+007,  0.19000000000E+002,  0.00000000000E+000,  0.10000000000E+001
  0.17609052673E+008,  0.20347517139E+007,  0.19000000000E+002,  0.00000000000E+000,  0.10000000000E+001
  0.17609202673E+008,  0.20345515228E+007,  0.19000000000E+002,  0.00000000000E+000,  0.10000000000E+001
  0.17609352673E+008,  0.20343524743E+007,  0.19000000000E+002,  0.00000000000E+000,  0.10000000000E+001
  0.17609502673E+008,  0.20341545632E+007,  0.19000000000E+002,  0.00000000000E+000,  0.10000000000E+001
  0.17609652673E+008,  0.20339577843E+007,  0.19000000000E+002,  0.00000000000E+000,  0.10000000000E+001
  0.17609802673E+008,  0.20337621322E+007,  0.19000000000E+002,  0.00000000000E+000,  0.10000000000E+001
  0.17609952673E+008,  0.20335676017E+007,  0.19000000000E+002,  0.00000000000E+000,  0.10000000000E+001
  0.17610102673E+008,  0.20333741874E+007,  0.19000000000E+002,  0.00000000000E+000,  0.10000000000E+001
  0.17610252673E+008,  0.20331818839E+007,  0.19000000000E+002,  0.00000000000E+000,  0.10000000000E+001
  0.17610402673E+008,  0.20329906859E+007,  0.19000000000E+002,  0.00000000000E+000,  0.10000000000E+001
  0.17610552673E+008,  0.20328005880E+007,  0.19000000000E+002,  0.00000000000E+000,  0.10000000000E+001
  0.17610702673E+008,  0.20326115847E+007,  0.19000000000E+002,  0.00000000000E+000,  0.10000000000E+001
  0.17610852673E+008,  0.20324236706E+007,  0.19000000000E+002,  0.00000000000E+000,  0.10000000000E+001
  0.17611002673E+008,  0.20322368403E+007,  0.19000000000E+002,  0.00000000000E+000,  0.10000000000E+001
  0.17611152673E+008,  0.20320510883E+007,  0.19000000000E+002,  0.00000000000E+000,  0.10000000000E+001
  0.17611302673E+008,  0.20318664092E+007,  0.19000000000E+002,  0.00000000000E+000,  0.10000000000E+001
  0.17611452673E+008,  0.20316827975E+007,  0.19000000000E+002,  0.00000000000E+000,  0.10000000000E+001
  0.17611602673E+008,  0.20315002478E+007,  0.19000000000E+002,  0.00000000000E+000,  0.10000000000E+001
  0.17611752673E+008,  0.20313187547E+007,  0.19000000000E+002,  0.00000000000E+000,  0.10000000000E+001
  0.17611902673E+008,  0.20311383126E+007,  0.19000000000E+002,  0.00000000000E+000,  0.10000000000E+001
  0.17612052673E+008,  0.20309589162E+007,  0.19000000000E+002,  0.00000000000E+000,  0.10000000000E+001
  0.17612202673E+008,  0.20307805600E+007,  0.19000000000E+002,  0.00000000000E+000,  0.10000000000E+001
  0.17612352673E+008,  0.20306032385E+007,  0.19000000000E+002,  0.00000000000E+000,  0.10000000000E+001
  0.17612502673E+008,  0.20304269464E+007,  0.19000000000E+002,  0.00000000000E+000,  0.10000000000E+001
  0.17612652673E+008,  0.20302516781E+007,  0.19000000000E+002,  0.00000000000E+000,  0.10000000000E+001
  0.17612802673E+008,  0.20300774284E+007,  0.19000000000E+002,  0.00000000000E+000,  0.10000000000E+001
  0.17612952673E+008,  0.20299041918E+007,  0.19000000000E+002,  0.00000000000E+000,  0.10000000000E+001
  0.17613102673E+008,  0.20297319629E+007,  0.19000000000E+002,  0.00000000000E+000,  0.10000000000E+001
  0.17613252673E+008,  0.20295607363E+007,  0.19000000000E+002,  0.00000000000E+000,  0.10000000000E+001
  0.17613402673E+008,  0.20293905068E+007,  0.19000000000E+002,  0.00000000000E+000,  0.10000000000E+001
  0.17613552673E+008,  0.20292212688E+007,  0.19000000000E+002,  0.00000000000E+000,  0.10000000000E+001
  0.17613702673E+008,  0.20290530171E+007,  0.19000000000E+002,  0.00000000000E+000,  0.10000000000E+001
  0.17613852673E+008,  0.20288857464E+007,  0.19000000000E+002,  0.00000000000E+000,  0.10000000000E+001
  0.17614002673E+008,  0.20287194513E+007,  0.19000000000E+002,  0.00000000000E+000,  0.10000000000E+001
  0.17614152673E+008,  0.20285541266E+007,  0.19000000000E+002,  0.00000000000E+000,  0.10000000000E+001
  0.17614302673E+008,  0.20283897670E+007,  0.19000000000E+002,  0.00000000000E+000,  0.10000000000E+001
  0.17614452673E+008,  0.20282263672E+007,  0.19000000000E+002,  0.00000000000E+000,  0.10000000000E+001
  0.17614602673E+008,  0.20280639220E+007,  0.19000000000E+002,  0.00000000000E+000,  0.10000000000E+001
  0.17614752673E+008,  0.20279024262E+007,  0.19000000000E+002,  0.00000000000E+000,  0.10000000000E+001
  0.17614902673E+008,  0.20277418746E+007,  0.19000000000E+002,  0.00000000000E+000,  0.10000000000E+001
  0.17615052673E+008,  0.20275822619E+007,  0.19000000000E+002,  0.00000000000E+000,  0.10000000000E+001
  0.17615202673E+008,  0.20274235830E+007,  0.19000000000E+002,  0.00000000000E+000,  0.10000000000E+001
  0.17615352673E+008,  0.20272658328E+007,  0.19000000000E+002,  0.00000000000E+000,  0.10000000000E+001
  0.17615502673E+008,  0.20271090061E+007,  0.19000000000E+002,  0.00000000000E+000,  0.10000000000E+001
  0.17615652673E+008,  0.20269530979E+007,  0.19000000000E+002,  0.00000000000E+000,  0.10000000000E+001
  0.17615802673E+008,  0.20267981030E+007,  0.19000000000E+002,  0.00000000000E+000,  0.10000000000E+001
  0.17615952673E+008,  0.20266440164E+007,  0.19000000000E+002,  0.00000000000E+000,  0.10000000000E+001
  0.17616102673E+008,  0.20264908330E+007,  0.19000000000E+002,  0.00000000000E+000,  0.10000000000E+001
  0.17616252673E+008,  0.20263385478E+007,  0.19000000000E+002,  0.00000000000E+000,  0.10000000000E+001
  0.17616402673E+008,  0.20261871557E+007,  0.19000000000E+002,  0.00000000000E+000,  0.10000000000E+001
  0.17616552673E+008,  0.20260366519E+007,  0.19000000000E+002,  0.00000000000E+000,  0.10000000000E+001
  0.17616702673E+008,  0.20258870314E+007,  0.19000000000E+002,  0.00000000000E+000,  0.10000000000E+001
  0.17616852673E+008,  0.20257382891E+007,  0.19000000000E+002,  0.00000000000E+000,  0.10000000000E+001
  0.17617002673E+008,  0.20255904202E+007,  0.19000000000E+002,  0.00000000000E+000,  0.10000000000E+001
  0.17617152673E+008,  0.20254434198E+007,  0.19000000000E+002,  0.00000000000E+000,  0.10000000000E+001
  0.17617302673E+008,  0.20252972829E+007,  0.19000000000E+002,  0.00000000000E+000,  0.10000000000E+001
  0.17617452673E+008,  0.20251520049E+007,  0.19000000000E+002,  0.00000000000E+000,  0.10000000000E+001
  0.17617602673E+008,  0.20250075807E+007,  0.19000000000E+002,  0.00000000000E+000,  0.10000000000E+001
  0.17617752673E+008,  0.20248640056E+007,  0.19000000000E+002,  0.00000000000E+000,  0.10000000000E+001
  0.17617902673E+008,  0.20247212749E+007,  0.19000000000E+002,  0.00000000000E+000,  0.10000000000E+001
  0.17618052673E+008,  0.20245793836E+007,  0.19000000000E+002,  0.00000000000E+000,  0.10000000000E+001
  0.17618202673E+008,  0.20244383272E+007,  0.19000000000E+002,  0.00000000000E+000,  0.10000000000E+001
