"           TIME(S)","              PRES","              TEMP","             SAT_G","             SAT_L"
  0.50000000000E+000,  0.19999999152E+007,  0.19000000000E+002,  0.00000000000E+000,  0.10000000000E+001
  0.25000000000E+001,  0.19999975817E+007,  0.19000000000E+002,  0.00000000000E+000,  0.10000000000E+001
  0.45000000000E+001,  0.19999940487E+007,  0.19000000000E+002,  0.00000000000E+000,  0.10000000000E+001
  0.65000000000E+001,  0.19999900414E+007,  0.19000000000E+002,  0.00000000000E+000,  0.10000000000E+001
  0.85000000000E+001,  0.19999859871E+007,  0.19000000000E+002,  0.00000000000E+000,  0.10000000000E+001
  0.10500000000E+002,  0.19999821036E+007,  0.19000000000E+002,  0.00000000000E+000,  0.10000000000E+001
  0.12500000000E+002,  0.19999784838E+007,  0.19000000000E+002,  0.00000000000E+000,  0.10000000000E+001
  0.14500000000E+002,  0.19999751592E+007,  0.19000000000E+002,  0.00000000000E+000,  0.10000000000E+001
  0.16500000000E+002,  0.19999721335E+007,  0.19000000000E+002,  0.00000000000E+000,  0.10000000000E+001
  0.18500000000E+002,  0.19999693986E+007,  0.19000000000E+002,  0.00000000000E+000,  0.10000000000E+001
  0.20500000000E+002,  0.19999669410E+007,  0.19000000000E+002,  0.00000000000E+000,  0.10000000000E+001
  0.22500000000E+002,  0.19999647454E+007,  0.19000000000E+002,  0.00000000000E+000,  0.10000000000E+001
  0.24500000000E+002,  0.19999627961E+007,  0.19000000000E+002,  0.00000000000E+000,  0.10000000000E+001
  0.26500000000E+002,  0.19999610778E+007,  0.19000000000E+002,  0.00000000000E+000,  0.10000000000E+001
  0.28500000000E+002,  0.19999595759E+007,  0.19000000000E+002,  0.00000000000E+000,  0.10000000000E+001
  0.30500000000E+002,  0.19999582768E+007,  0.19000000000E+002,  0.00000000000E+000,  0.10000000000E+001
  0.32500000000E+002,  0.19999571674E+007,  0.19000000000E+002,  0.00000000000E+000,  0.10000000000E+001
  0.34500000000E+002,  0.19999562354E+007,  0.19000000000E+002,  0.00000000000E+000,  0.10000000000E+001
  0.36500000000E+002,  0.19999554693E+007,  0.19000000000E+002,  0.00000000000E+000,  0.10000000000E+001
  0.38500000000E+002,  0.19999548583E+007,  0.19000000000E+002,  0.00000000000E+000,  0.10000000000E+001
  0.40500000000E+002,  0.19999543919E+007,  0.19000000000E+002,  0.00000000000E+000,  0.10000000000E+001
  0.42500000000E+002,  0.19999540608E+007,  0.19000000000E+002,  0.00000000000E+000,  0.10000000000E+001
  0.44500000000E+002,  0.19999538555E+007,  0.19000000000E+002,  0.00000000000E+000,  0.10000000000E+001
  0.46500000000E+002,  0.19999537678E+007,  0.19000000000E+002,  0.00000000000E+000,  0.10000000000E+001
  0.48500000000E+002,  0.19999537891E+007,  0.19000000000E+002,  0.00000000000E+000,  0.10000000000E+001
  0.50500000000E+002,  0.19999539140E+007,  0.19000000000E+002,  0.00000000000E+000,  0.10000000000E+001
  0.52500000000E+002,  0.19999541305E+007,  0.19000000000E+002,  0.00000000000E+000,  0.10000000000E+001
  0.54500000000E+002,  0.19999544333E+007,  0.19000000000E+002,  0.00000000000E+000,  0.10000000000E+001
  0.56500000000E+002,  0.19999548174E+007,  0.19000000000E+002,  0.00000000000E+000,  0.10000000000E+001
  0.58500000000E+002,  0.19999552766E+007,  0.19000000000E+002,  0.00000000000E+000,  0.10000000000E+001
  0.60500000000E+002,  0.19999558055E+007,  0.19000000000E+002,  0.00000000000E+000,  0.10000000000E+001
  0.62500000000E+002,  0.19999563984E+007,  0.19000000000E+002,  0.00000000000E+000,  0.10000000000E+001
  0.64500000000E+002,  0.19999570504E+007,  0.19000000000E+002,  0.00000000000E+000,  0.10000000000E+001
  0.66500000000E+002,  0.19999577568E+007,  0.19000000000E+002,  0.00000000000E+000,  0.10000000000E+001
  0.68500000000E+002,  0.19999585132E+007,  0.19000000000E+002,  0.00000000000E+000,  0.10000000000E+001
  0.70500000000E+002,  0.19999593155E+007,  0.19000000000E+002,  0.00000000000E+000,  0.10000000000E+001
  0.72500000000E+002,  0.19999601598E+007,  0.19000000000E+002,  0.00000000000E+000,  0.10000000000E+001
  0.74500000000E+002,  0.19999610426E+007,  0.19000000000E+002,  0.00000000000E+000,  0.10000000000E+001
  0.76500000000E+002,  0.19999619605E+007,  0.19000000000E+002,  0.00000000000E+000,  0.10000000000E+001
  0.78500000000E+002,  0.19999629105E+007,  0.19000000000E+002,  0.00000000000E+000,  0.10000000000E+001
  0.80500000000E+002,  0.19999638896E+007,  0.19000000000E+002,  0.00000000000E+000,  0.10000000000E+001
  0.82500000000E+002,  0.19999648952E+007,  0.19000000000E+002,  0.00000000000E+000,  0.10000000000E+001
  0.84500000000E+002,  0.19999659247E+007,  0.19000000000E+002,  0.00000000000E+000,  0.10000000000E+001
  0.86500000000E+002,  0.19999669758E+007,  0.19000000000E+002,  0.00000000000E+000,  0.10000000000E+001
  0.88500000000E+002,  0.19999680463E+007,  0.19000000000E+002,  0.00000000000E+000,  0.10000000000E+001
  0.90500000000E+002,  0.19999691343E+007,  0.19000000000E+002,  0.00000000000E+000,  0.10000000000E+001
  0.92500000000E+002,  0.19999702378E+007,  0.19000000000E+002,  0.00000000000E+000,  0.10000000000E+001
  0.94500000000E+002,  0.19999713551E+007,  0.19000000000E+002,  0.00000000000E+000,  0.10000000000E+001
  0.96500000000E+002,  0.19999724846E+007,  0.19000000000E+002,  0.00000000000E+000,  0.10000000000E+001
  0.98500000000E+002,  0.19999736248E+007,  0.19000000000E+002,  0.00000000000E+000,  0.10000000000E+001
  0.10050000000E+003,  0.19999747744E+007,  0.19000000000E+002,  0.00000000000E+000,  0.10000000000E+001
  0.10250000000E+003,  0.19999759320E+007,  0.19000000000E+002,  0.00000000000E+000,  0.10000000000E+001
  0.10450000000E+003,  0.19999770964E+007,  0.19000000000E+002,  0.00000000000E+000,  0.10000000000E+001
  0.10650000000E+003,  0.19999782667E+007,  0.19000000000E+002,  0.00000000000E+000,  0.10000000000E+001
  0.10850000000E+003,  0.19999794417E+007,  0.19000000000E+002,  0.00000000000E+000,  0.10000000000E+001
  0.11050000000E+003,  0.19999806206E+007,  0.19000000000E+002,  0.00000000000E+000,  0.10000000000E+001
  0.11250000000E+003,  0.19999818024E+007,  0.19000000000E+002,  0.00000000000E+000,  0.10000000000E+001
  0.11450000000E+003,  0.19999829865E+007,  0.19000000000E+002,  0.00000000000E+000,  0.10000000000E+001
  0.11650000000E+003,  0.19999841720E+007,  0.19000000000E+002,  0.00000000000E+000,  0.10000000000E+001
  0.11850000000E+003,  0.19999853584E+007,  0.19000000000E+002,  0.00000000000E+000,  0.10000000000E+001
  0.12050000000E+003,  0.19999865449E+007,  0.19000000000E+002,  0.00000000000E+000,  0.10000000000E+001
  0.12250000000E+003,  0.19999877311E+007,  0.19000000000E+002,  0.00000000000E+000,  0.10000000000E+001
  0.12450000000E+003,  0.19999889164E+007,  0.19000000000E+002,  0.00000000000E+000,  0.10000000000E+001
  0.12650000000E+003,  0.19999901003E+007,  0.19000000000E+002,  0.00000000000E+000,  0.10000000000E+001
  0.12850000000E+003,  0.19999912825E+007,  0.19000000000E+002,  0.00000000000E+000,  0.10000000000E+001
  0.13050000000E+003,  0.19999924625E+007,  0.19000000000E+002,  0.00000000000E+000,  0.10000000000E+001
  0.13250000000E+003,  0.19999936400E+007,  0.19000000000E+002,  0.00000000000E+000,  0.10000000000E+001
  0.13450000000E+003,  0.19999948146E+007,  0.19000000000E+002,  0.00000000000E+000,  0.10000000000E+001
  0.13650000000E+003,  0.19999959861E+007,  0.19000000000E+002,  0.00000000000E+000,  0.10000000000E+001
  0.13850000000E+003,  0.19999971542E+007,  0.19000000000E+002,  0.00000000000E+000,  0.10000000000E+001
  0.14050000000E+003,  0.19999983186E+007,  0.19000000000E+002,  0.00000000000E+000,  0.10000000000E+001
  0.14250000000E+003,  0.19999994792E+007,  0.19000000000E+002,  0.00000000000E+000,  0.10000000000E+001
  0.14450000000E+003,  0.20000006357E+007,  0.19000000000E+002,  0.00000000000E+000,  0.10000000000E+001
  0.14650000000E+003,  0.20000017880E+007,  0.19000000000E+002,  0.00000000000E+000,  0.10000000000E+001
  0.14850000000E+003,  0.20000029360E+007,  0.19000000000E+002,  0.00000000000E+000,  0.10000000000E+001
  0.15050000000E+003,  0.20000040794E+007,  0.19000000000E+002,  0.00000000000E+000,  0.10000000000E+001
  0.15250000000E+003,  0.20000052182E+007,  0.19000000000E+002,  0.00000000000E+000,  0.10000000000E+001
  0.15450000000E+003,  0.20000063522E+007,  0.19000000000E+002,  0.00000000000E+000,  0.10000000000E+001
  0.15650000000E+003,  0.20000074815E+007,  0.19000000000E+002,  0.00000000000E+000,  0.10000000000E+001
  0.15850000000E+003,  0.20000086058E+007,  0.19000000000E+002,  0.00000000000E+000,  0.10000000000E+001
  0.16050000000E+003,  0.20000097252E+007,  0.19000000000E+002,  0.00000000000E+000,  0.10000000000E+001
  0.16250000000E+003,  0.20000108396E+007,  0.19000000000E+002,  0.00000000000E+000,  0.10000000000E+001
  0.16450000000E+003,  0.20000119489E+007,  0.19000000000E+002,  0.00000000000E+000,  0.10000000000E+001
  0.16650000000E+003,  0.20000130531E+007,  0.19000000000E+002,  0.00000000000E+000,  0.10000000000E+001
  0.16850000000E+003,  0.20000141522E+007,  0.19000000000E+002,  0.00000000000E+000,  0.10000000000E+001
  0.17050000000E+003,  0.20000152462E+007,  0.19000000000E+002,  0.00000000000E+000,  0.10000000000E+001
  0.17250000000E+003,  0.20000163350E+007,  0.19000000000E+002,  0.00000000000E+000,  0.10000000000E+001
  0.17450000000E+003,  0.20000174187E+007,  0.19000000000E+002,  0.00000000000E+000,  0.10000000000E+001
  0.17650000000E+003,  0.20000184972E+007,  0.19000000000E+002,  0.00000000000E+000,  0.10000000000E+001
  0.17850000000E+003,  0.20000195706E+007,  0.19000000000E+002,  0.00000000000E+000,  0.10000000000E+001
  0.18050000000E+003,  0.20000206389E+007,  0.19000000000E+002,  0.00000000000E+000,  0.10000000000E+001
  0.18250000000E+003,  0.20000217020E+007,  0.19000000000E+002,  0.00000000000E+000,  0.10000000000E+001
  0.18450000000E+003,  0.20000227601E+007,  0.19000000000E+002,  0.00000000000E+000,  0.10000000000E+001
  0.18650000000E+003,  0.20000238131E+007,  0.19000000000E+002,  0.00000000000E+000,  0.10000000000E+001
  0.18850000000E+003,  0.20000248610E+007,  0.19000000000E+002,  0.00000000000E+000,  0.10000000000E+001
  0.19050000000E+003,  0.20000259040E+007,  0.19000000000E+002,  0.00000000000E+000,  0.10000000000E+001
  0.19250000000E+003,  0.20000269420E+007,  0.19000000000E+002,  0.00000000000E+000,  0.10000000000E+001
  0.19450000000E+003,  0.20000279750E+007,  0.19000000000E+002,  0.00000000000E+000,  0.10000000000E+001
  0.19650000000E+003,  0.20000290031E+007,  0.19000000000E+002,  0.00000000000E+000,  0.10000000000E+001
  0.19850000000E+003,  0.20000300264E+007,  0.19000000000E+002,  0.00000000000E+000,  0.10000000000E+001
  0.20050000000E+003,  0.20000310449E+007,  0.19000000000E+002,  0.00000000000E+000,  0.10000000000E+001
  0.20250000000E+003,  0.20000320586E+007,  0.19000000000E+002,  0.00000000000E+000,  0.10000000000E+001
  0.20450000000E+003,  0.20000330676E+007,  0.19000000000E+002,  0.00000000000E+000,  0.10000000000E+001
  0.20650000000E+003,  0.20000340719E+007,  0.19000000000E+002,  0.00000000000E+000,  0.10000000000E+001
  0.20850000000E+003,  0.20000350716E+007,  0.19000000000E+002,  0.00000000000E+000,  0.10000000000E+001
  0.21050000000E+003,  0.20000360667E+007,  0.19000000000E+002,  0.00000000000E+000,  0.10000000000E+001
  0.21250000000E+003,  0.20000370573E+007,  0.19000000000E+002,  0.00000000000E+000,  0.10000000000E+001
  0.21450000000E+003,  0.20000380434E+007,  0.19000000000E+002,  0.00000000000E+000,  0.10000000000E+001
  0.21650000000E+003,  0.20000390251E+007,  0.19000000000E+002,  0.00000000000E+000,  0.10000000000E+001
  0.21850000000E+003,  0.20000400023E+007,  0.19000000000E+002,  0.00000000000E+000,  0.10000000000E+001
  0.22050000000E+003,  0.20000409753E+007,  0.19000000000E+002,  0.00000000000E+000,  0.10000000000E+001
  0.22250000000E+003,  0.20000419440E+007,  0.19000000000E+002,  0.00000000000E+000,  0.10000000000E+001
  0.22450000000E+003,  0.20000429084E+007,  0.19000000000E+002,  0.00000000000E+000,  0.10000000000E+001
  0.22650000000E+003,  0.20000438687E+007,  0.19000000000E+002,  0.00000000000E+000,  0.10000000000E+001
  0.22850000000E+003,  0.20000448249E+007,  0.19000000000E+002,  0.00000000000E+000,  0.10000000000E+001
  0.23050000000E+003,  0.20000457770E+007,  0.19000000000E+002,  0.00000000000E+000,  0.10000000000E+001
  0.23250000000E+003,  0.20000467251E+007,  0.19000000000E+002,  0.00000000000E+000,  0.10000000000E+001
  0.23450000000E+003,  0.20000476691E+007,  0.19000000000E+002,  0.00000000000E+000,  0.10000000000E+001
  0.23650000000E+003,  0.20000486093E+007,  0.19000000000E+002,  0.00000000000E+000,  0.10000000000E+001
  0.23850000000E+003,  0.20000495456E+007,  0.19000000000E+002,  0.00000000000E+000,  0.10000000000E+001
  0.24050000000E+003,  0.20000504781E+007,  0.19000000000E+002,  0.00000000000E+000,  0.10000000000E+001
  0.24250000000E+003,  0.20000514068E+007,  0.19000000000E+002,  0.00000000000E+000,  0.10000000000E+001
  0.24450000000E+003,  0.20000523318E+007,  0.19000000000E+002,  0.00000000000E+000,  0.10000000000E+001
  0.24650000000E+003,  0.20000532531E+007,  0.19000000000E+002,  0.00000000000E+000,  0.10000000000E+001
  0.24850000000E+003,  0.20000541708E+007,  0.19000000000E+002,  0.00000000000E+000,  0.10000000000E+001
  0.25050000000E+003,  0.20000550850E+007,  0.19000000000E+002,  0.00000000000E+000,  0.10000000000E+001
  0.25250000000E+003,  0.20000559955E+007,  0.19000000000E+002,  0.00000000000E+000,  0.10000000000E+001
  0.25450000000E+003,  0.20000569026E+007,  0.19000000000E+002,  0.00000000000E+000,  0.10000000000E+001
  0.25650000000E+003,  0.20000578063E+007,  0.19000000000E+002,  0.00000000000E+000,  0.10000000000E+001
  0.25850000000E+003,  0.20000587066E+007,  0.19000000000E+002,  0.00000000000E+000,  0.10000000000E+001
  0.26050000000E+003,  0.20000596035E+007,  0.19000000000E+002,  0.00000000000E+000,  0.10000000000E+001
  0.26250000000E+003,  0.20000604971E+007,  0.19000000000E+002,  0.00000000000E+000,  0.10000000000E+001
  0.26450000000E+003,  0.20000613875E+007,  0.19000000000E+002,  0.00000000000E+000,  0.10000000000E+001
  0.26650000000E+003,  0.20000622746E+007,  0.19000000000E+002,  0.00000000000E+000,  0.10000000000E+001
  0.26850000000E+003,  0.20000631586E+007,  0.19000000000E+002,  0.00000000000E+000,  0.10000000000E+001
  0.27050000000E+003,  0.20000640394E+007,  0.19000000000E+002,  0.00000000000E+000,  0.10000000000E+001
  0.27250000000E+003,  0.20000649171E+007,  0.19000000000E+002,  0.00000000000E+000,  0.10000000000E+001
  0.27450000000E+003,  0.20000657918E+007,  0.19000000000E+002,  0.00000000000E+000,  0.10000000000E+001
  0.27650000000E+003,  0.20000666634E+007,  0.19000000000E+002,  0.00000000000E+000,  0.10000000000E+001
  0.27850000000E+003,  0.20000675321E+007,  0.19000000000E+002,  0.00000000000E+000,  0.10000000000E+001
  0.28050000000E+003,  0.20000683979E+007,  0.19000000000E+002,  0.00000000000E+000,  0.10000000000E+001
  0.28250000000E+003,  0.20000692607E+007,  0.19000000000E+002,  0.00000000000E+000,  0.10000000000E+001
  0.28450000000E+003,  0.20000701207E+007,  0.19000000000E+002,  0.00000000000E+000,  0.10000000000E+001
  0.28650000000E+003,  0.20000709779E+007,  0.19000000000E+002,  0.00000000000E+000,  0.10000000000E+001
  0.28850000000E+003,  0.20000718323E+007,  0.19000000000E+002,  0.00000000000E+000,  0.10000000000E+001
  0.29050000000E+003,  0.20000726839E+007,  0.19000000000E+002,  0.00000000000E+000,  0.10000000000E+001
  0.29250000000E+003,  0.20000735328E+007,  0.19000000000E+002,  0.00000000000E+000,  0.10000000000E+001
  0.29450000000E+003,  0.20000743790E+007,  0.19000000000E+002,  0.00000000000E+000,  0.10000000000E+001
  0.29650000000E+003,  0.20000752226E+007,  0.19000000000E+002,  0.00000000000E+000,  0.10000000000E+001
  0.29850000000E+003,  0.20000760635E+007,  0.19000000000E+002,  0.00000000000E+000,  0.10000000000E+001
  0.30050000000E+003,  0.20000769019E+007,  0.19000000000E+002,  0.00000000000E+000,  0.10000000000E+001
  0.30250000000E+003,  0.20000777377E+007,  0.19000000000E+002,  0.00000000000E+000,  0.10000000000E+001
  0.30450000000E+003,  0.20000785710E+007,  0.19000000000E+002,  0.00000000000E+000,  0.10000000000E+001
  0.30650000000E+003,  0.20000794018E+007,  0.19000000000E+002,  0.00000000000E+000,  0.10000000000E+001
  0.30850000000E+003,  0.20000802301E+007,  0.19000000000E+002,  0.00000000000E+000,  0.10000000000E+001
  0.31050000000E+003,  0.20000810560E+007,  0.19000000000E+002,  0.00000000000E+000,  0.10000000000E+001
  0.31250000000E+003,  0.20000818795E+007,  0.19000000000E+002,  0.00000000000E+000,  0.10000000000E+001
  0.31450000000E+003,  0.20000827006E+007,  0.19000000000E+002,  0.00000000000E+000,  0.10000000000E+001
  0.31650000000E+003,  0.20000835194E+007,  0.19000000000E+002,  0.00000000000E+000,  0.10000000000E+001
  0.31850000000E+003,  0.20000843358E+007,  0.19000000000E+002,  0.00000000000E+000,  0.10000000000E+001
  0.32050000000E+003,  0.20000851500E+007,  0.19000000000E+002,  0.00000000000E+000,  0.10000000000E+001
  0.32250000000E+003,  0.20000859619E+007,  0.19000000000E+002,  0.00000000000E+000,  0.10000000000E+001
  0.32450000000E+003,  0.20000867715E+007,  0.19000000000E+002,  0.00000000000E+000,  0.10000000000E+001
  0.32650000000E+003,  0.20000875790E+007,  0.19000000000E+002,  0.00000000000E+000,  0.10000000000E+001
  0.32850000000E+003,  0.20000883842E+007,  0.19000000000E+002,  0.00000000000E+000,  0.10000000000E+001
  0.33050000000E+003,  0.20000891873E+007,  0.19000000000E+002,  0.00000000000E+000,  0.10000000000E+001
  0.33250000000E+003,  0.20000899882E+007,  0.19000000000E+002,  0.00000000000E+000,  0.10000000000E+001
  0.33450000000E+003,  0.20000907870E+007,  0.19000000000E+002,  0.00000000000E+000,  0.10000000000E+001
  0.33650000000E+003,  0.20000915837E+007,  0.19000000000E+002,  0.00000000000E+000,  0.10000000000E+001
  0.33850000000E+003,  0.20000923784E+007,  0.19000000000E+002,  0.00000000000E+000,  0.10000000000E+001
  0.34050000000E+003,  0.20000931710E+007,  0.19000000000E+002,  0.00000000000E+000,  0.10000000000E+001
  0.34250000000E+003,  0.20000939615E+007,  0.19000000000E+002,  0.00000000000E+000,  0.10000000000E+001
  0.34450000000E+003,  0.20000947501E+007,  0.19000000000E+002,  0.00000000000E+000,  0.10000000000E+001
  0.34650000000E+003,  0.20000955367E+007,  0.19000000000E+002,  0.00000000000E+000,  0.10000000000E+001
  0.34850000000E+003,  0.20000963213E+007,  0.19000000000E+002,  0.00000000000E+000,  0.10000000000E+001
  0.35050000000E+003,  0.20000971039E+007,  0.19000000000E+002,  0.00000000000E+000,  0.10000000000E+001
  0.35250000000E+003,  0.20000978846E+007,  0.19000000000E+002,  0.00000000000E+000,  0.10000000000E+001
  0.35450000000E+003,  0.20000986635E+007,  0.19000000000E+002,  0.00000000000E+000,  0.10000000000E+001
  0.35650000000E+003,  0.20000994404E+007,  0.19000000000E+002,  0.00000000000E+000,  0.10000000000E+001
  0.35850000000E+003,  0.20001002154E+007,  0.19000000000E+002,  0.00000000000E+000,  0.10000000000E+001
  0.36050000000E+003,  0.20001009887E+007,  0.19000000000E+002,  0.00000000000E+000,  0.10000000000E+001
  0.36250000000E+003,  0.20001017601E+007,  0.19000000000E+002,  0.00000000000E+000,  0.10000000000E+001
  0.36450000000E+003,  0.20001025296E+007,  0.19000000000E+002,  0.00000000000E+000,  0.10000000000E+001
  0.36650000000E+003,  0.20001032974E+007,  0.19000000000E+002,  0.00000000000E+000,  0.10000000000E+001
  0.36850000000E+003,  0.20001040634E+007,  0.19000000000E+002,  0.00000000000E+000,  0.10000000000E+001
  0.37050000000E+003,  0.20001048276E+007,  0.19000000000E+002,  0.00000000000E+000,  0.10000000000E+001
  0.37250000000E+003,  0.20001055900E+007,  0.19000000000E+002,  0.00000000000E+000,  0.10000000000E+001
  0.37450000000E+003,  0.20001063508E+007,  0.19000000000E+002,  0.00000000000E+000,  0.10000000000E+001
  0.37650000000E+003,  0.20001071098E+007,  0.19000000000E+002,  0.00000000000E+000,  0.10000000000E+001
