"           TIME(S)","              PRES","              TEMP","             SAT_G","             SAT_L"
  0.17592105000E+008,  0.21000000017E+007,  0.19000000000E+002,  0.00000000000E+000,  0.10000000000E+001
  0.17592130000E+008,  0.21000001485E+007,  0.19000000000E+002,  0.00000000000E+000,  0.10000000000E+001
  0.17592255000E+008,  0.21000020950E+007,  0.19000000000E+002,  0.00000000000E+000,  0.10000000000E+001
  0.17592405000E+008,  0.21000019365E+007,  0.19000000000E+002,  0.00000000000E+000,  0.10000000000E+001
  0.17592555000E+008,  0.20999953431E+007,  0.19000000000E+002,  0.00000000000E+000,  0.10000000000E+001
  0.17592705000E+008,  0.20999787613E+007,  0.19000000000E+002,  0.00000000000E+000,  0.10000000000E+001
  0.17592855000E+008,  0.20999490234E+007,  0.19000000000E+002,  0.00000000000E+000,  0.10000000000E+001
  0.17593005000E+008,  0.20999042346E+007,  0.19000000000E+002,  0.00000000000E+000,  0.10000000000E+001
  0.17593155000E+008,  0.20998428117E+007,  0.19000000000E+002,  0.00000000000E+000,  0.10000000000E+001
  0.17593305000E+008,  0.20997624380E+007,  0.19000000000E+002,  0.00000000000E+000,  0.10000000000E+001
  0.17593455000E+008,  0.20996626868E+007,  0.19000000000E+002,  0.00000000000E+000,  0.10000000000E+001
  0.17593605000E+008,  0.20995433937E+007,  0.19000000000E+002,  0.00000000000E+000,  0.10000000000E+001
  0.17593755000E+008,  0.20994045520E+007,  0.19000000000E+002,  0.00000000000E+000,  0.10000000000E+001
  0.17593905000E+008,  0.20992463080E+007,  0.19000000000E+002,  0.00000000000E+000,  0.10000000000E+001
  0.17594055000E+008,  0.20990689542E+007,  0.19000000000E+002,  0.00000000000E+000,  0.10000000000E+001
  0.17594205000E+008,  0.20988729177E+007,  0.19000000000E+002,  0.00000000000E+000,  0.10000000000E+001
  0.17594355000E+008,  0.20986587444E+007,  0.19000000000E+002,  0.00000000000E+000,  0.10000000000E+001
  0.17594505000E+008,  0.20984270804E+007,  0.19000000000E+002,  0.00000000000E+000,  0.10000000000E+001
  0.17594655000E+008,  0.20981786521E+007,  0.19000000000E+002,  0.00000000000E+000,  0.10000000000E+001
  0.17594805000E+008,  0.20979142473E+007,  0.19000000000E+002,  0.00000000000E+000,  0.10000000000E+001
  0.17594955000E+008,  0.20976346959E+007,  0.19000000000E+002,  0.00000000000E+000,  0.10000000000E+001
  0.17595105000E+008,  0.20973408540E+007,  0.19000000000E+002,  0.00000000000E+000,  0.10000000000E+001
  0.17595255000E+008,  0.20970335893E+007,  0.19000000000E+002,  0.00000000000E+000,  0.10000000000E+001
  0.17595405000E+008,  0.20967137695E+007,  0.19000000000E+002,  0.00000000000E+000,  0.10000000000E+001
  0.17595555000E+008,  0.20963822519E+007,  0.19000000000E+002,  0.00000000000E+000,  0.10000000000E+001
  0.17595705000E+008,  0.20960398760E+007,  0.19000000000E+002,  0.00000000000E+000,  0.10000000000E+001
  0.17595855000E+008,  0.20956874571E+007,  0.19000000000E+002,  0.00000000000E+000,  0.10000000000E+001
  0.17596005000E+008,  0.20953257821E+007,  0.19000000000E+002,  0.00000000000E+000,  0.10000000000E+001
  0.17596155000E+008,  0.20949556056E+007,  0.19000000000E+002,  0.00000000000E+000,  0.10000000000E+001
  0.17596305000E+008,  0.20945776484E+007,  0.19000000000E+002,  0.00000000000E+000,  0.10000000000E+001
  0.17596455000E+008,  0.20941925951E+007,  0.19000000000E+002,  0.00000000000E+000,  0.10000000000E+001
  0.17596605000E+008,  0.20938010956E+007,  0.19000000000E+002,  0.00000000000E+000,  0.10000000000E+001
  0.17596755000E+008,  0.20934264145E+007,  0.19000000000E+002,  0.00000000000E+000,  0.10000000000E+001
  0.17596830000E+008,  0.20932644462E+007,  0.19000000000E+002,  0.00000000000E+000,  0.10000000000E+001
  0.17596867501E+008,  0.20931873884E+007,  0.19000000000E+002,  0.00000000000E+000,  0.10000000000E+001
  0.17596886251E+008,  0.20931496825E+007,  0.19000000000E+002,  0.00000000000E+000,  0.10000000000E+001
  0.17596980003E+008,  0.20929678427E+007,  0.19000000000E+002,  0.00000000000E+000,  0.10000000000E+001
  0.17597026879E+008,  0.20928780736E+007,  0.19000000000E+002,  0.00000000000E+000,  0.10000000000E+001
  0.17597176879E+008,  0.20925852483E+007,  0.19000000000E+002,  0.00000000000E+000,  0.10000000000E+001
  0.17597326879E+008,  0.20922872764E+007,  0.19000000000E+002,  0.00000000000E+000,  0.10000000000E+001
  0.17597401880E+008,  0.20921409563E+007,  0.19000000000E+002,  0.00000000000E+000,  0.10000000000E+001
  0.17597439380E+008,  0.20920685702E+007,  0.19000000000E+002,  0.00000000000E+000,  0.10000000000E+001
  0.17597589380E+008,  0.20918013886E+007,  0.19000000000E+002,  0.00000000000E+000,  0.10000000000E+001
  0.17597664381E+008,  0.20916740068E+007,  0.19000000000E+002,  0.00000000000E+000,  0.10000000000E+001
  0.17597814381E+008,  0.20914111027E+007,  0.19000000000E+002,  0.00000000000E+000,  0.10000000000E+001
  0.17597964381E+008,  0.20911372096E+007,  0.19000000000E+002,  0.00000000000E+000,  0.10000000000E+001
  0.17598039381E+008,  0.20909983734E+007,  0.19000000000E+002,  0.00000000000E+000,  0.10000000000E+001
  0.17598076882E+008,  0.20909333865E+007,  0.19000000000E+002,  0.00000000000E+000,  0.10000000000E+001
  0.17598095632E+008,  0.20909019853E+007,  0.19000000000E+002,  0.00000000000E+000,  0.10000000000E+001
  0.17598189384E+008,  0.20907487401E+007,  0.19000000000E+002,  0.00000000000E+000,  0.10000000000E+001
  0.17598339384E+008,  0.20905296825E+007,  0.19000000000E+002,  0.00000000000E+000,  0.10000000000E+001
  0.17598414384E+008,  0.20904228421E+007,  0.19000000000E+002,  0.00000000000E+000,  0.10000000000E+001
  0.17598564384E+008,  0.20902119677E+007,  0.19000000000E+002,  0.00000000000E+000,  0.10000000000E+001
  0.17598639385E+008,  0.20901131599E+007,  0.19000000000E+002,  0.00000000000E+000,  0.10000000000E+001
  0.17598676885E+008,  0.20900673295E+007,  0.19000000000E+002,  0.00000000000E+000,  0.10000000000E+001
  0.17598695636E+008,  0.20900454210E+007,  0.19000000000E+002,  0.00000000000E+000,  0.10000000000E+001
  0.17598789387E+008,  0.20899374153E+007,  0.19000000000E+002,  0.00000000000E+000,  0.10000000000E+001
  0.17598836264E+008,  0.20898900352E+007,  0.19000000000E+002,  0.00000000000E+000,  0.10000000000E+001
  0.17598859702E+008,  0.20898668002E+007,  0.19000000000E+002,  0.00000000000E+000,  0.10000000000E+001
  0.17598871421E+008,  0.20898552066E+007,  0.19000000000E+002,  0.00000000000E+000,  0.10000000000E+001
  0.17598930017E+008,  0.20897793313E+007,  0.19000000000E+002,  0.00000000000E+000,  0.10000000000E+001
  0.17599080017E+008,  0.20895342007E+007,  0.19000000000E+002,  0.00000000000E+000,  0.10000000000E+001
  0.17599230017E+008,  0.20892342153E+007,  0.19000000000E+002,  0.00000000000E+000,  0.10000000000E+001
  0.17599380017E+008,  0.20888903818E+007,  0.19000000000E+002,  0.00000000000E+000,  0.10000000000E+001
  0.17599530017E+008,  0.20885153534E+007,  0.19000000000E+002,  0.00000000000E+000,  0.10000000000E+001
  0.17599680017E+008,  0.20881207580E+007,  0.19000000000E+002,  0.00000000000E+000,  0.10000000000E+001
  0.17599830017E+008,  0.20877161898E+007,  0.19000000000E+002,  0.00000000000E+000,  0.10000000000E+001
  0.17599980017E+008,  0.20873089908E+007,  0.19000000000E+002,  0.00000000000E+000,  0.10000000000E+001
  0.17600130017E+008,  0.20869044673E+007,  0.19000000000E+002,  0.00000000000E+000,  0.10000000000E+001
  0.17600280017E+008,  0.20865062755E+007,  0.19000000000E+002,  0.00000000000E+000,  0.10000000000E+001
  0.17600430017E+008,  0.20861168196E+007,  0.19000000000E+002,  0.00000000000E+000,  0.10000000000E+001
  0.17600580017E+008,  0.20857375921E+007,  0.19000000000E+002,  0.00000000000E+000,  0.10000000000E+001
  0.17600730017E+008,  0.20853694389E+007,  0.19000000000E+002,  0.00000000000E+000,  0.10000000000E+001
  0.17600880017E+008,  0.20850127555E+007,  0.19000000000E+002,  0.00000000000E+000,  0.10000000000E+001
  0.17601030017E+008,  0.20846676270E+007,  0.19000000000E+002,  0.00000000000E+000,  0.10000000000E+001
  0.17601180017E+008,  0.20843339272E+007,  0.19000000000E+002,  0.00000000000E+000,  0.10000000000E+001
  0.17601330017E+008,  0.20840113881E+007,  0.19000000000E+002,  0.00000000000E+000,  0.10000000000E+001
  0.17601480017E+008,  0.20836996494E+007,  0.19000000000E+002,  0.00000000000E+000,  0.10000000000E+001
  0.17601630017E+008,  0.20833982934E+007,  0.19000000000E+002,  0.00000000000E+000,  0.10000000000E+001
  0.17601780017E+008,  0.20831068695E+007,  0.19000000000E+002,  0.00000000000E+000,  0.10000000000E+001
  0.17601930017E+008,  0.20828249125E+007,  0.19000000000E+002,  0.00000000000E+000,  0.10000000000E+001
  0.17602080017E+008,  0.20825519550E+007,  0.19000000000E+002,  0.00000000000E+000,  0.10000000000E+001
  0.17602230017E+008,  0.20822875362E+007,  0.19000000000E+002,  0.00000000000E+000,  0.10000000000E+001
  0.17602380017E+008,  0.20820312087E+007,  0.19000000000E+002,  0.00000000000E+000,  0.10000000000E+001
  0.17602530017E+008,  0.20817825427E+007,  0.19000000000E+002,  0.00000000000E+000,  0.10000000000E+001
  0.17602680017E+008,  0.20815411286E+007,  0.19000000000E+002,  0.00000000000E+000,  0.10000000000E+001
  0.17602830017E+008,  0.20813065788E+007,  0.19000000000E+002,  0.00000000000E+000,  0.10000000000E+001
  0.17602980017E+008,  0.20810785286E+007,  0.19000000000E+002,  0.00000000000E+000,  0.10000000000E+001
  0.17603130017E+008,  0.20808566363E+007,  0.19000000000E+002,  0.00000000000E+000,  0.10000000000E+001
  0.17603280017E+008,  0.20806405829E+007,  0.19000000000E+002,  0.00000000000E+000,  0.10000000000E+001
  0.17603430017E+008,  0.20804300714E+007,  0.19000000000E+002,  0.00000000000E+000,  0.10000000000E+001
  0.17603580017E+008,  0.20802248259E+007,  0.19000000000E+002,  0.00000000000E+000,  0.10000000000E+001
  0.17603730017E+008,  0.20800245907E+007,  0.19000000000E+002,  0.00000000000E+000,  0.10000000000E+001
  0.17603880017E+008,  0.20798291287E+007,  0.19000000000E+002,  0.00000000000E+000,  0.10000000000E+001
  0.17604030017E+008,  0.20796382207E+007,  0.19000000000E+002,  0.00000000000E+000,  0.10000000000E+001
  0.17604180017E+008,  0.20794516639E+007,  0.19000000000E+002,  0.00000000000E+000,  0.10000000000E+001
  0.17604330017E+008,  0.20792692704E+007,  0.19000000000E+002,  0.00000000000E+000,  0.10000000000E+001
  0.17604480017E+008,  0.20790908666E+007,  0.19000000000E+002,  0.00000000000E+000,  0.10000000000E+001
  0.17604630017E+008,  0.20789162916E+007,  0.19000000000E+002,  0.00000000000E+000,  0.10000000000E+001
  0.17604780017E+008,  0.20787453963E+007,  0.19000000000E+002,  0.00000000000E+000,  0.10000000000E+001
  0.17604930017E+008,  0.20785780423E+007,  0.19000000000E+002,  0.00000000000E+000,  0.10000000000E+001
  0.17605080017E+008,  0.20784141012E+007,  0.19000000000E+002,  0.00000000000E+000,  0.10000000000E+001
  0.17605230017E+008,  0.20782534533E+007,  0.19000000000E+002,  0.00000000000E+000,  0.10000000000E+001
  0.17605380017E+008,  0.20780959872E+007,  0.19000000000E+002,  0.00000000000E+000,  0.10000000000E+001
  0.17605530017E+008,  0.20779415988E+007,  0.19000000000E+002,  0.00000000000E+000,  0.10000000000E+001
  0.17605680017E+008,  0.20777901909E+007,  0.19000000000E+002,  0.00000000000E+000,  0.10000000000E+001
  0.17605830017E+008,  0.20776416721E+007,  0.19000000000E+002,  0.00000000000E+000,  0.10000000000E+001
  0.17605980017E+008,  0.20774959569E+007,  0.19000000000E+002,  0.00000000000E+000,  0.10000000000E+001
  0.17606130017E+008,  0.20773529646E+007,  0.19000000000E+002,  0.00000000000E+000,  0.10000000000E+001
  0.17606280017E+008,  0.20772126193E+007,  0.19000000000E+002,  0.00000000000E+000,  0.10000000000E+001
  0.17606430017E+008,  0.20770748491E+007,  0.19000000000E+002,  0.00000000000E+000,  0.10000000000E+001
  0.17606580017E+008,  0.20769395860E+007,  0.19000000000E+002,  0.00000000000E+000,  0.10000000000E+001
  0.17606730017E+008,  0.20768067655E+007,  0.19000000000E+002,  0.00000000000E+000,  0.10000000000E+001
  0.17606880017E+008,  0.20766763263E+007,  0.19000000000E+002,  0.00000000000E+000,  0.10000000000E+001
  0.17607030017E+008,  0.20765482099E+007,  0.19000000000E+002,  0.00000000000E+000,  0.10000000000E+001
  0.17607180017E+008,  0.20764223605E+007,  0.19000000000E+002,  0.00000000000E+000,  0.10000000000E+001
  0.17607330017E+008,  0.20762987250E+007,  0.19000000000E+002,  0.00000000000E+000,  0.10000000000E+001
  0.17607480017E+008,  0.20761772521E+007,  0.19000000000E+002,  0.00000000000E+000,  0.10000000000E+001
  0.17607630017E+008,  0.20760578930E+007,  0.19000000000E+002,  0.00000000000E+000,  0.10000000000E+001
  0.17607780017E+008,  0.20759406005E+007,  0.19000000000E+002,  0.00000000000E+000,  0.10000000000E+001
  0.17607930017E+008,  0.20758253294E+007,  0.19000000000E+002,  0.00000000000E+000,  0.10000000000E+001
  0.17608080017E+008,  0.20757120361E+007,  0.19000000000E+002,  0.00000000000E+000,  0.10000000000E+001
  0.17608230017E+008,  0.20756006784E+007,  0.19000000000E+002,  0.00000000000E+000,  0.10000000000E+001
  0.17608380017E+008,  0.20754912156E+007,  0.19000000000E+002,  0.00000000000E+000,  0.10000000000E+001
  0.17608530017E+008,  0.20753836085E+007,  0.19000000000E+002,  0.00000000000E+000,  0.10000000000E+001
  0.17608680017E+008,  0.20752778189E+007,  0.19000000000E+002,  0.00000000000E+000,  0.10000000000E+001
  0.17608830017E+008,  0.20751738100E+007,  0.19000000000E+002,  0.00000000000E+000,  0.10000000000E+001
  0.17608980017E+008,  0.20750715458E+007,  0.19000000000E+002,  0.00000000000E+000,  0.10000000000E+001
  0.17609130017E+008,  0.20749709916E+007,  0.19000000000E+002,  0.00000000000E+000,  0.10000000000E+001
  0.17609280017E+008,  0.20748721136E+007,  0.19000000000E+002,  0.00000000000E+000,  0.10000000000E+001
  0.17609430017E+008,  0.20747748789E+007,  0.19000000000E+002,  0.00000000000E+000,  0.10000000000E+001
  0.17609580017E+008,  0.20746792555E+007,  0.19000000000E+002,  0.00000000000E+000,  0.10000000000E+001
  0.17609730017E+008,  0.20745852122E+007,  0.19000000000E+002,  0.00000000000E+000,  0.10000000000E+001
  0.17609880017E+008,  0.20744927188E+007,  0.19000000000E+002,  0.00000000000E+000,  0.10000000000E+001
  0.17610030017E+008,  0.20744017454E+007,  0.19000000000E+002,  0.00000000000E+000,  0.10000000000E+001
  0.17610180017E+008,  0.20743122634E+007,  0.19000000000E+002,  0.00000000000E+000,  0.10000000000E+001
  0.17610330017E+008,  0.20742242444E+007,  0.19000000000E+002,  0.00000000000E+000,  0.10000000000E+001
  0.17610480017E+008,  0.20741376609E+007,  0.19000000000E+002,  0.00000000000E+000,  0.10000000000E+001
  0.17610630017E+008,  0.20740524861E+007,  0.19000000000E+002,  0.00000000000E+000,  0.10000000000E+001
  0.17610780017E+008,  0.20739686936E+007,  0.19000000000E+002,  0.00000000000E+000,  0.10000000000E+001
  0.17610930017E+008,  0.20738862577E+007,  0.19000000000E+002,  0.00000000000E+000,  0.10000000000E+001
  0.17611080017E+008,  0.20738051534E+007,  0.19000000000E+002,  0.00000000000E+000,  0.10000000000E+001
  0.17611230017E+008,  0.20737253560E+007,  0.19000000000E+002,  0.00000000000E+000,  0.10000000000E+001
  0.17611380017E+008,  0.20736468415E+007,  0.19000000000E+002,  0.00000000000E+000,  0.10000000000E+001
  0.17611530017E+008,  0.20735695864E+007,  0.19000000000E+002,  0.00000000000E+000,  0.10000000000E+001
  0.17611680017E+008,  0.20734935675E+007,  0.19000000000E+002,  0.00000000000E+000,  0.10000000000E+001
  0.17611830017E+008,  0.20734187624E+007,  0.19000000000E+002,  0.00000000000E+000,  0.10000000000E+001
  0.17611980017E+008,  0.20733451489E+007,  0.19000000000E+002,  0.00000000000E+000,  0.10000000000E+001
  0.17612130017E+008,  0.20732727054E+007,  0.19000000000E+002,  0.00000000000E+000,  0.10000000000E+001
  0.17612280017E+008,  0.20732014107E+007,  0.19000000000E+002,  0.00000000000E+000,  0.10000000000E+001
  0.17612430017E+008,  0.20731312440E+007,  0.19000000000E+002,  0.00000000000E+000,  0.10000000000E+001
  0.17612580017E+008,  0.20730621849E+007,  0.19000000000E+002,  0.00000000000E+000,  0.10000000000E+001
  0.17612730017E+008,  0.20729942134E+007,  0.19000000000E+002,  0.00000000000E+000,  0.10000000000E+001
  0.17612880017E+008,  0.20729273101E+007,  0.19000000000E+002,  0.00000000000E+000,  0.10000000000E+001
  0.17613030017E+008,  0.20728614556E+007,  0.19000000000E+002,  0.00000000000E+000,  0.10000000000E+001
  0.17613180017E+008,  0.20727966312E+007,  0.19000000000E+002,  0.00000000000E+000,  0.10000000000E+001
  0.17613330017E+008,  0.20727328184E+007,  0.19000000000E+002,  0.00000000000E+000,  0.10000000000E+001
  0.17613480017E+008,  0.20726699991E+007,  0.19000000000E+002,  0.00000000000E+000,  0.10000000000E+001
  0.17613630017E+008,  0.20726081556E+007,  0.19000000000E+002,  0.00000000000E+000,  0.10000000000E+001
  0.17613780017E+008,  0.20725472704E+007,  0.19000000000E+002,  0.00000000000E+000,  0.10000000000E+001
  0.17613930017E+008,  0.20724873265E+007,  0.19000000000E+002,  0.00000000000E+000,  0.10000000000E+001
  0.17614080017E+008,  0.20724283071E+007,  0.19000000000E+002,  0.00000000000E+000,  0.10000000000E+001
  0.17614230017E+008,  0.20723701958E+007,  0.19000000000E+002,  0.00000000000E+000,  0.10000000000E+001
  0.17614380017E+008,  0.20723129763E+007,  0.19000000000E+002,  0.00000000000E+000,  0.10000000000E+001
  0.17614530017E+008,  0.20722566422E+007,  0.19000000000E+002,  0.00000000000E+000,  0.10000000000E+001
  0.17614680017E+008,  0.20722011481E+007,  0.19000000000E+002,  0.00000000000E+000,  0.10000000000E+001
  0.17614830017E+008,  0.20721465179E+007,  0.19000000000E+002,  0.00000000000E+000,  0.10000000000E+001
  0.17614980017E+008,  0.20720927003E+007,  0.19000000000E+002,  0.00000000000E+000,  0.10000000000E+001
  0.17615130017E+008,  0.20720397154E+007,  0.19000000000E+002,  0.00000000000E+000,  0.10000000000E+001
  0.17615280017E+008,  0.20719875157E+007,  0.19000000000E+002,  0.00000000000E+000,  0.10000000000E+001
  0.17615430017E+008,  0.20719361186E+007,  0.19000000000E+002,  0.00000000000E+000,  0.10000000000E+001
  0.17615580017E+008,  0.20718854800E+007,  0.19000000000E+002,  0.00000000000E+000,  0.10000000000E+001
  0.17615730017E+008,  0.20718356151E+007,  0.19000000000E+002,  0.00000000000E+000,  0.10000000000E+001
  0.17615880017E+008,  0.20717864828E+007,  0.19000000000E+002,  0.00000000000E+000,  0.10000000000E+001
  0.17616030017E+008,  0.20717380964E+007,  0.19000000000E+002,  0.00000000000E+000,  0.10000000000E+001
  0.17616180017E+008,  0.20716904177E+007,  0.19000000000E+002,  0.00000000000E+000,  0.10000000000E+001
  0.17616330017E+008,  0.20716434582E+007,  0.19000000000E+002,  0.00000000000E+000,  0.10000000000E+001
  0.17616480017E+008,  0.20715971823E+007,  0.19000000000E+002,  0.00000000000E+000,  0.10000000000E+001
  0.17616630017E+008,  0.20715516000E+007,  0.19000000000E+002,  0.00000000000E+000,  0.10000000000E+001
  0.17616780017E+008,  0.20715066779E+007,  0.19000000000E+002,  0.00000000000E+000,  0.10000000000E+001
  0.17616930017E+008,  0.20714624245E+007,  0.19000000000E+002,  0.00000000000E+000,  0.10000000000E+001
  0.17617080017E+008,  0.20714188092E+007,  0.19000000000E+002,  0.00000000000E+000,  0.10000000000E+001
  0.17617230017E+008,  0.20713758387E+007,  0.19000000000E+002,  0.00000000000E+000,  0.10000000000E+001
  0.17617380017E+008,  0.20713334844E+007,  0.19000000000E+002,  0.00000000000E+000,  0.10000000000E+001
  0.17617530017E+008,  0.20712917521E+007,  0.19000000000E+002,  0.00000000000E+000,  0.10000000000E+001
  0.17617680017E+008,  0.20712506151E+007,  0.19000000000E+002,  0.00000000000E+000,  0.10000000000E+001
  0.17617830017E+008,  0.20712100779E+007,  0.19000000000E+002,  0.00000000000E+000,  0.10000000000E+001
  0.17617980017E+008,  0.20711701159E+007,  0.19000000000E+002,  0.00000000000E+000,  0.10000000000E+001
  0.17618130017E+008,  0.20711307325E+007,  0.19000000000E+002,  0.00000000000E+000,  0.10000000000E+001
