"           TIME(S)","              PRES","              TEMP","             SAT_G","             SAT_L"
  0.17592105000E+008,  0.21000000001E+007,  0.19000000000E+002,  0.00000000000E+000,  0.10000000000E+001
  0.17592130000E+008,  0.21000000371E+007,  0.19000000000E+002,  0.00000000000E+000,  0.10000000000E+001
  0.17592255000E+008,  0.21000008613E+007,  0.19000000000E+002,  0.00000000000E+000,  0.10000000000E+001
  0.17592405000E+008,  0.20999983794E+007,  0.19000000000E+002,  0.00000000000E+000,  0.10000000000E+001
  0.17592555000E+008,  0.20999900174E+007,  0.19000000000E+002,  0.00000000000E+000,  0.10000000000E+001
  0.17592705000E+008,  0.20999739223E+007,  0.19000000000E+002,  0.00000000000E+000,  0.10000000000E+001
  0.17592855000E+008,  0.20999495644E+007,  0.19000000000E+002,  0.00000000000E+000,  0.10000000000E+001
  0.17593005000E+008,  0.20999171765E+007,  0.19000000000E+002,  0.00000000000E+000,  0.10000000000E+001
  0.17593155000E+008,  0.20998776512E+007,  0.19000000000E+002,  0.00000000000E+000,  0.10000000000E+001
  0.17593305000E+008,  0.20998320323E+007,  0.19000000000E+002,  0.00000000000E+000,  0.10000000000E+001
  0.17593455000E+008,  0.20997812595E+007,  0.19000000000E+002,  0.00000000000E+000,  0.10000000000E+001
  0.17593605000E+008,  0.20997261191E+007,  0.19000000000E+002,  0.00000000000E+000,  0.10000000000E+001
  0.17593755000E+008,  0.20996672437E+007,  0.19000000000E+002,  0.00000000000E+000,  0.10000000000E+001
  0.17593905000E+008,  0.20996051333E+007,  0.19000000000E+002,  0.00000000000E+000,  0.10000000000E+001
  0.17594055000E+008,  0.20995401846E+007,  0.19000000000E+002,  0.00000000000E+000,  0.10000000000E+001
  0.17594205000E+008,  0.20994727179E+007,  0.19000000000E+002,  0.00000000000E+000,  0.10000000000E+001
  0.17594355000E+008,  0.20994029990E+007,  0.19000000000E+002,  0.00000000000E+000,  0.10000000000E+001
  0.17594505000E+008,  0.20993312546E+007,  0.19000000000E+002,  0.00000000000E+000,  0.10000000000E+001
  0.17594655000E+008,  0.20992576822E+007,  0.19000000000E+002,  0.00000000000E+000,  0.10000000000E+001
  0.17594805000E+008,  0.20991824571E+007,  0.19000000000E+002,  0.00000000000E+000,  0.10000000000E+001
  0.17594955000E+008,  0.20991057364E+007,  0.19000000000E+002,  0.00000000000E+000,  0.10000000000E+001
  0.17595105000E+008,  0.20990276613E+007,  0.19000000000E+002,  0.00000000000E+000,  0.10000000000E+001
  0.17595255000E+008,  0.20989483592E+007,  0.19000000000E+002,  0.00000000000E+000,  0.10000000000E+001
  0.17595405000E+008,  0.20988679451E+007,  0.19000000000E+002,  0.00000000000E+000,  0.10000000000E+001
  0.17595555000E+008,  0.20987784120E+007,  0.19000000000E+002,  0.00000000000E+000,  0.10000000000E+001
  0.17595630000E+008,  0.20987313271E+007,  0.19000000000E+002,  0.00000000000E+000,  0.10000000000E+001
  0.17595667501E+008,  0.20987073425E+007,  0.19000000000E+002,  0.00000000000E+000,  0.10000000000E+001
  0.17595817501E+008,  0.20986102402E+007,  0.19000000000E+002,  0.00000000000E+000,  0.10000000000E+001
  0.17595826876E+008,  0.20986041719E+007,  0.19000000000E+002,  0.00000000000E+000,  0.10000000000E+001
  0.17595831564E+008,  0.20986011382E+007,  0.19000000000E+002,  0.00000000000E+000,  0.10000000000E+001
  0.17595855001E+008,  0.20985859469E+007,  0.19000000000E+002,  0.00000000000E+000,  0.10000000000E+001
  0.17595866720E+008,  0.20985783446E+007,  0.19000000000E+002,  0.00000000000E+000,  0.10000000000E+001
  0.17595872580E+008,  0.20985745416E+007,  0.19000000000E+002,  0.00000000000E+000,  0.10000000000E+001
  0.17595901877E+008,  0.20985554163E+007,  0.19000000000E+002,  0.00000000000E+000,  0.10000000000E+001
  0.17595916526E+008,  0.20985458310E+007,  0.19000000000E+002,  0.00000000000E+000,  0.10000000000E+001
  0.17595989771E+008,  0.20984967458E+007,  0.19000000000E+002,  0.00000000000E+000,  0.10000000000E+001
  0.17596139771E+008,  0.20983921287E+007,  0.19000000000E+002,  0.00000000000E+000,  0.10000000000E+001
  0.17596289771E+008,  0.20982842406E+007,  0.19000000000E+002,  0.00000000000E+000,  0.10000000000E+001
  0.17596364771E+008,  0.20982286780E+007,  0.19000000000E+002,  0.00000000000E+000,  0.10000000000E+001
  0.17596402272E+008,  0.20982003421E+007,  0.19000000000E+002,  0.00000000000E+000,  0.10000000000E+001
  0.17596421022E+008,  0.20981859627E+007,  0.19000000000E+002,  0.00000000000E+000,  0.10000000000E+001
  0.17596514774E+008,  0.20981073515E+007,  0.19000000000E+002,  0.00000000000E+000,  0.10000000000E+001
  0.17596664774E+008,  0.20979686831E+007,  0.19000000000E+002,  0.00000000000E+000,  0.10000000000E+001
  0.17596739774E+008,  0.20978931206E+007,  0.19000000000E+002,  0.00000000000E+000,  0.10000000000E+001
  0.17596777275E+008,  0.20978531417E+007,  0.19000000000E+002,  0.00000000000E+000,  0.10000000000E+001
  0.17596927275E+008,  0.20976289302E+007,  0.19000000000E+002,  0.00000000000E+000,  0.10000000000E+001
  0.17597002275E+008,  0.20974741342E+007,  0.19000000000E+002,  0.00000000000E+000,  0.10000000000E+001
  0.17597152275E+008,  0.20970209040E+007,  0.19000000000E+002,  0.00000000000E+000,  0.10000000000E+001
  0.17597302275E+008,  0.20964505735E+007,  0.19000000000E+002,  0.00000000000E+000,  0.10000000000E+001
  0.17597452275E+008,  0.20957962060E+007,  0.19000000000E+002,  0.00000000000E+000,  0.10000000000E+001
  0.17597602275E+008,  0.20950886394E+007,  0.19000000000E+002,  0.00000000000E+000,  0.10000000000E+001
  0.17597752275E+008,  0.20943527670E+007,  0.19000000000E+002,  0.00000000000E+000,  0.10000000000E+001
  0.17597902275E+008,  0.20936066809E+007,  0.19000000000E+002,  0.00000000000E+000,  0.10000000000E+001
  0.17598052275E+008,  0.20928624842E+007,  0.19000000000E+002,  0.00000000000E+000,  0.10000000000E+001
  0.17598202275E+008,  0.20921276956E+007,  0.19000000000E+002,  0.00000000000E+000,  0.10000000000E+001
  0.17598352275E+008,  0.20914066160E+007,  0.19000000000E+002,  0.00000000000E+000,  0.10000000000E+001
  0.17598502275E+008,  0.20907014161E+007,  0.19000000000E+002,  0.00000000000E+000,  0.10000000000E+001
  0.17598652275E+008,  0.20900129162E+007,  0.19000000000E+002,  0.00000000000E+000,  0.10000000000E+001
  0.17598802275E+008,  0.20893411143E+007,  0.19000000000E+002,  0.00000000000E+000,  0.10000000000E+001
  0.17598952275E+008,  0.20886855281E+007,  0.19000000000E+002,  0.00000000000E+000,  0.10000000000E+001
  0.17599102275E+008,  0.20880454131E+007,  0.19000000000E+002,  0.00000000000E+000,  0.10000000000E+001
  0.17599252275E+008,  0.20874198967E+007,  0.19000000000E+002,  0.00000000000E+000,  0.10000000000E+001
  0.17599402275E+008,  0.20868080608E+007,  0.19000000000E+002,  0.00000000000E+000,  0.10000000000E+001
  0.17599552275E+008,  0.20862089911E+007,  0.19000000000E+002,  0.00000000000E+000,  0.10000000000E+001
  0.17599702275E+008,  0.20856218056E+007,  0.19000000000E+002,  0.00000000000E+000,  0.10000000000E+001
  0.17599852275E+008,  0.20850456703E+007,  0.19000000000E+002,  0.00000000000E+000,  0.10000000000E+001
  0.17600002275E+008,  0.20844798071E+007,  0.19000000000E+002,  0.00000000000E+000,  0.10000000000E+001
  0.17600152275E+008,  0.20839234967E+007,  0.19000000000E+002,  0.00000000000E+000,  0.10000000000E+001
  0.17600302275E+008,  0.20833760790E+007,  0.19000000000E+002,  0.00000000000E+000,  0.10000000000E+001
  0.17600452275E+008,  0.20828369509E+007,  0.19000000000E+002,  0.00000000000E+000,  0.10000000000E+001
  0.17600602275E+008,  0.20823055637E+007,  0.19000000000E+002,  0.00000000000E+000,  0.10000000000E+001
  0.17600752275E+008,  0.20817814199E+007,  0.19000000000E+002,  0.00000000000E+000,  0.10000000000E+001
  0.17600902275E+008,  0.20812640689E+007,  0.19000000000E+002,  0.00000000000E+000,  0.10000000000E+001
  0.17601052275E+008,  0.20807531040E+007,  0.19000000000E+002,  0.00000000000E+000,  0.10000000000E+001
  0.17601202275E+008,  0.20802481581E+007,  0.19000000000E+002,  0.00000000000E+000,  0.10000000000E+001
  0.17601352275E+008,  0.20797489004E+007,  0.19000000000E+002,  0.00000000000E+000,  0.10000000000E+001
  0.17601502275E+008,  0.20792550329E+007,  0.19000000000E+002,  0.00000000000E+000,  0.10000000000E+001
  0.17601652275E+008,  0.20787662871E+007,  0.19000000000E+002,  0.00000000000E+000,  0.10000000000E+001
  0.17601802275E+008,  0.20782824211E+007,  0.19000000000E+002,  0.00000000000E+000,  0.10000000000E+001
  0.17601952275E+008,  0.20778032169E+007,  0.19000000000E+002,  0.00000000000E+000,  0.10000000000E+001
  0.17602102275E+008,  0.20773284776E+007,  0.19000000000E+002,  0.00000000000E+000,  0.10000000000E+001
  0.17602252275E+008,  0.20768580258E+007,  0.19000000000E+002,  0.00000000000E+000,  0.10000000000E+001
  0.17602402275E+008,  0.20763917007E+007,  0.19000000000E+002,  0.00000000000E+000,  0.10000000000E+001
  0.17602552275E+008,  0.20759293567E+007,  0.19000000000E+002,  0.00000000000E+000,  0.10000000000E+001
  0.17602702275E+008,  0.20754708620E+007,  0.19000000000E+002,  0.00000000000E+000,  0.10000000000E+001
  0.17602852275E+008,  0.20750160964E+007,  0.19000000000E+002,  0.00000000000E+000,  0.10000000000E+001
  0.17603002275E+008,  0.20745649505E+007,  0.19000000000E+002,  0.00000000000E+000,  0.10000000000E+001
  0.17603152275E+008,  0.20741173246E+007,  0.19000000000E+002,  0.00000000000E+000,  0.10000000000E+001
  0.17603302275E+008,  0.20736731272E+007,  0.19000000000E+002,  0.00000000000E+000,  0.10000000000E+001
  0.17603452275E+008,  0.20732322744E+007,  0.19000000000E+002,  0.00000000000E+000,  0.10000000000E+001
  0.17603602275E+008,  0.20727946891E+007,  0.19000000000E+002,  0.00000000000E+000,  0.10000000000E+001
  0.17603752275E+008,  0.20723603001E+007,  0.19000000000E+002,  0.00000000000E+000,  0.10000000000E+001
  0.17603902275E+008,  0.20719290415E+007,  0.19000000000E+002,  0.00000000000E+000,  0.10000000000E+001
  0.17604052275E+008,  0.20715008525E+007,  0.19000000000E+002,  0.00000000000E+000,  0.10000000000E+001
  0.17604202275E+008,  0.20710756761E+007,  0.19000000000E+002,  0.00000000000E+000,  0.10000000000E+001
  0.17604352275E+008,  0.20706534596E+007,  0.19000000000E+002,  0.00000000000E+000,  0.10000000000E+001
  0.17604502275E+008,  0.20702341534E+007,  0.19000000000E+002,  0.00000000000E+000,  0.10000000000E+001
  0.17604652275E+008,  0.20698177113E+007,  0.19000000000E+002,  0.00000000000E+000,  0.10000000000E+001
  0.17604802275E+008,  0.20694040896E+007,  0.19000000000E+002,  0.00000000000E+000,  0.10000000000E+001
  0.17604952275E+008,  0.20689932475E+007,  0.19000000000E+002,  0.00000000000E+000,  0.10000000000E+001
  0.17605102275E+008,  0.20685851461E+007,  0.19000000000E+002,  0.00000000000E+000,  0.10000000000E+001
  0.17605252275E+008,  0.20681797488E+007,  0.19000000000E+002,  0.00000000000E+000,  0.10000000000E+001
  0.17605402275E+008,  0.20677770210E+007,  0.19000000000E+002,  0.00000000000E+000,  0.10000000000E+001
  0.17605552275E+008,  0.20673769295E+007,  0.19000000000E+002,  0.00000000000E+000,  0.10000000000E+001
  0.17605702275E+008,  0.20669794429E+007,  0.19000000000E+002,  0.00000000000E+000,  0.10000000000E+001
  0.17605852275E+008,  0.20665845311E+007,  0.19000000000E+002,  0.00000000000E+000,  0.10000000000E+001
  0.17606002275E+008,  0.20661921655E+007,  0.19000000000E+002,  0.00000000000E+000,  0.10000000000E+001
  0.17606152275E+008,  0.20658023184E+007,  0.19000000000E+002,  0.00000000000E+000,  0.10000000000E+001
  0.17606302275E+008,  0.20654149635E+007,  0.19000000000E+002,  0.00000000000E+000,  0.10000000000E+001
  0.17606452275E+008,  0.20650300754E+007,  0.19000000000E+002,  0.00000000000E+000,  0.10000000000E+001
  0.17606602275E+008,  0.20646476294E+007,  0.19000000000E+002,  0.00000000000E+000,  0.10000000000E+001
  0.17606752275E+008,  0.20642676021E+007,  0.19000000000E+002,  0.00000000000E+000,  0.10000000000E+001
  0.17606902275E+008,  0.20638899706E+007,  0.19000000000E+002,  0.00000000000E+000,  0.10000000000E+001
  0.17607052275E+008,  0.20635147127E+007,  0.19000000000E+002,  0.00000000000E+000,  0.10000000000E+001
  0.17607202275E+008,  0.20631418072E+007,  0.19000000000E+002,  0.00000000000E+000,  0.10000000000E+001
  0.17607352275E+008,  0.20627712332E+007,  0.19000000000E+002,  0.00000000000E+000,  0.10000000000E+001
  0.17607502275E+008,  0.20624029705E+007,  0.19000000000E+002,  0.00000000000E+000,  0.10000000000E+001
  0.17607652275E+008,  0.20620369995E+007,  0.19000000000E+002,  0.00000000000E+000,  0.10000000000E+001
  0.17607802275E+008,  0.20616733011E+007,  0.19000000000E+002,  0.00000000000E+000,  0.10000000000E+001
  0.17607952275E+008,  0.20613118567E+007,  0.19000000000E+002,  0.00000000000E+000,  0.10000000000E+001
  0.17608102275E+008,  0.20609526480E+007,  0.19000000000E+002,  0.00000000000E+000,  0.10000000000E+001
  0.17608252275E+008,  0.20605956574E+007,  0.19000000000E+002,  0.00000000000E+000,  0.10000000000E+001
  0.17608402275E+008,  0.20602408674E+007,  0.19000000000E+002,  0.00000000000E+000,  0.10000000000E+001
  0.17608552275E+008,  0.20598882611E+007,  0.19000000000E+002,  0.00000000000E+000,  0.10000000000E+001
  0.17608702275E+008,  0.20595378217E+007,  0.19000000000E+002,  0.00000000000E+000,  0.10000000000E+001
  0.17608852275E+008,  0.20591895331E+007,  0.19000000000E+002,  0.00000000000E+000,  0.10000000000E+001
  0.17609002275E+008,  0.20588433792E+007,  0.19000000000E+002,  0.00000000000E+000,  0.10000000000E+001
  0.17609152275E+008,  0.20584993442E+007,  0.19000000000E+002,  0.00000000000E+000,  0.10000000000E+001
  0.17609302275E+008,  0.20581574128E+007,  0.19000000000E+002,  0.00000000000E+000,  0.10000000000E+001
  0.17609452275E+008,  0.20578175698E+007,  0.19000000000E+002,  0.00000000000E+000,  0.10000000000E+001
  0.17609602275E+008,  0.20574798002E+007,  0.19000000000E+002,  0.00000000000E+000,  0.10000000000E+001
  0.17609752275E+008,  0.20571440895E+007,  0.19000000000E+002,  0.00000000000E+000,  0.10000000000E+001
  0.17609902275E+008,  0.20568104231E+007,  0.19000000000E+002,  0.00000000000E+000,  0.10000000000E+001
  0.17610052275E+008,  0.20564787868E+007,  0.19000000000E+002,  0.00000000000E+000,  0.10000000000E+001
  0.17610202275E+008,  0.20561491666E+007,  0.19000000000E+002,  0.00000000000E+000,  0.10000000000E+001
  0.17610352275E+008,  0.20558215486E+007,  0.19000000000E+002,  0.00000000000E+000,  0.10000000000E+001
  0.17610502275E+008,  0.20554959193E+007,  0.19000000000E+002,  0.00000000000E+000,  0.10000000000E+001
  0.17610652275E+008,  0.20551722650E+007,  0.19000000000E+002,  0.00000000000E+000,  0.10000000000E+001
  0.17610802275E+008,  0.20548505726E+007,  0.19000000000E+002,  0.00000000000E+000,  0.10000000000E+001
  0.17610952275E+008,  0.20545308290E+007,  0.19000000000E+002,  0.00000000000E+000,  0.10000000000E+001
  0.17611102275E+008,  0.20542130210E+007,  0.19000000000E+002,  0.00000000000E+000,  0.10000000000E+001
  0.17611252275E+008,  0.20538971360E+007,  0.19000000000E+002,  0.00000000000E+000,  0.10000000000E+001
  0.17611402275E+008,  0.20535831613E+007,  0.19000000000E+002,  0.00000000000E+000,  0.10000000000E+001
  0.17611552275E+008,  0.20532710843E+007,  0.19000000000E+002,  0.00000000000E+000,  0.10000000000E+001
  0.17611702275E+008,  0.20529608926E+007,  0.19000000000E+002,  0.00000000000E+000,  0.10000000000E+001
  0.17611852275E+008,  0.20526525740E+007,  0.19000000000E+002,  0.00000000000E+000,  0.10000000000E+001
  0.17612002275E+008,  0.20523461163E+007,  0.19000000000E+002,  0.00000000000E+000,  0.10000000000E+001
  0.17612152275E+008,  0.20520415076E+007,  0.19000000000E+002,  0.00000000000E+000,  0.10000000000E+001
  0.17612302275E+008,  0.20517387359E+007,  0.19000000000E+002,  0.00000000000E+000,  0.10000000000E+001
  0.17612452275E+008,  0.20514377895E+007,  0.19000000000E+002,  0.00000000000E+000,  0.10000000000E+001
  0.17612602275E+008,  0.20511386568E+007,  0.19000000000E+002,  0.00000000000E+000,  0.10000000000E+001
  0.17612752275E+008,  0.20508413260E+007,  0.19000000000E+002,  0.00000000000E+000,  0.10000000000E+001
  0.17612902275E+008,  0.20505457860E+007,  0.19000000000E+002,  0.00000000000E+000,  0.10000000000E+001
  0.17613052275E+008,  0.20502520252E+007,  0.19000000000E+002,  0.00000000000E+000,  0.10000000000E+001
  0.17613202275E+008,  0.20499600324E+007,  0.19000000000E+002,  0.00000000000E+000,  0.10000000000E+001
  0.17613352275E+008,  0.20496697966E+007,  0.19000000000E+002,  0.00000000000E+000,  0.10000000000E+001
  0.17613502275E+008,  0.20493813066E+007,  0.19000000000E+002,  0.00000000000E+000,  0.10000000000E+001
  0.17613652275E+008,  0.20490945515E+007,  0.19000000000E+002,  0.00000000000E+000,  0.10000000000E+001
  0.17613802275E+008,  0.20488095205E+007,  0.19000000000E+002,  0.00000000000E+000,  0.10000000000E+001
  0.17613952275E+008,  0.20485262028E+007,  0.19000000000E+002,  0.00000000000E+000,  0.10000000000E+001
  0.17614102275E+008,  0.20482445877E+007,  0.19000000000E+002,  0.00000000000E+000,  0.10000000000E+001
  0.17614252275E+008,  0.20479646647E+007,  0.19000000000E+002,  0.00000000000E+000,  0.10000000000E+001
  0.17614402275E+008,  0.20476864231E+007,  0.19000000000E+002,  0.00000000000E+000,  0.10000000000E+001
  0.17614552275E+008,  0.20474098526E+007,  0.19000000000E+002,  0.00000000000E+000,  0.10000000000E+001
  0.17614702275E+008,  0.20471349429E+007,  0.19000000000E+002,  0.00000000000E+000,  0.10000000000E+001
  0.17614852275E+008,  0.20468616837E+007,  0.19000000000E+002,  0.00000000000E+000,  0.10000000000E+001
  0.17615002275E+008,  0.20465900647E+007,  0.19000000000E+002,  0.00000000000E+000,  0.10000000000E+001
  0.17615152275E+008,  0.20463200759E+007,  0.19000000000E+002,  0.00000000000E+000,  0.10000000000E+001
  0.17615302275E+008,  0.20460517073E+007,  0.19000000000E+002,  0.00000000000E+000,  0.10000000000E+001
  0.17615452275E+008,  0.20457849488E+007,  0.19000000000E+002,  0.00000000000E+000,  0.10000000000E+001
  0.17615602275E+008,  0.20455197906E+007,  0.19000000000E+002,  0.00000000000E+000,  0.10000000000E+001
  0.17615752275E+008,  0.20452562229E+007,  0.19000000000E+002,  0.00000000000E+000,  0.10000000000E+001
  0.17615902275E+008,  0.20449942360E+007,  0.19000000000E+002,  0.00000000000E+000,  0.10000000000E+001
  0.17616052275E+008,  0.20447338201E+007,  0.19000000000E+002,  0.00000000000E+000,  0.10000000000E+001
  0.17616202275E+008,  0.20444749657E+007,  0.19000000000E+002,  0.00000000000E+000,  0.10000000000E+001
  0.17616352275E+008,  0.20442176632E+007,  0.19000000000E+002,  0.00000000000E+000,  0.10000000000E+001
  0.17616502275E+008,  0.20439619031E+007,  0.19000000000E+002,  0.00000000000E+000,  0.10000000000E+001
  0.17616652275E+008,  0.20437076761E+007,  0.19000000000E+002,  0.00000000000E+000,  0.10000000000E+001
  0.17616802275E+008,  0.20434549727E+007,  0.19000000000E+002,  0.00000000000E+000,  0.10000000000E+001
  0.17616952275E+008,  0.20432037838E+007,  0.19000000000E+002,  0.00000000000E+000,  0.10000000000E+001
  0.17617102275E+008,  0.20429541002E+007,  0.19000000000E+002,  0.00000000000E+000,  0.10000000000E+001
  0.17617252275E+008,  0.20427059126E+007,  0.19000000000E+002,  0.00000000000E+000,  0.10000000000E+001
  0.17617402275E+008,  0.20424592119E+007,  0.19000000000E+002,  0.00000000000E+000,  0.10000000000E+001
  0.17617552275E+008,  0.20422139892E+007,  0.19000000000E+002,  0.00000000000E+000,  0.10000000000E+001
  0.17617702275E+008,  0.20419702356E+007,  0.19000000000E+002,  0.00000000000E+000,  0.10000000000E+001
  0.17617852275E+008,  0.20417279419E+007,  0.19000000000E+002,  0.00000000000E+000,  0.10000000000E+001
  0.17618002275E+008,  0.20414870996E+007,  0.19000000000E+002,  0.00000000000E+000,  0.10000000000E+001
  0.17618152275E+008,  0.20412476997E+007,  0.19000000000E+002,  0.00000000000E+000,  0.10000000000E+001
  0.17618302275E+008,  0.20410097335E+007,  0.19000000000E+002,  0.00000000000E+000,  0.10000000000E+001
