"           TIME(S)","              PRES","              TEMP","             SAT_G","             SAT_L"
  0.50000000000E+000,  0.19999999998E+007,  0.19000000000E+002,  0.00000000000E+000,  0.10000000000E+001
  0.25000000000E+001,  0.19999999058E+007,  0.19000000000E+002,  0.00000000000E+000,  0.10000000000E+001
  0.45000000000E+001,  0.19999996369E+007,  0.19000000000E+002,  0.00000000000E+000,  0.10000000000E+001
  0.65000000000E+001,  0.19999991633E+007,  0.19000000000E+002,  0.00000000000E+000,  0.10000000000E+001
  0.85000000000E+001,  0.19999985036E+007,  0.19000000000E+002,  0.00000000000E+000,  0.10000000000E+001
  0.10500000000E+002,  0.19999977052E+007,  0.19000000000E+002,  0.00000000000E+000,  0.10000000000E+001
  0.12500000000E+002,  0.19999968255E+007,  0.19000000000E+002,  0.00000000000E+000,  0.10000000000E+001
  0.14500000000E+002,  0.19999959197E+007,  0.19000000000E+002,  0.00000000000E+000,  0.10000000000E+001
  0.16500000000E+002,  0.19999950351E+007,  0.19000000000E+002,  0.00000000000E+000,  0.10000000000E+001
  0.18500000000E+002,  0.19999942092E+007,  0.19000000000E+002,  0.00000000000E+000,  0.10000000000E+001
  0.20500000000E+002,  0.19999934698E+007,  0.19000000000E+002,  0.00000000000E+000,  0.10000000000E+001
  0.22500000000E+002,  0.19999928361E+007,  0.19000000000E+002,  0.00000000000E+000,  0.10000000000E+001
  0.24500000000E+002,  0.19999923199E+007,  0.19000000000E+002,  0.00000000000E+000,  0.10000000000E+001
  0.26500000000E+002,  0.19999919275E+007,  0.19000000000E+002,  0.00000000000E+000,  0.10000000000E+001
  0.28500000000E+002,  0.19999916605E+007,  0.19000000000E+002,  0.00000000000E+000,  0.10000000000E+001
  0.30500000000E+002,  0.19999915169E+007,  0.19000000000E+002,  0.00000000000E+000,  0.10000000000E+001
  0.32500000000E+002,  0.19999914928E+007,  0.19000000000E+002,  0.00000000000E+000,  0.10000000000E+001
  0.34500000000E+002,  0.19999915821E+007,  0.19000000000E+002,  0.00000000000E+000,  0.10000000000E+001
  0.36500000000E+002,  0.19999917780E+007,  0.19000000000E+002,  0.00000000000E+000,  0.10000000000E+001
  0.38500000000E+002,  0.19999920729E+007,  0.19000000000E+002,  0.00000000000E+000,  0.10000000000E+001
  0.40500000000E+002,  0.19999924593E+007,  0.19000000000E+002,  0.00000000000E+000,  0.10000000000E+001
  0.42500000000E+002,  0.19999929294E+007,  0.19000000000E+002,  0.00000000000E+000,  0.10000000000E+001
  0.44500000000E+002,  0.19999934758E+007,  0.19000000000E+002,  0.00000000000E+000,  0.10000000000E+001
  0.46500000000E+002,  0.19999940912E+007,  0.19000000000E+002,  0.00000000000E+000,  0.10000000000E+001
  0.48500000000E+002,  0.19999947691E+007,  0.19000000000E+002,  0.00000000000E+000,  0.10000000000E+001
  0.50500000000E+002,  0.19999955031E+007,  0.19000000000E+002,  0.00000000000E+000,  0.10000000000E+001
  0.52500000000E+002,  0.19999962874E+007,  0.19000000000E+002,  0.00000000000E+000,  0.10000000000E+001
  0.54500000000E+002,  0.19999971166E+007,  0.19000000000E+002,  0.00000000000E+000,  0.10000000000E+001
  0.56500000000E+002,  0.19999979857E+007,  0.19000000000E+002,  0.00000000000E+000,  0.10000000000E+001
  0.58500000000E+002,  0.19999988903E+007,  0.19000000000E+002,  0.00000000000E+000,  0.10000000000E+001
  0.60500000000E+002,  0.19999998264E+007,  0.19000000000E+002,  0.00000000000E+000,  0.10000000000E+001
  0.62500000000E+002,  0.20000007903E+007,  0.19000000000E+002,  0.00000000000E+000,  0.10000000000E+001
  0.64500000000E+002,  0.20000017788E+007,  0.19000000000E+002,  0.00000000000E+000,  0.10000000000E+001
  0.66500000000E+002,  0.20000027888E+007,  0.19000000000E+002,  0.00000000000E+000,  0.10000000000E+001
  0.68500000000E+002,  0.20000038176E+007,  0.19000000000E+002,  0.00000000000E+000,  0.10000000000E+001
  0.70500000000E+002,  0.20000048629E+007,  0.19000000000E+002,  0.00000000000E+000,  0.10000000000E+001
  0.72500000000E+002,  0.20000059224E+007,  0.19000000000E+002,  0.00000000000E+000,  0.10000000000E+001
  0.74500000000E+002,  0.20000069942E+007,  0.19000000000E+002,  0.00000000000E+000,  0.10000000000E+001
  0.76500000000E+002,  0.20000080764E+007,  0.19000000000E+002,  0.00000000000E+000,  0.10000000000E+001
  0.78500000000E+002,  0.20000091676E+007,  0.19000000000E+002,  0.00000000000E+000,  0.10000000000E+001
  0.80500000000E+002,  0.20000102662E+007,  0.19000000000E+002,  0.00000000000E+000,  0.10000000000E+001
  0.82500000000E+002,  0.20000113710E+007,  0.19000000000E+002,  0.00000000000E+000,  0.10000000000E+001
  0.84500000000E+002,  0.20000124808E+007,  0.19000000000E+002,  0.00000000000E+000,  0.10000000000E+001
  0.86500000000E+002,  0.20000135947E+007,  0.19000000000E+002,  0.00000000000E+000,  0.10000000000E+001
  0.88500000000E+002,  0.20000147116E+007,  0.19000000000E+002,  0.00000000000E+000,  0.10000000000E+001
  0.90500000000E+002,  0.20000158307E+007,  0.19000000000E+002,  0.00000000000E+000,  0.10000000000E+001
  0.92500000000E+002,  0.20000169512E+007,  0.19000000000E+002,  0.00000000000E+000,  0.10000000000E+001
  0.94500000000E+002,  0.20000180726E+007,  0.19000000000E+002,  0.00000000000E+000,  0.10000000000E+001
  0.96500000000E+002,  0.20000191941E+007,  0.19000000000E+002,  0.00000000000E+000,  0.10000000000E+001
  0.98500000000E+002,  0.20000203153E+007,  0.19000000000E+002,  0.00000000000E+000,  0.10000000000E+001
  0.10050000000E+003,  0.20000214357E+007,  0.19000000000E+002,  0.00000000000E+000,  0.10000000000E+001
  0.10250000000E+003,  0.20000225547E+007,  0.19000000000E+002,  0.00000000000E+000,  0.10000000000E+001
  0.10450000000E+003,  0.20000236721E+007,  0.19000000000E+002,  0.00000000000E+000,  0.10000000000E+001
  0.10650000000E+003,  0.20000247874E+007,  0.19000000000E+002,  0.00000000000E+000,  0.10000000000E+001
  0.10850000000E+003,  0.20000259004E+007,  0.19000000000E+002,  0.00000000000E+000,  0.10000000000E+001
  0.11050000000E+003,  0.20000270108E+007,  0.19000000000E+002,  0.00000000000E+000,  0.10000000000E+001
  0.11250000000E+003,  0.20000281183E+007,  0.19000000000E+002,  0.00000000000E+000,  0.10000000000E+001
  0.11450000000E+003,  0.20000292227E+007,  0.19000000000E+002,  0.00000000000E+000,  0.10000000000E+001
  0.11650000000E+003,  0.20000303238E+007,  0.19000000000E+002,  0.00000000000E+000,  0.10000000000E+001
  0.11850000000E+003,  0.20000314214E+007,  0.19000000000E+002,  0.00000000000E+000,  0.10000000000E+001
  0.12050000000E+003,  0.20000325154E+007,  0.19000000000E+002,  0.00000000000E+000,  0.10000000000E+001
  0.12250000000E+003,  0.20000336056E+007,  0.19000000000E+002,  0.00000000000E+000,  0.10000000000E+001
  0.12450000000E+003,  0.20000346920E+007,  0.19000000000E+002,  0.00000000000E+000,  0.10000000000E+001
  0.12650000000E+003,  0.20000357743E+007,  0.19000000000E+002,  0.00000000000E+000,  0.10000000000E+001
  0.12850000000E+003,  0.20000368526E+007,  0.19000000000E+002,  0.00000000000E+000,  0.10000000000E+001
  0.13050000000E+003,  0.20000379267E+007,  0.19000000000E+002,  0.00000000000E+000,  0.10000000000E+001
  0.13250000000E+003,  0.20000389966E+007,  0.19000000000E+002,  0.00000000000E+000,  0.10000000000E+001
  0.13450000000E+003,  0.20000400622E+007,  0.19000000000E+002,  0.00000000000E+000,  0.10000000000E+001
  0.13650000000E+003,  0.20000411235E+007,  0.19000000000E+002,  0.00000000000E+000,  0.10000000000E+001
  0.13850000000E+003,  0.20000421805E+007,  0.19000000000E+002,  0.00000000000E+000,  0.10000000000E+001
  0.14050000000E+003,  0.20000432330E+007,  0.19000000000E+002,  0.00000000000E+000,  0.10000000000E+001
  0.14250000000E+003,  0.20000442812E+007,  0.19000000000E+002,  0.00000000000E+000,  0.10000000000E+001
  0.14450000000E+003,  0.20000453249E+007,  0.19000000000E+002,  0.00000000000E+000,  0.10000000000E+001
  0.14650000000E+003,  0.20000463642E+007,  0.19000000000E+002,  0.00000000000E+000,  0.10000000000E+001
  0.14850000000E+003,  0.20000473990E+007,  0.19000000000E+002,  0.00000000000E+000,  0.10000000000E+001
  0.15050000000E+003,  0.20000484294E+007,  0.19000000000E+002,  0.00000000000E+000,  0.10000000000E+001
  0.15250000000E+003,  0.20000494554E+007,  0.19000000000E+002,  0.00000000000E+000,  0.10000000000E+001
  0.15450000000E+003,  0.20000504770E+007,  0.19000000000E+002,  0.00000000000E+000,  0.10000000000E+001
  0.15650000000E+003,  0.20000514941E+007,  0.19000000000E+002,  0.00000000000E+000,  0.10000000000E+001
  0.15850000000E+003,  0.20000525069E+007,  0.19000000000E+002,  0.00000000000E+000,  0.10000000000E+001
  0.16050000000E+003,  0.20000535153E+007,  0.19000000000E+002,  0.00000000000E+000,  0.10000000000E+001
  0.16250000000E+003,  0.20000545193E+007,  0.19000000000E+002,  0.00000000000E+000,  0.10000000000E+001
  0.16450000000E+003,  0.20000555190E+007,  0.19000000000E+002,  0.00000000000E+000,  0.10000000000E+001
  0.16650000000E+003,  0.20000565144E+007,  0.19000000000E+002,  0.00000000000E+000,  0.10000000000E+001
  0.16850000000E+003,  0.20000575055E+007,  0.19000000000E+002,  0.00000000000E+000,  0.10000000000E+001
  0.17050000000E+003,  0.20000584924E+007,  0.19000000000E+002,  0.00000000000E+000,  0.10000000000E+001
  0.17250000000E+003,  0.20000594751E+007,  0.19000000000E+002,  0.00000000000E+000,  0.10000000000E+001
  0.17450000000E+003,  0.20000604536E+007,  0.19000000000E+002,  0.00000000000E+000,  0.10000000000E+001
  0.17650000000E+003,  0.20000614280E+007,  0.19000000000E+002,  0.00000000000E+000,  0.10000000000E+001
  0.17850000000E+003,  0.20000623982E+007,  0.19000000000E+002,  0.00000000000E+000,  0.10000000000E+001
  0.18050000000E+003,  0.20000633644E+007,  0.19000000000E+002,  0.00000000000E+000,  0.10000000000E+001
  0.18250000000E+003,  0.20000643266E+007,  0.19000000000E+002,  0.00000000000E+000,  0.10000000000E+001
  0.18450000000E+003,  0.20000652848E+007,  0.19000000000E+002,  0.00000000000E+000,  0.10000000000E+001
  0.18650000000E+003,  0.20000662390E+007,  0.19000000000E+002,  0.00000000000E+000,  0.10000000000E+001
  0.18850000000E+003,  0.20000671893E+007,  0.19000000000E+002,  0.00000000000E+000,  0.10000000000E+001
  0.19050000000E+003,  0.20000681358E+007,  0.19000000000E+002,  0.00000000000E+000,  0.10000000000E+001
  0.19250000000E+003,  0.20000690784E+007,  0.19000000000E+002,  0.00000000000E+000,  0.10000000000E+001
  0.19450000000E+003,  0.20000700172E+007,  0.19000000000E+002,  0.00000000000E+000,  0.10000000000E+001
  0.19650000000E+003,  0.20000709523E+007,  0.19000000000E+002,  0.00000000000E+000,  0.10000000000E+001
  0.19850000000E+003,  0.20000718837E+007,  0.19000000000E+002,  0.00000000000E+000,  0.10000000000E+001
  0.20050000000E+003,  0.20000728114E+007,  0.19000000000E+002,  0.00000000000E+000,  0.10000000000E+001
  0.20250000000E+003,  0.20000737355E+007,  0.19000000000E+002,  0.00000000000E+000,  0.10000000000E+001
  0.20450000000E+003,  0.20000746559E+007,  0.19000000000E+002,  0.00000000000E+000,  0.10000000000E+001
  0.20650000000E+003,  0.20000755729E+007,  0.19000000000E+002,  0.00000000000E+000,  0.10000000000E+001
  0.20850000000E+003,  0.20000764863E+007,  0.19000000000E+002,  0.00000000000E+000,  0.10000000000E+001
  0.21050000000E+003,  0.20000773963E+007,  0.19000000000E+002,  0.00000000000E+000,  0.10000000000E+001
  0.21250000000E+003,  0.20000783029E+007,  0.19000000000E+002,  0.00000000000E+000,  0.10000000000E+001
  0.21450000000E+003,  0.20000792060E+007,  0.19000000000E+002,  0.00000000000E+000,  0.10000000000E+001
  0.21650000000E+003,  0.20000801058E+007,  0.19000000000E+002,  0.00000000000E+000,  0.10000000000E+001
  0.21850000000E+003,  0.20000810024E+007,  0.19000000000E+002,  0.00000000000E+000,  0.10000000000E+001
  0.22050000000E+003,  0.20000818956E+007,  0.19000000000E+002,  0.00000000000E+000,  0.10000000000E+001
  0.22250000000E+003,  0.20000827857E+007,  0.19000000000E+002,  0.00000000000E+000,  0.10000000000E+001
  0.22450000000E+003,  0.20000836725E+007,  0.19000000000E+002,  0.00000000000E+000,  0.10000000000E+001
  0.22650000000E+003,  0.20000845562E+007,  0.19000000000E+002,  0.00000000000E+000,  0.10000000000E+001
  0.22850000000E+003,  0.20000854368E+007,  0.19000000000E+002,  0.00000000000E+000,  0.10000000000E+001
  0.23050000000E+003,  0.20000863143E+007,  0.19000000000E+002,  0.00000000000E+000,  0.10000000000E+001
  0.23250000000E+003,  0.20000871888E+007,  0.19000000000E+002,  0.00000000000E+000,  0.10000000000E+001
  0.23450000000E+003,  0.20000880602E+007,  0.19000000000E+002,  0.00000000000E+000,  0.10000000000E+001
  0.23650000000E+003,  0.20000889288E+007,  0.19000000000E+002,  0.00000000000E+000,  0.10000000000E+001
  0.23850000000E+003,  0.20000897943E+007,  0.19000000000E+002,  0.00000000000E+000,  0.10000000000E+001
  0.24050000000E+003,  0.20000906570E+007,  0.19000000000E+002,  0.00000000000E+000,  0.10000000000E+001
  0.24250000000E+003,  0.20000915169E+007,  0.19000000000E+002,  0.00000000000E+000,  0.10000000000E+001
  0.24450000000E+003,  0.20000923739E+007,  0.19000000000E+002,  0.00000000000E+000,  0.10000000000E+001
  0.24650000000E+003,  0.20000932281E+007,  0.19000000000E+002,  0.00000000000E+000,  0.10000000000E+001
  0.24850000000E+003,  0.20000940795E+007,  0.19000000000E+002,  0.00000000000E+000,  0.10000000000E+001
  0.25050000000E+003,  0.20000949283E+007,  0.19000000000E+002,  0.00000000000E+000,  0.10000000000E+001
  0.25250000000E+003,  0.20000957743E+007,  0.19000000000E+002,  0.00000000000E+000,  0.10000000000E+001
  0.25450000000E+003,  0.20000966177E+007,  0.19000000000E+002,  0.00000000000E+000,  0.10000000000E+001
  0.25650000000E+003,  0.20000974584E+007,  0.19000000000E+002,  0.00000000000E+000,  0.10000000000E+001
  0.25850000000E+003,  0.20000982966E+007,  0.19000000000E+002,  0.00000000000E+000,  0.10000000000E+001
  0.26050000000E+003,  0.20000991322E+007,  0.19000000000E+002,  0.00000000000E+000,  0.10000000000E+001
  0.26250000000E+003,  0.20000999652E+007,  0.19000000000E+002,  0.00000000000E+000,  0.10000000000E+001
  0.26450000000E+003,  0.20001007957E+007,  0.19000000000E+002,  0.00000000000E+000,  0.10000000000E+001
  0.26650000000E+003,  0.20001016238E+007,  0.19000000000E+002,  0.00000000000E+000,  0.10000000000E+001
  0.26850000000E+003,  0.20001024494E+007,  0.19000000000E+002,  0.00000000000E+000,  0.10000000000E+001
  0.27050000000E+003,  0.20001032726E+007,  0.19000000000E+002,  0.00000000000E+000,  0.10000000000E+001
  0.27250000000E+003,  0.20001040934E+007,  0.19000000000E+002,  0.00000000000E+000,  0.10000000000E+001
  0.27450000000E+003,  0.20001049118E+007,  0.19000000000E+002,  0.00000000000E+000,  0.10000000000E+001
  0.27650000000E+003,  0.20001057279E+007,  0.19000000000E+002,  0.00000000000E+000,  0.10000000000E+001
  0.27850000000E+003,  0.20001065416E+007,  0.19000000000E+002,  0.00000000000E+000,  0.10000000000E+001
  0.28050000000E+003,  0.20001073531E+007,  0.19000000000E+002,  0.00000000000E+000,  0.10000000000E+001
  0.28250000000E+003,  0.20001081623E+007,  0.19000000000E+002,  0.00000000000E+000,  0.10000000000E+001
  0.28450000000E+003,  0.20001089693E+007,  0.19000000000E+002,  0.00000000000E+000,  0.10000000000E+001
  0.28650000000E+003,  0.20001097740E+007,  0.19000000000E+002,  0.00000000000E+000,  0.10000000000E+001
  0.28850000000E+003,  0.20001105766E+007,  0.19000000000E+002,  0.00000000000E+000,  0.10000000000E+001
  0.29050000000E+003,  0.20001113770E+007,  0.19000000000E+002,  0.00000000000E+000,  0.10000000000E+001
  0.29250000000E+003,  0.20001121753E+007,  0.19000000000E+002,  0.00000000000E+000,  0.10000000000E+001
  0.29450000000E+003,  0.20001129714E+007,  0.19000000000E+002,  0.00000000000E+000,  0.10000000000E+001
  0.29650000000E+003,  0.20001137655E+007,  0.19000000000E+002,  0.00000000000E+000,  0.10000000000E+001
  0.29850000000E+003,  0.20001145574E+007,  0.19000000000E+002,  0.00000000000E+000,  0.10000000000E+001
  0.30050000000E+003,  0.20001153473E+007,  0.19000000000E+002,  0.00000000000E+000,  0.10000000000E+001
  0.30250000000E+003,  0.20001161352E+007,  0.19000000000E+002,  0.00000000000E+000,  0.10000000000E+001
  0.30450000000E+003,  0.20001169211E+007,  0.19000000000E+002,  0.00000000000E+000,  0.10000000000E+001
  0.30650000000E+003,  0.20001177050E+007,  0.19000000000E+002,  0.00000000000E+000,  0.10000000000E+001
  0.30850000000E+003,  0.20001184869E+007,  0.19000000000E+002,  0.00000000000E+000,  0.10000000000E+001
  0.31050000000E+003,  0.20001192668E+007,  0.19000000000E+002,  0.00000000000E+000,  0.10000000000E+001
  0.31250000000E+003,  0.20001200448E+007,  0.19000000000E+002,  0.00000000000E+000,  0.10000000000E+001
  0.31450000000E+003,  0.20001208209E+007,  0.19000000000E+002,  0.00000000000E+000,  0.10000000000E+001
  0.31650000000E+003,  0.20001215951E+007,  0.19000000000E+002,  0.00000000000E+000,  0.10000000000E+001
  0.31850000000E+003,  0.20001223675E+007,  0.19000000000E+002,  0.00000000000E+000,  0.10000000000E+001
  0.32050000000E+003,  0.20001231380E+007,  0.19000000000E+002,  0.00000000000E+000,  0.10000000000E+001
  0.32250000000E+003,  0.20001239066E+007,  0.19000000000E+002,  0.00000000000E+000,  0.10000000000E+001
  0.32450000000E+003,  0.20001246734E+007,  0.19000000000E+002,  0.00000000000E+000,  0.10000000000E+001
  0.32650000000E+003,  0.20001254384E+007,  0.19000000000E+002,  0.00000000000E+000,  0.10000000000E+001
  0.32850000000E+003,  0.20001262016E+007,  0.19000000000E+002,  0.00000000000E+000,  0.10000000000E+001
  0.33050000000E+003,  0.20001269631E+007,  0.19000000000E+002,  0.00000000000E+000,  0.10000000000E+001
  0.33250000000E+003,  0.20001277228E+007,  0.19000000000E+002,  0.00000000000E+000,  0.10000000000E+001
  0.33450000000E+003,  0.20001284807E+007,  0.19000000000E+002,  0.00000000000E+000,  0.10000000000E+001
  0.33650000000E+003,  0.20001292369E+007,  0.19000000000E+002,  0.00000000000E+000,  0.10000000000E+001
  0.33850000000E+003,  0.20001299915E+007,  0.19000000000E+002,  0.00000000000E+000,  0.10000000000E+001
  0.34050000000E+003,  0.20001307443E+007,  0.19000000000E+002,  0.00000000000E+000,  0.10000000000E+001
  0.34250000000E+003,  0.20001314954E+007,  0.19000000000E+002,  0.00000000000E+000,  0.10000000000E+001
  0.34450000000E+003,  0.20001322449E+007,  0.19000000000E+002,  0.00000000000E+000,  0.10000000000E+001
  0.34650000000E+003,  0.20001329927E+007,  0.19000000000E+002,  0.00000000000E+000,  0.10000000000E+001
  0.34850000000E+003,  0.20001337389E+007,  0.19000000000E+002,  0.00000000000E+000,  0.10000000000E+001
  0.35050000000E+003,  0.20001344835E+007,  0.19000000000E+002,  0.00000000000E+000,  0.10000000000E+001
  0.35250000000E+003,  0.20001352264E+007,  0.19000000000E+002,  0.00000000000E+000,  0.10000000000E+001
  0.35450000000E+003,  0.20001359678E+007,  0.19000000000E+002,  0.00000000000E+000,  0.10000000000E+001
  0.35650000000E+003,  0.20001367075E+007,  0.19000000000E+002,  0.00000000000E+000,  0.10000000000E+001
  0.35850000000E+003,  0.20001374457E+007,  0.19000000000E+002,  0.00000000000E+000,  0.10000000000E+001
  0.36050000000E+003,  0.20001381823E+007,  0.19000000000E+002,  0.00000000000E+000,  0.10000000000E+001
  0.36250000000E+003,  0.20001389174E+007,  0.19000000000E+002,  0.00000000000E+000,  0.10000000000E+001
  0.36450000000E+003,  0.20001396510E+007,  0.19000000000E+002,  0.00000000000E+000,  0.10000000000E+001
  0.36650000000E+003,  0.20001403830E+007,  0.19000000000E+002,  0.00000000000E+000,  0.10000000000E+001
  0.36850000000E+003,  0.20001411135E+007,  0.19000000000E+002,  0.00000000000E+000,  0.10000000000E+001
  0.37050000000E+003,  0.20001418425E+007,  0.19000000000E+002,  0.00000000000E+000,  0.10000000000E+001
  0.37250000000E+003,  0.20001425700E+007,  0.19000000000E+002,  0.00000000000E+000,  0.10000000000E+001
  0.37450000000E+003,  0.20001432961E+007,  0.19000000000E+002,  0.00000000000E+000,  0.10000000000E+001
  0.37650000000E+003,  0.20001440206E+007,  0.19000000000E+002,  0.00000000000E+000,  0.10000000000E+001
