"           TIME(S)","              PRES","              TEMP","             SAT_G","             SAT_L"
  0.18228740000E+008,  0.20007249297E+007,  0.19000000000E+002,  0.10000000000E+001,  0.00000000000E+000
  0.18228890000E+008,  0.20020238903E+007,  0.19000000000E+002,  0.10000000000E+001,  0.00000000000E+000
  0.18229040000E+008,  0.20028840216E+007,  0.19000000000E+002,  0.10000000000E+001,  0.00000000000E+000
  0.18229190000E+008,  0.20034968269E+007,  0.19000000000E+002,  0.10000000000E+001,  0.00000000000E+000
  0.18229340000E+008,  0.20040028127E+007,  0.19000000000E+002,  0.10000000000E+001,  0.00000000000E+000
  0.18229415000E+008,  0.20045798443E+007,  0.19000000000E+002,  0.10000000000E+001,  0.00000000000E+000
  0.18229452501E+008,  0.20049536862E+007,  0.19000000000E+002,  0.10000000000E+001,  0.00000000000E+000
  0.18229471251E+008,  0.20051794268E+007,  0.19000000000E+002,  0.10000000000E+001,  0.00000000000E+000
  0.18229480626E+008,  0.20052985393E+007,  0.19000000000E+002,  0.10000000000E+001,  0.00000000000E+000
  0.18229485314E+008,  0.20053597286E+007,  0.19000000000E+002,  0.10000000000E+001,  0.00000000000E+000
  0.18229487658E+008,  0.20053905010E+007,  0.19000000000E+002,  0.10000000000E+001,  0.00000000000E+000
  0.18229488829E+008,  0.20054060307E+007,  0.19000000000E+002,  0.10000000000E+001,  0.00000000000E+000
  0.18229494689E+008,  0.20054830637E+007,  0.19000000000E+002,  0.10000000000E+001,  0.00000000000E+000
  0.18229523987E+008,  0.20058560085E+007,  0.19000000000E+002,  0.10000000000E+001,  0.00000000000E+000
  0.18229670477E+008,  0.20074657210E+007,  0.19000000000E+002,  0.10000000000E+001,  0.00000000000E+000
  0.18229743722E+008,  0.20086420487E+007,  0.19000000000E+002,  0.10000000000E+001,  0.00000000000E+000
  0.18229893722E+008,  0.20111311819E+007,  0.19000000000E+002,  0.10000000000E+001,  0.00000000000E+000
  0.18230043722E+008,  0.20136159350E+007,  0.19000000000E+002,  0.10000000000E+001,  0.00000000000E+000
  0.18230193722E+008,  0.20160954863E+007,  0.19000000000E+002,  0.10000000000E+001,  0.00000000000E+000
  0.18230343722E+008,  0.20185700212E+007,  0.19000000000E+002,  0.10000000000E+001,  0.00000000000E+000
  0.18230493722E+008,  0.20210396905E+007,  0.19000000000E+002,  0.10000000000E+001,  0.00000000000E+000
  0.18230643722E+008,  0.20235046121E+007,  0.19000000000E+002,  0.10000000000E+001,  0.00000000000E+000
  0.18230793722E+008,  0.20259648791E+007,  0.19000000000E+002,  0.10000000000E+001,  0.00000000000E+000
  0.18230943722E+008,  0.20284205647E+007,  0.19000000000E+002,  0.10000000000E+001,  0.00000000000E+000
  0.18231093722E+008,  0.20308717264E+007,  0.19000000000E+002,  0.10000000000E+001,  0.00000000000E+000
  0.18231243722E+008,  0.20333184085E+007,  0.19000000000E+002,  0.10000000000E+001,  0.00000000000E+000
  0.18231393722E+008,  0.20357606451E+007,  0.19000000000E+002,  0.10000000000E+001,  0.00000000000E+000
  0.18231543722E+008,  0.20381984619E+007,  0.19000000000E+002,  0.10000000000E+001,  0.00000000000E+000
  0.18231693722E+008,  0.20406318775E+007,  0.19000000000E+002,  0.10000000000E+001,  0.00000000000E+000
  0.18231843722E+008,  0.20430609056E+007,  0.19000000000E+002,  0.10000000000E+001,  0.00000000000E+000
  0.18231993722E+008,  0.20454855551E+007,  0.19000000000E+002,  0.10000000000E+001,  0.00000000000E+000
  0.18232143722E+008,  0.20479058319E+007,  0.19000000000E+002,  0.10000000000E+001,  0.00000000000E+000
  0.18232293722E+008,  0.20503217388E+007,  0.19000000000E+002,  0.10000000000E+001,  0.00000000000E+000
  0.18232443722E+008,  0.20527332767E+007,  0.19000000000E+002,  0.10000000000E+001,  0.00000000000E+000
  0.18232593722E+008,  0.20551404447E+007,  0.19000000000E+002,  0.10000000000E+001,  0.00000000000E+000
  0.18232743722E+008,  0.20575432405E+007,  0.19000000000E+002,  0.10000000000E+001,  0.00000000000E+000
  0.18232893722E+008,  0.20599416610E+007,  0.19000000000E+002,  0.10000000000E+001,  0.00000000000E+000
  0.18233043722E+008,  0.20623357021E+007,  0.19000000000E+002,  0.10000000000E+001,  0.00000000000E+000
  0.18233193722E+008,  0.20647253591E+007,  0.19000000000E+002,  0.10000000000E+001,  0.00000000000E+000
  0.18233343722E+008,  0.20671106269E+007,  0.19000000000E+002,  0.10000000000E+001,  0.00000000000E+000
  0.18233493722E+008,  0.20694915000E+007,  0.19000000000E+002,  0.10000000000E+001,  0.00000000000E+000
  0.18233643722E+008,  0.20718679727E+007,  0.19000000000E+002,  0.10000000000E+001,  0.00000000000E+000
  0.18233793722E+008,  0.20742400390E+007,  0.19000000000E+002,  0.10000000000E+001,  0.00000000000E+000
  0.18233943722E+008,  0.20766076930E+007,  0.19000000000E+002,  0.10000000000E+001,  0.00000000000E+000
  0.18234093722E+008,  0.20789709285E+007,  0.19000000000E+002,  0.10000000000E+001,  0.00000000000E+000
  0.18234243722E+008,  0.20813297395E+007,  0.19000000000E+002,  0.10000000000E+001,  0.00000000000E+000
  0.18234393722E+008,  0.20836841197E+007,  0.19000000000E+002,  0.10000000000E+001,  0.00000000000E+000
  0.18234543722E+008,  0.20860340631E+007,  0.19000000000E+002,  0.10000000000E+001,  0.00000000000E+000
  0.18234693722E+008,  0.20883795635E+007,  0.19000000000E+002,  0.10000000000E+001,  0.00000000000E+000
  0.18234843722E+008,  0.20907206151E+007,  0.19000000000E+002,  0.10000000000E+001,  0.00000000000E+000
  0.18234993722E+008,  0.20930572118E+007,  0.19000000000E+002,  0.10000000000E+001,  0.00000000000E+000
  0.18235143722E+008,  0.20953893477E+007,  0.19000000000E+002,  0.10000000000E+001,  0.00000000000E+000
  0.18235293722E+008,  0.20977170171E+007,  0.19000000000E+002,  0.10000000000E+001,  0.00000000000E+000
  0.18235443722E+008,  0.21000402142E+007,  0.19000000000E+002,  0.10000000000E+001,  0.00000000000E+000
  0.18235593722E+008,  0.21023589335E+007,  0.19000000000E+002,  0.10000000000E+001,  0.00000000000E+000
  0.18235743722E+008,  0.21046731694E+007,  0.19000000000E+002,  0.10000000000E+001,  0.00000000000E+000
  0.18235893722E+008,  0.21069829166E+007,  0.19000000000E+002,  0.10000000000E+001,  0.00000000000E+000
  0.18236043722E+008,  0.21092881696E+007,  0.19000000000E+002,  0.10000000000E+001,  0.00000000000E+000
  0.18236193722E+008,  0.21115889234E+007,  0.19000000000E+002,  0.10000000000E+001,  0.00000000000E+000
  0.18236343722E+008,  0.21138851727E+007,  0.19000000000E+002,  0.10000000000E+001,  0.00000000000E+000
  0.18236493722E+008,  0.21161769126E+007,  0.19000000000E+002,  0.10000000000E+001,  0.00000000000E+000
  0.18236643722E+008,  0.21184641381E+007,  0.19000000000E+002,  0.10000000000E+001,  0.00000000000E+000
  0.18236793722E+008,  0.21207468446E+007,  0.19000000000E+002,  0.10000000000E+001,  0.00000000000E+000
  0.18236943722E+008,  0.21230250272E+007,  0.19000000000E+002,  0.10000000000E+001,  0.00000000000E+000
  0.18237093722E+008,  0.21252986814E+007,  0.19000000000E+002,  0.10000000000E+001,  0.00000000000E+000
  0.18237243722E+008,  0.21275678027E+007,  0.19000000000E+002,  0.10000000000E+001,  0.00000000000E+000
  0.18237393722E+008,  0.21298323868E+007,  0.19000000000E+002,  0.10000000000E+001,  0.00000000000E+000
  0.18237543722E+008,  0.21320924293E+007,  0.19000000000E+002,  0.10000000000E+001,  0.00000000000E+000
  0.18237693722E+008,  0.21343479262E+007,  0.19000000000E+002,  0.10000000000E+001,  0.00000000000E+000
  0.18237843722E+008,  0.21365988732E+007,  0.19000000000E+002,  0.10000000000E+001,  0.00000000000E+000
  0.18237993722E+008,  0.21388452665E+007,  0.19000000000E+002,  0.10000000000E+001,  0.00000000000E+000
  0.18238143722E+008,  0.21410871022E+007,  0.19000000000E+002,  0.10000000000E+001,  0.00000000000E+000
  0.18238293722E+008,  0.21433243766E+007,  0.19000000000E+002,  0.10000000000E+001,  0.00000000000E+000
  0.18238443722E+008,  0.21455570860E+007,  0.19000000000E+002,  0.10000000000E+001,  0.00000000000E+000
  0.18238593722E+008,  0.21477852268E+007,  0.19000000000E+002,  0.10000000000E+001,  0.00000000000E+000
  0.18238743722E+008,  0.21500087956E+007,  0.19000000000E+002,  0.10000000000E+001,  0.00000000000E+000
  0.18238893722E+008,  0.21522277890E+007,  0.19000000000E+002,  0.10000000000E+001,  0.00000000000E+000
  0.18239043722E+008,  0.21544422038E+007,  0.19000000000E+002,  0.10000000000E+001,  0.00000000000E+000
  0.18239193722E+008,  0.21566520368E+007,  0.19000000000E+002,  0.10000000000E+001,  0.00000000000E+000
  0.18239343722E+008,  0.21588572851E+007,  0.19000000000E+002,  0.10000000000E+001,  0.00000000000E+000
  0.18239493722E+008,  0.21610579455E+007,  0.19000000000E+002,  0.10000000000E+001,  0.00000000000E+000
  0.18239643722E+008,  0.21632540154E+007,  0.19000000000E+002,  0.10000000000E+001,  0.00000000000E+000
  0.18239793722E+008,  0.21654454918E+007,  0.19000000000E+002,  0.10000000000E+001,  0.00000000000E+000
  0.18239943722E+008,  0.21676323723E+007,  0.19000000000E+002,  0.10000000000E+001,  0.00000000000E+000
  0.18240093722E+008,  0.21698146541E+007,  0.19000000000E+002,  0.10000000000E+001,  0.00000000000E+000
  0.18240243722E+008,  0.21719923349E+007,  0.19000000000E+002,  0.10000000000E+001,  0.00000000000E+000
  0.18240393722E+008,  0.21741654123E+007,  0.19000000000E+002,  0.10000000000E+001,  0.00000000000E+000
  0.18240543722E+008,  0.21763338840E+007,  0.19000000000E+002,  0.10000000000E+001,  0.00000000000E+000
  0.18240693722E+008,  0.21784977478E+007,  0.19000000000E+002,  0.10000000000E+001,  0.00000000000E+000
  0.18240843722E+008,  0.21806570017E+007,  0.19000000000E+002,  0.10000000000E+001,  0.00000000000E+000
  0.18240993722E+008,  0.21828116436E+007,  0.19000000000E+002,  0.10000000000E+001,  0.00000000000E+000
  0.18241143722E+008,  0.21849616718E+007,  0.19000000000E+002,  0.10000000000E+001,  0.00000000000E+000
  0.18241293722E+008,  0.21871070843E+007,  0.19000000000E+002,  0.10000000000E+001,  0.00000000000E+000
  0.18241443722E+008,  0.21892478795E+007,  0.19000000000E+002,  0.10000000000E+001,  0.00000000000E+000
  0.18241593722E+008,  0.21913840558E+007,  0.19000000000E+002,  0.10000000000E+001,  0.00000000000E+000
  0.18241743722E+008,  0.21935156116E+007,  0.19000000000E+002,  0.10000000000E+001,  0.00000000000E+000
  0.18241893722E+008,  0.21956425455E+007,  0.19000000000E+002,  0.10000000000E+001,  0.00000000000E+000
  0.18242043722E+008,  0.21977648563E+007,  0.19000000000E+002,  0.10000000000E+001,  0.00000000000E+000
  0.18242193722E+008,  0.21998825426E+007,  0.19000000000E+002,  0.10000000000E+001,  0.00000000000E+000
  0.18242343722E+008,  0.22019956033E+007,  0.19000000000E+002,  0.10000000000E+001,  0.00000000000E+000
  0.18242493722E+008,  0.22041040373E+007,  0.19000000000E+002,  0.10000000000E+001,  0.00000000000E+000
  0.18242643722E+008,  0.22062078437E+007,  0.19000000000E+002,  0.10000000000E+001,  0.00000000000E+000
  0.18242793722E+008,  0.22083070216E+007,  0.19000000000E+002,  0.10000000000E+001,  0.00000000000E+000
  0.18242943722E+008,  0.22104015702E+007,  0.19000000000E+002,  0.10000000000E+001,  0.00000000000E+000
  0.18243093722E+008,  0.22124914888E+007,  0.19000000000E+002,  0.10000000000E+001,  0.00000000000E+000
  0.18243243722E+008,  0.22145767767E+007,  0.19000000000E+002,  0.10000000000E+001,  0.00000000000E+000
  0.18243393722E+008,  0.22166574335E+007,  0.19000000000E+002,  0.10000000000E+001,  0.00000000000E+000
  0.18243543722E+008,  0.22187334586E+007,  0.19000000000E+002,  0.10000000000E+001,  0.00000000000E+000
  0.18243693722E+008,  0.22208048518E+007,  0.19000000000E+002,  0.10000000000E+001,  0.00000000000E+000
  0.18243843722E+008,  0.22228716128E+007,  0.19000000000E+002,  0.10000000000E+001,  0.00000000000E+000
  0.18243993722E+008,  0.22249337414E+007,  0.19000000000E+002,  0.10000000000E+001,  0.00000000000E+000
  0.18244143722E+008,  0.22269912374E+007,  0.19000000000E+002,  0.10000000000E+001,  0.00000000000E+000
  0.18244293722E+008,  0.22290441009E+007,  0.19000000000E+002,  0.10000000000E+001,  0.00000000000E+000
  0.18244443722E+008,  0.22310923319E+007,  0.19000000000E+002,  0.10000000000E+001,  0.00000000000E+000
  0.18244593722E+008,  0.22331359306E+007,  0.19000000000E+002,  0.10000000000E+001,  0.00000000000E+000
  0.18244743722E+008,  0.22351748973E+007,  0.19000000000E+002,  0.10000000000E+001,  0.00000000000E+000
  0.18244893722E+008,  0.22372092322E+007,  0.19000000000E+002,  0.10000000000E+001,  0.00000000000E+000
  0.18245043722E+008,  0.22392389357E+007,  0.19000000000E+002,  0.10000000000E+001,  0.00000000000E+000
  0.18245193722E+008,  0.22412640084E+007,  0.19000000000E+002,  0.10000000000E+001,  0.00000000000E+000
  0.18245343722E+008,  0.22432844508E+007,  0.19000000000E+002,  0.10000000000E+001,  0.00000000000E+000
  0.18245493722E+008,  0.22453002635E+007,  0.19000000000E+002,  0.10000000000E+001,  0.00000000000E+000
  0.18245643722E+008,  0.22473114473E+007,  0.19000000000E+002,  0.10000000000E+001,  0.00000000000E+000
  0.18245793722E+008,  0.22493180029E+007,  0.19000000000E+002,  0.10000000000E+001,  0.00000000000E+000
  0.18245943722E+008,  0.22513199314E+007,  0.19000000000E+002,  0.10000000000E+001,  0.00000000000E+000
  0.18246093722E+008,  0.22533172336E+007,  0.19000000000E+002,  0.10000000000E+001,  0.00000000000E+000
  0.18246243722E+008,  0.22553099105E+007,  0.19000000000E+002,  0.10000000000E+001,  0.00000000000E+000
  0.18246393722E+008,  0.22572979634E+007,  0.19000000000E+002,  0.10000000000E+001,  0.00000000000E+000
  0.18246543722E+008,  0.22592813933E+007,  0.19000000000E+002,  0.10000000000E+001,  0.00000000000E+000
  0.18246693722E+008,  0.22612602017E+007,  0.19000000000E+002,  0.10000000000E+001,  0.00000000000E+000
  0.18246843722E+008,  0.22632343898E+007,  0.19000000000E+002,  0.10000000000E+001,  0.00000000000E+000
  0.18246993722E+008,  0.22652039590E+007,  0.19000000000E+002,  0.10000000000E+001,  0.00000000000E+000
  0.18247143722E+008,  0.22671689110E+007,  0.19000000000E+002,  0.10000000000E+001,  0.00000000000E+000
  0.18247293722E+008,  0.22691292472E+007,  0.19000000000E+002,  0.10000000000E+001,  0.00000000000E+000
  0.18247443722E+008,  0.22710849693E+007,  0.19000000000E+002,  0.10000000000E+001,  0.00000000000E+000
  0.18247593722E+008,  0.22730360790E+007,  0.19000000000E+002,  0.10000000000E+001,  0.00000000000E+000
  0.18247743722E+008,  0.22749825783E+007,  0.19000000000E+002,  0.10000000000E+001,  0.00000000000E+000
  0.18247893722E+008,  0.22769244688E+007,  0.19000000000E+002,  0.10000000000E+001,  0.00000000000E+000
  0.18248043722E+008,  0.22788617527E+007,  0.19000000000E+002,  0.10000000000E+001,  0.00000000000E+000
  0.18248193722E+008,  0.22807944319E+007,  0.19000000000E+002,  0.10000000000E+001,  0.00000000000E+000
  0.18248343722E+008,  0.22827225085E+007,  0.19000000000E+002,  0.10000000000E+001,  0.00000000000E+000
  0.18248493722E+008,  0.22846459846E+007,  0.19000000000E+002,  0.10000000000E+001,  0.00000000000E+000
  0.18248643722E+008,  0.22865648626E+007,  0.19000000000E+002,  0.10000000000E+001,  0.00000000000E+000
  0.18248793722E+008,  0.22884791448E+007,  0.19000000000E+002,  0.10000000000E+001,  0.00000000000E+000
  0.18248943722E+008,  0.22903888335E+007,  0.19000000000E+002,  0.10000000000E+001,  0.00000000000E+000
  0.18249093722E+008,  0.22922939311E+007,  0.19000000000E+002,  0.10000000000E+001,  0.00000000000E+000
  0.18249243722E+008,  0.22941944402E+007,  0.19000000000E+002,  0.10000000000E+001,  0.00000000000E+000
  0.18249393722E+008,  0.22960903635E+007,  0.19000000000E+002,  0.10000000000E+001,  0.00000000000E+000
  0.18249543722E+008,  0.22979817034E+007,  0.19000000000E+002,  0.10000000000E+001,  0.00000000000E+000
  0.18249693722E+008,  0.22998684629E+007,  0.19000000000E+002,  0.10000000000E+001,  0.00000000000E+000
  0.18249843722E+008,  0.23017506446E+007,  0.19000000000E+002,  0.10000000000E+001,  0.00000000000E+000
  0.18249993722E+008,  0.23036282514E+007,  0.19000000000E+002,  0.10000000000E+001,  0.00000000000E+000
  0.18250143722E+008,  0.23055012863E+007,  0.19000000000E+002,  0.10000000000E+001,  0.00000000000E+000
  0.18250293722E+008,  0.23073697522E+007,  0.19000000000E+002,  0.10000000000E+001,  0.00000000000E+000
  0.18250443722E+008,  0.23092336522E+007,  0.19000000000E+002,  0.10000000000E+001,  0.00000000000E+000
  0.18250593722E+008,  0.23110929895E+007,  0.19000000000E+002,  0.10000000000E+001,  0.00000000000E+000
  0.18250743722E+008,  0.23129477672E+007,  0.19000000000E+002,  0.10000000000E+001,  0.00000000000E+000
  0.18250893722E+008,  0.23147979885E+007,  0.19000000000E+002,  0.10000000000E+001,  0.00000000000E+000
  0.18251043722E+008,  0.23166436569E+007,  0.19000000000E+002,  0.10000000000E+001,  0.00000000000E+000
  0.18251193722E+008,  0.23184847755E+007,  0.19000000000E+002,  0.10000000000E+001,  0.00000000000E+000
  0.18251343722E+008,  0.23203213481E+007,  0.19000000000E+002,  0.10000000000E+001,  0.00000000000E+000
  0.18251493722E+008,  0.23221533779E+007,  0.19000000000E+002,  0.10000000000E+001,  0.00000000000E+000
  0.18251643722E+008,  0.23239808686E+007,  0.19000000000E+002,  0.10000000000E+001,  0.00000000000E+000
  0.18251793722E+008,  0.23258038238E+007,  0.19000000000E+002,  0.10000000000E+001,  0.00000000000E+000
  0.18251943722E+008,  0.23276222472E+007,  0.19000000000E+002,  0.10000000000E+001,  0.00000000000E+000
  0.18252093722E+008,  0.23294361425E+007,  0.19000000000E+002,  0.10000000000E+001,  0.00000000000E+000
  0.18252243722E+008,  0.23312455136E+007,  0.19000000000E+002,  0.10000000000E+001,  0.00000000000E+000
  0.18252393722E+008,  0.23330503643E+007,  0.19000000000E+002,  0.10000000000E+001,  0.00000000000E+000
  0.18252543722E+008,  0.23348506986E+007,  0.19000000000E+002,  0.10000000000E+001,  0.00000000000E+000
  0.18252693722E+008,  0.23366465204E+007,  0.19000000000E+002,  0.10000000000E+001,  0.00000000000E+000
  0.18252843722E+008,  0.23384378337E+007,  0.19000000000E+002,  0.10000000000E+001,  0.00000000000E+000
  0.18252993722E+008,  0.23402246428E+007,  0.19000000000E+002,  0.10000000000E+001,  0.00000000000E+000
  0.18253143722E+008,  0.23420069516E+007,  0.19000000000E+002,  0.10000000000E+001,  0.00000000000E+000
  0.18253293722E+008,  0.23437847646E+007,  0.19000000000E+002,  0.10000000000E+001,  0.00000000000E+000
  0.18253443722E+008,  0.23455580858E+007,  0.19000000000E+002,  0.10000000000E+001,  0.00000000000E+000
  0.18253593722E+008,  0.23473269197E+007,  0.19000000000E+002,  0.10000000000E+001,  0.00000000000E+000
  0.18253743722E+008,  0.23490912706E+007,  0.19000000000E+002,  0.10000000000E+001,  0.00000000000E+000
  0.18253893722E+008,  0.23508511430E+007,  0.19000000000E+002,  0.10000000000E+001,  0.00000000000E+000
  0.18254043722E+008,  0.23526065414E+007,  0.19000000000E+002,  0.10000000000E+001,  0.00000000000E+000
  0.18254193722E+008,  0.23543574702E+007,  0.19000000000E+002,  0.10000000000E+001,  0.00000000000E+000
  0.18254343722E+008,  0.23561039341E+007,  0.19000000000E+002,  0.10000000000E+001,  0.00000000000E+000
  0.18254493722E+008,  0.23578459378E+007,  0.19000000000E+002,  0.10000000000E+001,  0.00000000000E+000
  0.18254643722E+008,  0.23595834860E+007,  0.19000000000E+002,  0.10000000000E+001,  0.00000000000E+000
  0.18254793722E+008,  0.23613165833E+007,  0.19000000000E+002,  0.10000000000E+001,  0.00000000000E+000
  0.18254943722E+008,  0.23630452347E+007,  0.19000000000E+002,  0.10000000000E+001,  0.00000000000E+000
  0.18255093722E+008,  0.23647694450E+007,  0.19000000000E+002,  0.10000000000E+001,  0.00000000000E+000
  0.18255243722E+008,  0.23664892190E+007,  0.19000000000E+002,  0.10000000000E+001,  0.00000000000E+000
  0.18255393722E+008,  0.23682045618E+007,  0.19000000000E+002,  0.10000000000E+001,  0.00000000000E+000
  0.18255543722E+008,  0.23699154783E+007,  0.19000000000E+002,  0.10000000000E+001,  0.00000000000E+000
  0.18255693722E+008,  0.23716219736E+007,  0.19000000000E+002,  0.10000000000E+001,  0.00000000000E+000
