"           TIME(S)","              PRES","              TEMP","             SAT_G","             SAT_L"
  0.17592105000E+008,  0.21000000000E+007,  0.19000000000E+002,  0.00000000000E+000,  0.10000000000E+001
  0.17592130000E+008,  0.21000000005E+007,  0.19000000000E+002,  0.00000000000E+000,  0.10000000000E+001
  0.17592255000E+008,  0.20999870960E+007,  0.19000000000E+002,  0.00000000000E+000,  0.10000000000E+001
  0.17592405000E+008,  0.20999216725E+007,  0.19000000000E+002,  0.00000000000E+000,  0.10000000000E+001
  0.17592555000E+008,  0.20997889126E+007,  0.19000000000E+002,  0.00000000000E+000,  0.10000000000E+001
  0.17592705000E+008,  0.20995892909E+007,  0.19000000000E+002,  0.00000000000E+000,  0.10000000000E+001
  0.17592855000E+008,  0.20993341274E+007,  0.19000000000E+002,  0.00000000000E+000,  0.10000000000E+001
  0.17593005000E+008,  0.20990377267E+007,  0.19000000000E+002,  0.00000000000E+000,  0.10000000000E+001
  0.17593155000E+008,  0.20987130429E+007,  0.19000000000E+002,  0.00000000000E+000,  0.10000000000E+001
  0.17593305000E+008,  0.20983700597E+007,  0.19000000000E+002,  0.00000000000E+000,  0.10000000000E+001
  0.17593455000E+008,  0.20980157506E+007,  0.19000000000E+002,  0.00000000000E+000,  0.10000000000E+001
  0.17593605000E+008,  0.20976547191E+007,  0.19000000000E+002,  0.00000000000E+000,  0.10000000000E+001
  0.17593755000E+008,  0.20972899315E+007,  0.19000000000E+002,  0.00000000000E+000,  0.10000000000E+001
  0.17593905000E+008,  0.20969233093E+007,  0.19000000000E+002,  0.00000000000E+000,  0.10000000000E+001
  0.17594055000E+008,  0.20965561412E+007,  0.19000000000E+002,  0.00000000000E+000,  0.10000000000E+001
  0.17594205000E+008,  0.20961893448E+007,  0.19000000000E+002,  0.00000000000E+000,  0.10000000000E+001
  0.17594355000E+008,  0.20958236238E+007,  0.19000000000E+002,  0.00000000000E+000,  0.10000000000E+001
  0.17594505000E+008,  0.20954595558E+007,  0.19000000000E+002,  0.00000000000E+000,  0.10000000000E+001
  0.17594655000E+008,  0.20950976383E+007,  0.19000000000E+002,  0.00000000000E+000,  0.10000000000E+001
  0.17594805000E+008,  0.20947383119E+007,  0.19000000000E+002,  0.00000000000E+000,  0.10000000000E+001
  0.17594955000E+008,  0.20943819710E+007,  0.19000000000E+002,  0.00000000000E+000,  0.10000000000E+001
  0.17595105000E+008,  0.20940289676E+007,  0.19000000000E+002,  0.00000000000E+000,  0.10000000000E+001
  0.17595255000E+008,  0.20936796137E+007,  0.19000000000E+002,  0.00000000000E+000,  0.10000000000E+001
  0.17595405000E+008,  0.20933341824E+007,  0.19000000000E+002,  0.00000000000E+000,  0.10000000000E+001
  0.17595407344E+008,  0.20933287861E+007,  0.19000000000E+002,  0.00000000000E+000,  0.10000000000E+001
  0.17595408809E+008,  0.20933254137E+007,  0.19000000000E+002,  0.00000000000E+000,  0.10000000000E+001
  0.17595409724E+008,  0.20933233061E+007,  0.19000000000E+002,  0.00000000000E+000,  0.10000000000E+001
  0.17595414302E+008,  0.20933127717E+007,  0.19000000000E+002,  0.00000000000E+000,  0.10000000000E+001
  0.17595414659E+008,  0.20933119488E+007,  0.19000000000E+002,  0.00000000000E+000,  0.10000000000E+001
  0.17595414883E+008,  0.20933114344E+007,  0.19000000000E+002,  0.00000000000E+000,  0.10000000000E+001
  0.17595415023E+008,  0.20933111129E+007,  0.19000000000E+002,  0.00000000000E+000,  0.10000000000E+001
  0.17595415110E+008,  0.20933109120E+007,  0.19000000000E+002,  0.00000000000E+000,  0.10000000000E+001
  0.17595415546E+008,  0.20933099075E+007,  0.19000000000E+002,  0.00000000000E+000,  0.10000000000E+001
  0.17595415547E+008,  0.20933099075E+007,  0.19000000000E+002,  0.00000000000E+000,  0.10000000000E+001
  0.17595415547E+008,  0.20933099075E+007,  0.19000000000E+002,  0.00000000000E+000,  0.10000000000E+001
  0.17595415548E+008,  0.20933099075E+007,  0.19000000000E+002,  0.00000000000E+000,  0.10000000000E+001
