"           TIME(S)","              PRES","              TEMP","             SAT_G","             SAT_L"
  0.17592150000E+008,  0.21000000704E+007,  0.19000000000E+002,  0.00000000000E+000,  0.10000000000E+001
  0.17592300000E+008,  0.20999897182E+007,  0.19000000000E+002,  0.00000000000E+000,  0.10000000000E+001
  0.17592450000E+008,  0.20999514592E+007,  0.19000000000E+002,  0.00000000000E+000,  0.10000000000E+001
  0.17592600000E+008,  0.20998732235E+007,  0.19000000000E+002,  0.00000000000E+000,  0.10000000000E+001
  0.17592750000E+008,  0.20997518798E+007,  0.19000000000E+002,  0.00000000000E+000,  0.10000000000E+001
  0.17592900000E+008,  0.20995912731E+007,  0.19000000000E+002,  0.00000000000E+000,  0.10000000000E+001
  0.17593050000E+008,  0.20993981698E+007,  0.19000000000E+002,  0.00000000000E+000,  0.10000000000E+001
  0.17593200000E+008,  0.20991796244E+007,  0.19000000000E+002,  0.00000000000E+000,  0.10000000000E+001
  0.17593350000E+008,  0.20989417466E+007,  0.19000000000E+002,  0.00000000000E+000,  0.10000000000E+001
  0.17593500000E+008,  0.20986893332E+007,  0.19000000000E+002,  0.00000000000E+000,  0.10000000000E+001
  0.17593650000E+008,  0.20984259578E+007,  0.19000000000E+002,  0.00000000000E+000,  0.10000000000E+001
  0.17593800000E+008,  0.20981542317E+007,  0.19000000000E+002,  0.00000000000E+000,  0.10000000000E+001
  0.17593950000E+008,  0.20978760776E+007,  0.19000000000E+002,  0.00000000000E+000,  0.10000000000E+001
  0.17594100000E+008,  0.20975929516E+007,  0.19000000000E+002,  0.00000000000E+000,  0.10000000000E+001
  0.17594250000E+008,  0.20973060027E+007,  0.19000000000E+002,  0.00000000000E+000,  0.10000000000E+001
  0.17594400000E+008,  0.20970161765E+007,  0.19000000000E+002,  0.00000000000E+000,  0.10000000000E+001
  0.17594550000E+008,  0.20967242805E+007,  0.19000000000E+002,  0.00000000000E+000,  0.10000000000E+001
  0.17594700000E+008,  0.20964310218E+007,  0.19000000000E+002,  0.00000000000E+000,  0.10000000000E+001
  0.17594850000E+008,  0.20961370291E+007,  0.19000000000E+002,  0.00000000000E+000,  0.10000000000E+001
  0.17595000000E+008,  0.20958428649E+007,  0.19000000000E+002,  0.00000000000E+000,  0.10000000000E+001
  0.17595150000E+008,  0.20955490540E+007,  0.19000000000E+002,  0.00000000000E+000,  0.10000000000E+001
  0.17595225000E+008,  0.20954023807E+007,  0.19000000000E+002,  0.00000000000E+000,  0.10000000000E+001
  0.17595262501E+008,  0.20953291130E+007,  0.19000000000E+002,  0.00000000000E+000,  0.10000000000E+001
  0.17595412501E+008,  0.20950373089E+007,  0.19000000000E+002,  0.00000000000E+000,  0.10000000000E+001
  0.17595487501E+008,  0.20948918442E+007,  0.19000000000E+002,  0.00000000000E+000,  0.10000000000E+001
  0.17595525002E+008,  0.20948192430E+007,  0.19000000000E+002,  0.00000000000E+000,  0.10000000000E+001
  0.17595543752E+008,  0.20947829774E+007,  0.19000000000E+002,  0.00000000000E+000,  0.10000000000E+001
  0.17595553127E+008,  0.20947648539E+007,  0.19000000000E+002,  0.00000000000E+000,  0.10000000000E+001
  0.17595557815E+008,  0.20947557944E+007,  0.19000000000E+002,  0.00000000000E+000,  0.10000000000E+001
  0.17595560159E+008,  0.20947512653E+007,  0.19000000000E+002,  0.00000000000E+000,  0.10000000000E+001
  0.17595571878E+008,  0.20947286378E+007,  0.19000000000E+002,  0.00000000000E+000,  0.10000000000E+001
  0.17595630474E+008,  0.20946159123E+007,  0.19000000000E+002,  0.00000000000E+000,  0.10000000000E+001
  0.17595780474E+008,  0.20943292976E+007,  0.19000000000E+002,  0.00000000000E+000,  0.10000000000E+001
  0.17595930474E+008,  0.20940445927E+007,  0.19000000000E+002,  0.00000000000E+000,  0.10000000000E+001
  0.17596080474E+008,  0.20937619406E+007,  0.19000000000E+002,  0.00000000000E+000,  0.10000000000E+001
  0.17596230474E+008,  0.20934814872E+007,  0.19000000000E+002,  0.00000000000E+000,  0.10000000000E+001
  0.17596380474E+008,  0.20932033445E+007,  0.19000000000E+002,  0.00000000000E+000,  0.10000000000E+001
  0.17596455475E+008,  0.20930649696E+007,  0.19000000000E+002,  0.00000000000E+000,  0.10000000000E+001
  0.17596492975E+008,  0.20929959704E+007,  0.19000000000E+002,  0.00000000000E+000,  0.10000000000E+001
  0.17596511725E+008,  0.20929615230E+007,  0.19000000000E+002,  0.00000000000E+000,  0.10000000000E+001
  0.17596521101E+008,  0.20929443130E+007,  0.19000000000E+002,  0.00000000000E+000,  0.10000000000E+001
  0.17596567977E+008,  0.20928585743E+007,  0.19000000000E+002,  0.00000000000E+000,  0.10000000000E+001
  0.17596717977E+008,  0.20925867069E+007,  0.19000000000E+002,  0.00000000000E+000,  0.10000000000E+001
  0.17596792977E+008,  0.20924515460E+007,  0.19000000000E+002,  0.00000000000E+000,  0.10000000000E+001
  0.17596830478E+008,  0.20923842058E+007,  0.19000000000E+002,  0.00000000000E+000,  0.10000000000E+001
  0.17596849228E+008,  0.20923506124E+007,  0.19000000000E+002,  0.00000000000E+000,  0.10000000000E+001
  0.17596858603E+008,  0.20923338372E+007,  0.19000000000E+002,  0.00000000000E+000,  0.10000000000E+001
  0.17596863291E+008,  0.20923254553E+007,  0.19000000000E+002,  0.00000000000E+000,  0.10000000000E+001
  0.17596886729E+008,  0.20922836577E+007,  0.19000000000E+002,  0.00000000000E+000,  0.10000000000E+001
  0.17596898449E+008,  0.20922627868E+007,  0.19000000000E+002,  0.00000000000E+000,  0.10000000000E+001
  0.17596957045E+008,  0.20921587567E+007,  0.19000000000E+002,  0.00000000000E+000,  0.10000000000E+001
  0.17597107045E+008,  0.20918941504E+007,  0.19000000000E+002,  0.00000000000E+000,  0.10000000000E+001
  0.17597257045E+008,  0.20916316705E+007,  0.19000000000E+002,  0.00000000000E+000,  0.10000000000E+001
  0.17597407045E+008,  0.20913715039E+007,  0.19000000000E+002,  0.00000000000E+000,  0.10000000000E+001
  0.17597557045E+008,  0.20911136921E+007,  0.19000000000E+002,  0.00000000000E+000,  0.10000000000E+001
  0.17597707045E+008,  0.20908582190E+007,  0.19000000000E+002,  0.00000000000E+000,  0.10000000000E+001
  0.17597857045E+008,  0.20906050475E+007,  0.19000000000E+002,  0.00000000000E+000,  0.10000000000E+001
  0.17598007045E+008,  0.20903541303E+007,  0.19000000000E+002,  0.00000000000E+000,  0.10000000000E+001
  0.17598157045E+008,  0.20901054147E+007,  0.19000000000E+002,  0.00000000000E+000,  0.10000000000E+001
  0.17598307045E+008,  0.20898588442E+007,  0.19000000000E+002,  0.00000000000E+000,  0.10000000000E+001
  0.17598457045E+008,  0.20896143594E+007,  0.19000000000E+002,  0.00000000000E+000,  0.10000000000E+001
  0.17598607045E+008,  0.20893718990E+007,  0.19000000000E+002,  0.00000000000E+000,  0.10000000000E+001
  0.17598757045E+008,  0.20891314004E+007,  0.19000000000E+002,  0.00000000000E+000,  0.10000000000E+001
  0.17598907045E+008,  0.20888927999E+007,  0.19000000000E+002,  0.00000000000E+000,  0.10000000000E+001
  0.17599057045E+008,  0.20886560335E+007,  0.19000000000E+002,  0.00000000000E+000,  0.10000000000E+001
  0.17599207045E+008,  0.20884210368E+007,  0.19000000000E+002,  0.00000000000E+000,  0.10000000000E+001
  0.17599357045E+008,  0.20881877456E+007,  0.19000000000E+002,  0.00000000000E+000,  0.10000000000E+001
  0.17599507045E+008,  0.20879560962E+007,  0.19000000000E+002,  0.00000000000E+000,  0.10000000000E+001
  0.17599657045E+008,  0.20877260251E+007,  0.19000000000E+002,  0.00000000000E+000,  0.10000000000E+001
  0.17599807045E+008,  0.20874974700E+007,  0.19000000000E+002,  0.00000000000E+000,  0.10000000000E+001
  0.17599957045E+008,  0.20872703690E+007,  0.19000000000E+002,  0.00000000000E+000,  0.10000000000E+001
  0.17600107045E+008,  0.20870446617E+007,  0.19000000000E+002,  0.00000000000E+000,  0.10000000000E+001
  0.17600257045E+008,  0.20868202884E+007,  0.19000000000E+002,  0.00000000000E+000,  0.10000000000E+001
  0.17600407045E+008,  0.20865971909E+007,  0.19000000000E+002,  0.00000000000E+000,  0.10000000000E+001
  0.17600557045E+008,  0.20863753123E+007,  0.19000000000E+002,  0.00000000000E+000,  0.10000000000E+001
  0.17600707045E+008,  0.20861545970E+007,  0.19000000000E+002,  0.00000000000E+000,  0.10000000000E+001
  0.17600857045E+008,  0.20859349907E+007,  0.19000000000E+002,  0.00000000000E+000,  0.10000000000E+001
  0.17601007045E+008,  0.20857164407E+007,  0.19000000000E+002,  0.00000000000E+000,  0.10000000000E+001
  0.17601157045E+008,  0.20854988958E+007,  0.19000000000E+002,  0.00000000000E+000,  0.10000000000E+001
  0.17601307045E+008,  0.20852823063E+007,  0.19000000000E+002,  0.00000000000E+000,  0.10000000000E+001
  0.17601457045E+008,  0.20850666239E+007,  0.19000000000E+002,  0.00000000000E+000,  0.10000000000E+001
  0.17601607045E+008,  0.20848518018E+007,  0.19000000000E+002,  0.00000000000E+000,  0.10000000000E+001
  0.17601757045E+008,  0.20846377950E+007,  0.19000000000E+002,  0.00000000000E+000,  0.10000000000E+001
  0.17601907045E+008,  0.20844245597E+007,  0.19000000000E+002,  0.00000000000E+000,  0.10000000000E+001
  0.17602057045E+008,  0.20842120538E+007,  0.19000000000E+002,  0.00000000000E+000,  0.10000000000E+001
  0.17602207045E+008,  0.20840002367E+007,  0.19000000000E+002,  0.00000000000E+000,  0.10000000000E+001
  0.17602357045E+008,  0.20837890692E+007,  0.19000000000E+002,  0.00000000000E+000,  0.10000000000E+001
  0.17602507045E+008,  0.20835785137E+007,  0.19000000000E+002,  0.00000000000E+000,  0.10000000000E+001
  0.17602657045E+008,  0.20833685339E+007,  0.19000000000E+002,  0.00000000000E+000,  0.10000000000E+001
  0.17602807045E+008,  0.20831590950E+007,  0.19000000000E+002,  0.00000000000E+000,  0.10000000000E+001
  0.17602957045E+008,  0.20829501637E+007,  0.19000000000E+002,  0.00000000000E+000,  0.10000000000E+001
  0.17603107045E+008,  0.20827417079E+007,  0.19000000000E+002,  0.00000000000E+000,  0.10000000000E+001
  0.17603257045E+008,  0.20825336970E+007,  0.19000000000E+002,  0.00000000000E+000,  0.10000000000E+001
  0.17603407045E+008,  0.20823261017E+007,  0.19000000000E+002,  0.00000000000E+000,  0.10000000000E+001
  0.17603557045E+008,  0.20821190609E+007,  0.19000000000E+002,  0.00000000000E+000,  0.10000000000E+001
  0.17603707045E+008,  0.20819130886E+007,  0.19000000000E+002,  0.00000000000E+000,  0.10000000000E+001
  0.17603857045E+008,  0.20817082791E+007,  0.19000000000E+002,  0.00000000000E+000,  0.10000000000E+001
  0.17604007045E+008,  0.20815045159E+007,  0.19000000000E+002,  0.00000000000E+000,  0.10000000000E+001
  0.17604157045E+008,  0.20813020730E+007,  0.19000000000E+002,  0.00000000000E+000,  0.10000000000E+001
  0.17604307045E+008,  0.20811013344E+007,  0.19000000000E+002,  0.00000000000E+000,  0.10000000000E+001
  0.17604457045E+008,  0.20809023452E+007,  0.19000000000E+002,  0.00000000000E+000,  0.10000000000E+001
  0.17604607045E+008,  0.20807052004E+007,  0.19000000000E+002,  0.00000000000E+000,  0.10000000000E+001
  0.17604757045E+008,  0.20805101133E+007,  0.19000000000E+002,  0.00000000000E+000,  0.10000000000E+001
  0.17604907045E+008,  0.20803178636E+007,  0.19000000000E+002,  0.00000000000E+000,  0.10000000000E+001
  0.17605057045E+008,  0.20801283900E+007,  0.19000000000E+002,  0.00000000000E+000,  0.10000000000E+001
  0.17605207045E+008,  0.20799412837E+007,  0.19000000000E+002,  0.00000000000E+000,  0.10000000000E+001
  0.17605357045E+008,  0.20797561729E+007,  0.19000000000E+002,  0.00000000000E+000,  0.10000000000E+001
  0.17605507045E+008,  0.20795727936E+007,  0.19000000000E+002,  0.00000000000E+000,  0.10000000000E+001
  0.17605657045E+008,  0.20793909662E+007,  0.19000000000E+002,  0.00000000000E+000,  0.10000000000E+001
  0.17605807045E+008,  0.20792106222E+007,  0.19000000000E+002,  0.00000000000E+000,  0.10000000000E+001
  0.17605957045E+008,  0.20790317303E+007,  0.19000000000E+002,  0.00000000000E+000,  0.10000000000E+001
  0.17606107045E+008,  0.20788548516E+007,  0.19000000000E+002,  0.00000000000E+000,  0.10000000000E+001
  0.17606257045E+008,  0.20786800335E+007,  0.19000000000E+002,  0.00000000000E+000,  0.10000000000E+001
  0.17606407045E+008,  0.20785070761E+007,  0.19000000000E+002,  0.00000000000E+000,  0.10000000000E+001
  0.17606557045E+008,  0.20783361585E+007,  0.19000000000E+002,  0.00000000000E+000,  0.10000000000E+001
  0.17606707045E+008,  0.20781677576E+007,  0.19000000000E+002,  0.00000000000E+000,  0.10000000000E+001
  0.17606857045E+008,  0.20780017701E+007,  0.19000000000E+002,  0.00000000000E+000,  0.10000000000E+001
  0.17607007045E+008,  0.20778378162E+007,  0.19000000000E+002,  0.00000000000E+000,  0.10000000000E+001
  0.17607157045E+008,  0.20776756006E+007,  0.19000000000E+002,  0.00000000000E+000,  0.10000000000E+001
  0.17607307045E+008,  0.20775149408E+007,  0.19000000000E+002,  0.00000000000E+000,  0.10000000000E+001
  0.17607457045E+008,  0.20773557247E+007,  0.19000000000E+002,  0.00000000000E+000,  0.10000000000E+001
  0.17607607045E+008,  0.20771978800E+007,  0.19000000000E+002,  0.00000000000E+000,  0.10000000000E+001
  0.17607757045E+008,  0.20770414038E+007,  0.19000000000E+002,  0.00000000000E+000,  0.10000000000E+001
  0.17607907045E+008,  0.20768866368E+007,  0.19000000000E+002,  0.00000000000E+000,  0.10000000000E+001
  0.17608057045E+008,  0.20767336356E+007,  0.19000000000E+002,  0.00000000000E+000,  0.10000000000E+001
  0.17608207045E+008,  0.20765825436E+007,  0.19000000000E+002,  0.00000000000E+000,  0.10000000000E+001
  0.17608357045E+008,  0.20764332497E+007,  0.19000000000E+002,  0.00000000000E+000,  0.10000000000E+001
  0.17608507045E+008,  0.20762859093E+007,  0.19000000000E+002,  0.00000000000E+000,  0.10000000000E+001
  0.17608657045E+008,  0.20761411824E+007,  0.19000000000E+002,  0.00000000000E+000,  0.10000000000E+001
  0.17608807045E+008,  0.20759989829E+007,  0.19000000000E+002,  0.00000000000E+000,  0.10000000000E+001
  0.17608957045E+008,  0.20758589106E+007,  0.19000000000E+002,  0.00000000000E+000,  0.10000000000E+001
  0.17609107045E+008,  0.20757218019E+007,  0.19000000000E+002,  0.00000000000E+000,  0.10000000000E+001
  0.17609257045E+008,  0.20755877663E+007,  0.19000000000E+002,  0.00000000000E+000,  0.10000000000E+001
  0.17609407045E+008,  0.20754568754E+007,  0.19000000000E+002,  0.00000000000E+000,  0.10000000000E+001
  0.17609557045E+008,  0.20753285943E+007,  0.19000000000E+002,  0.00000000000E+000,  0.10000000000E+001
  0.17609707045E+008,  0.20752033022E+007,  0.19000000000E+002,  0.00000000000E+000,  0.10000000000E+001
  0.17609857045E+008,  0.20750802367E+007,  0.19000000000E+002,  0.00000000000E+000,  0.10000000000E+001
  0.17610007045E+008,  0.20749588911E+007,  0.19000000000E+002,  0.00000000000E+000,  0.10000000000E+001
  0.17610157045E+008,  0.20748390073E+007,  0.19000000000E+002,  0.00000000000E+000,  0.10000000000E+001
  0.17610307045E+008,  0.20747204488E+007,  0.19000000000E+002,  0.00000000000E+000,  0.10000000000E+001
  0.17610457045E+008,  0.20746031343E+007,  0.19000000000E+002,  0.00000000000E+000,  0.10000000000E+001
  0.17610607045E+008,  0.20744870098E+007,  0.19000000000E+002,  0.00000000000E+000,  0.10000000000E+001
  0.17610757045E+008,  0.20743720354E+007,  0.19000000000E+002,  0.00000000000E+000,  0.10000000000E+001
  0.17610907045E+008,  0.20742581794E+007,  0.19000000000E+002,  0.00000000000E+000,  0.10000000000E+001
  0.17611057045E+008,  0.20741454153E+007,  0.19000000000E+002,  0.00000000000E+000,  0.10000000000E+001
  0.17611207045E+008,  0.20740337198E+007,  0.19000000000E+002,  0.00000000000E+000,  0.10000000000E+001
  0.17611357045E+008,  0.20739230718E+007,  0.19000000000E+002,  0.00000000000E+000,  0.10000000000E+001
  0.17611507045E+008,  0.20738134518E+007,  0.19000000000E+002,  0.00000000000E+000,  0.10000000000E+001
  0.17611657045E+008,  0.20737048417E+007,  0.19000000000E+002,  0.00000000000E+000,  0.10000000000E+001
  0.17611807045E+008,  0.20735972242E+007,  0.19000000000E+002,  0.00000000000E+000,  0.10000000000E+001
  0.17611957045E+008,  0.20734905827E+007,  0.19000000000E+002,  0.00000000000E+000,  0.10000000000E+001
  0.17612107045E+008,  0.20733849015E+007,  0.19000000000E+002,  0.00000000000E+000,  0.10000000000E+001
  0.17612257045E+008,  0.20732801650E+007,  0.19000000000E+002,  0.00000000000E+000,  0.10000000000E+001
  0.17612407045E+008,  0.20731763585E+007,  0.19000000000E+002,  0.00000000000E+000,  0.10000000000E+001
  0.17612557045E+008,  0.20730734675E+007,  0.19000000000E+002,  0.00000000000E+000,  0.10000000000E+001
  0.17612707045E+008,  0.20729714779E+007,  0.19000000000E+002,  0.00000000000E+000,  0.10000000000E+001
  0.17612857045E+008,  0.20728703759E+007,  0.19000000000E+002,  0.00000000000E+000,  0.10000000000E+001
  0.17613007045E+008,  0.20727701482E+007,  0.19000000000E+002,  0.00000000000E+000,  0.10000000000E+001
  0.17613157045E+008,  0.20726707817E+007,  0.19000000000E+002,  0.00000000000E+000,  0.10000000000E+001
  0.17613307045E+008,  0.20725722635E+007,  0.19000000000E+002,  0.00000000000E+000,  0.10000000000E+001
  0.17613457045E+008,  0.20724745811E+007,  0.19000000000E+002,  0.00000000000E+000,  0.10000000000E+001
  0.17613607045E+008,  0.20723777223E+007,  0.19000000000E+002,  0.00000000000E+000,  0.10000000000E+001
  0.17613757045E+008,  0.20722816749E+007,  0.19000000000E+002,  0.00000000000E+000,  0.10000000000E+001
  0.17613907045E+008,  0.20721864271E+007,  0.19000000000E+002,  0.00000000000E+000,  0.10000000000E+001
  0.17614057045E+008,  0.20720919675E+007,  0.19000000000E+002,  0.00000000000E+000,  0.10000000000E+001
  0.17614207045E+008,  0.20719982846E+007,  0.19000000000E+002,  0.00000000000E+000,  0.10000000000E+001
  0.17614357045E+008,  0.20719053673E+007,  0.19000000000E+002,  0.00000000000E+000,  0.10000000000E+001
  0.17614507045E+008,  0.20718132047E+007,  0.19000000000E+002,  0.00000000000E+000,  0.10000000000E+001
  0.17614657045E+008,  0.20717217860E+007,  0.19000000000E+002,  0.00000000000E+000,  0.10000000000E+001
  0.17614807045E+008,  0.20716311006E+007,  0.19000000000E+002,  0.00000000000E+000,  0.10000000000E+001
  0.17614957045E+008,  0.20715411382E+007,  0.19000000000E+002,  0.00000000000E+000,  0.10000000000E+001
  0.17615107045E+008,  0.20714518887E+007,  0.19000000000E+002,  0.00000000000E+000,  0.10000000000E+001
  0.17615257045E+008,  0.20713633420E+007,  0.19000000000E+002,  0.00000000000E+000,  0.10000000000E+001
  0.17615407045E+008,  0.20712754883E+007,  0.19000000000E+002,  0.00000000000E+000,  0.10000000000E+001
  0.17615557045E+008,  0.20711883179E+007,  0.19000000000E+002,  0.00000000000E+000,  0.10000000000E+001
  0.17615707045E+008,  0.20711018214E+007,  0.19000000000E+002,  0.00000000000E+000,  0.10000000000E+001
  0.17615857045E+008,  0.20710159894E+007,  0.19000000000E+002,  0.00000000000E+000,  0.10000000000E+001
  0.17616007045E+008,  0.20709308127E+007,  0.19000000000E+002,  0.00000000000E+000,  0.10000000000E+001
  0.17616157045E+008,  0.20708462823E+007,  0.19000000000E+002,  0.00000000000E+000,  0.10000000000E+001
  0.17616307045E+008,  0.20707623893E+007,  0.19000000000E+002,  0.00000000000E+000,  0.10000000000E+001
  0.17616457045E+008,  0.20706791250E+007,  0.19000000000E+002,  0.00000000000E+000,  0.10000000000E+001
  0.17616607045E+008,  0.20705964809E+007,  0.19000000000E+002,  0.00000000000E+000,  0.10000000000E+001
  0.17616757045E+008,  0.20705144484E+007,  0.19000000000E+002,  0.00000000000E+000,  0.10000000000E+001
  0.17616907045E+008,  0.20704330193E+007,  0.19000000000E+002,  0.00000000000E+000,  0.10000000000E+001
  0.17617057045E+008,  0.20703521854E+007,  0.19000000000E+002,  0.00000000000E+000,  0.10000000000E+001
  0.17617207045E+008,  0.20702719387E+007,  0.19000000000E+002,  0.00000000000E+000,  0.10000000000E+001
  0.17617357045E+008,  0.20701922712E+007,  0.19000000000E+002,  0.00000000000E+000,  0.10000000000E+001
  0.17617507045E+008,  0.20701131752E+007,  0.19000000000E+002,  0.00000000000E+000,  0.10000000000E+001
  0.17617657045E+008,  0.20700346431E+007,  0.19000000000E+002,  0.00000000000E+000,  0.10000000000E+001
