"           TIME(S)","              PRES","              TEMP","             SAT_G","             SAT_L"
  0.17592105000E+008,  0.20999939015E+007,  0.19000000000E+002,  0.00000000000E+000,  0.10000000000E+001
  0.17592130000E+008,  0.20991579795E+007,  0.19000000000E+002,  0.00000000000E+000,  0.10000000000E+001
  0.17592255000E+008,  0.20902257947E+007,  0.19000000000E+002,  0.00000000000E+000,  0.10000000000E+001
  0.17592405000E+008,  0.20821971157E+007,  0.19000000000E+002,  0.00000000000E+000,  0.10000000000E+001
  0.17592555000E+008,  0.20770188173E+007,  0.19000000000E+002,  0.00000000000E+000,  0.10000000000E+001
  0.17592705000E+008,  0.20736292349E+007,  0.19000000000E+002,  0.00000000000E+000,  0.10000000000E+001
  0.17592855000E+008,  0.20712792042E+007,  0.19000000000E+002,  0.00000000000E+000,  0.10000000000E+001
  0.17593005000E+008,  0.20695438956E+007,  0.19000000000E+002,  0.00000000000E+000,  0.10000000000E+001
  0.17593155000E+008,  0.20681876222E+007,  0.19000000000E+002,  0.00000000000E+000,  0.10000000000E+001
  0.17593305000E+008,  0.20670758532E+007,  0.19000000000E+002,  0.00000000000E+000,  0.10000000000E+001
  0.17593455000E+008,  0.20661287002E+007,  0.19000000000E+002,  0.00000000000E+000,  0.10000000000E+001
  0.17593605000E+008,  0.20652968820E+007,  0.19000000000E+002,  0.00000000000E+000,  0.10000000000E+001
  0.17593755000E+008,  0.20645489583E+007,  0.19000000000E+002,  0.00000000000E+000,  0.10000000000E+001
  0.17593905000E+008,  0.20638642681E+007,  0.19000000000E+002,  0.00000000000E+000,  0.10000000000E+001
  0.17594055000E+008,  0.20632288619E+007,  0.19000000000E+002,  0.00000000000E+000,  0.10000000000E+001
  0.17594205000E+008,  0.20626330777E+007,  0.19000000000E+002,  0.00000000000E+000,  0.10000000000E+001
  0.17594355000E+008,  0.20620700526E+007,  0.19000000000E+002,  0.00000000000E+000,  0.10000000000E+001
  0.17594505000E+008,  0.20615347883E+007,  0.19000000000E+002,  0.00000000000E+000,  0.10000000000E+001
  0.17594655000E+008,  0.20610235521E+007,  0.19000000000E+002,  0.00000000000E+000,  0.10000000000E+001
  0.17594805000E+008,  0.20605334864E+007,  0.19000000000E+002,  0.00000000000E+000,  0.10000000000E+001
  0.17594955000E+008,  0.20600623510E+007,  0.19000000000E+002,  0.00000000000E+000,  0.10000000000E+001
  0.17595105000E+008,  0.20596083491E+007,  0.19000000000E+002,  0.00000000000E+000,  0.10000000000E+001
  0.17595255000E+008,  0.20591700096E+007,  0.19000000000E+002,  0.00000000000E+000,  0.10000000000E+001
  0.17595405000E+008,  0.20587461054E+007,  0.19000000000E+002,  0.00000000000E+000,  0.10000000000E+001
  0.17595555000E+008,  0.20583355974E+007,  0.19000000000E+002,  0.00000000000E+000,  0.10000000000E+001
  0.17595564375E+008,  0.20583099929E+007,  0.19000000000E+002,  0.00000000000E+000,  0.10000000000E+001
  0.17595611250E+008,  0.20581832409E+007,  0.19000000000E+002,  0.00000000000E+000,  0.10000000000E+001
  0.17595761250E+008,  0.20577898261E+007,  0.19000000000E+002,  0.00000000000E+000,  0.10000000000E+001
  0.17595836251E+008,  0.20575960672E+007,  0.19000000000E+002,  0.00000000000E+000,  0.10000000000E+001
  0.17595986251E+008,  0.20572196620E+007,  0.19000000000E+002,  0.00000000000E+000,  0.10000000000E+001
  0.17596061251E+008,  0.20570341549E+007,  0.19000000000E+002,  0.00000000000E+000,  0.10000000000E+001
  0.17596098752E+008,  0.20569420650E+007,  0.19000000000E+002,  0.00000000000E+000,  0.10000000000E+001
  0.17596248752E+008,  0.20565837611E+007,  0.19000000000E+002,  0.00000000000E+000,  0.10000000000E+001
  0.17596398752E+008,  0.20562349739E+007,  0.19000000000E+002,  0.00000000000E+000,  0.10000000000E+001
  0.17596473752E+008,  0.20560628941E+007,  0.19000000000E+002,  0.00000000000E+000,  0.10000000000E+001
  0.17596511253E+008,  0.20559774245E+007,  0.19000000000E+002,  0.00000000000E+000,  0.10000000000E+001
  0.17596661253E+008,  0.20556442086E+007,  0.19000000000E+002,  0.00000000000E+000,  0.10000000000E+001
  0.17596736253E+008,  0.20554797068E+007,  0.19000000000E+002,  0.00000000000E+000,  0.10000000000E+001
  0.17596773754E+008,  0.20553979751E+007,  0.19000000000E+002,  0.00000000000E+000,  0.10000000000E+001
  0.17596923754E+008,  0.20550789307E+007,  0.19000000000E+002,  0.00000000000E+000,  0.10000000000E+001
  0.17596998754E+008,  0.20549213236E+007,  0.19000000000E+002,  0.00000000000E+000,  0.10000000000E+001
  0.17597036254E+008,  0.20548429920E+007,  0.19000000000E+002,  0.00000000000E+000,  0.10000000000E+001
  0.17597055005E+008,  0.20548039431E+007,  0.19000000000E+002,  0.00000000000E+000,  0.10000000000E+001
  0.17597148757E+008,  0.20546115288E+007,  0.19000000000E+002,  0.00000000000E+000,  0.10000000000E+001
  0.17597298757E+008,  0.20543105045E+007,  0.19000000000E+002,  0.00000000000E+000,  0.10000000000E+001
  0.17597448757E+008,  0.20540159183E+007,  0.19000000000E+002,  0.00000000000E+000,  0.10000000000E+001
  0.17597598757E+008,  0.20537273987E+007,  0.19000000000E+002,  0.00000000000E+000,  0.10000000000E+001
  0.17597748757E+008,  0.20534446040E+007,  0.19000000000E+002,  0.00000000000E+000,  0.10000000000E+001
  0.17597898757E+008,  0.20531672256E+007,  0.19000000000E+002,  0.00000000000E+000,  0.10000000000E+001
  0.17598048757E+008,  0.20528949879E+007,  0.19000000000E+002,  0.00000000000E+000,  0.10000000000E+001
  0.17598198757E+008,  0.20526276479E+007,  0.19000000000E+002,  0.00000000000E+000,  0.10000000000E+001
  0.17598348757E+008,  0.20523649922E+007,  0.19000000000E+002,  0.00000000000E+000,  0.10000000000E+001
  0.17598498757E+008,  0.20521068343E+007,  0.19000000000E+002,  0.00000000000E+000,  0.10000000000E+001
  0.17598648757E+008,  0.20518530112E+007,  0.19000000000E+002,  0.00000000000E+000,  0.10000000000E+001
  0.17598798757E+008,  0.20516033799E+007,  0.19000000000E+002,  0.00000000000E+000,  0.10000000000E+001
  0.17598948757E+008,  0.20513578150E+007,  0.19000000000E+002,  0.00000000000E+000,  0.10000000000E+001
  0.17599098757E+008,  0.20511162058E+007,  0.19000000000E+002,  0.00000000000E+000,  0.10000000000E+001
  0.17599248757E+008,  0.20508784539E+007,  0.19000000000E+002,  0.00000000000E+000,  0.10000000000E+001
  0.17599398757E+008,  0.20506444714E+007,  0.19000000000E+002,  0.00000000000E+000,  0.10000000000E+001
  0.17599548757E+008,  0.20504141793E+007,  0.19000000000E+002,  0.00000000000E+000,  0.10000000000E+001
  0.17599698757E+008,  0.20501875058E+007,  0.19000000000E+002,  0.00000000000E+000,  0.10000000000E+001
  0.17599848757E+008,  0.20499643855E+007,  0.19000000000E+002,  0.00000000000E+000,  0.10000000000E+001
  0.17599998757E+008,  0.20497447581E+007,  0.19000000000E+002,  0.00000000000E+000,  0.10000000000E+001
  0.17600148757E+008,  0.20495285676E+007,  0.19000000000E+002,  0.00000000000E+000,  0.10000000000E+001
  0.17600298757E+008,  0.20493157617E+007,  0.19000000000E+002,  0.00000000000E+000,  0.10000000000E+001
  0.17600448757E+008,  0.20491062909E+007,  0.19000000000E+002,  0.00000000000E+000,  0.10000000000E+001
  0.17600598757E+008,  0.20489001084E+007,  0.19000000000E+002,  0.00000000000E+000,  0.10000000000E+001
  0.17600748757E+008,  0.20486971690E+007,  0.19000000000E+002,  0.00000000000E+000,  0.10000000000E+001
  0.17600898757E+008,  0.20484974296E+007,  0.19000000000E+002,  0.00000000000E+000,  0.10000000000E+001
  0.17601048757E+008,  0.20483008479E+007,  0.19000000000E+002,  0.00000000000E+000,  0.10000000000E+001
  0.17601198757E+008,  0.20481073830E+007,  0.19000000000E+002,  0.00000000000E+000,  0.10000000000E+001
  0.17601348757E+008,  0.20479169947E+007,  0.19000000000E+002,  0.00000000000E+000,  0.10000000000E+001
  0.17601498757E+008,  0.20477296434E+007,  0.19000000000E+002,  0.00000000000E+000,  0.10000000000E+001
  0.17601648757E+008,  0.20475452901E+007,  0.19000000000E+002,  0.00000000000E+000,  0.10000000000E+001
  0.17601798757E+008,  0.20473638960E+007,  0.19000000000E+002,  0.00000000000E+000,  0.10000000000E+001
  0.17601948757E+008,  0.20471854227E+007,  0.19000000000E+002,  0.00000000000E+000,  0.10000000000E+001
  0.17602098757E+008,  0.20470098320E+007,  0.19000000000E+002,  0.00000000000E+000,  0.10000000000E+001
  0.17602248757E+008,  0.20468370858E+007,  0.19000000000E+002,  0.00000000000E+000,  0.10000000000E+001
  0.17602398757E+008,  0.20466671464E+007,  0.19000000000E+002,  0.00000000000E+000,  0.10000000000E+001
  0.17602548757E+008,  0.20464999758E+007,  0.19000000000E+002,  0.00000000000E+000,  0.10000000000E+001
  0.17602698757E+008,  0.20463355364E+007,  0.19000000000E+002,  0.00000000000E+000,  0.10000000000E+001
  0.17602848757E+008,  0.20461737906E+007,  0.19000000000E+002,  0.00000000000E+000,  0.10000000000E+001
  0.17602998757E+008,  0.20460147010E+007,  0.19000000000E+002,  0.00000000000E+000,  0.10000000000E+001
  0.17603148757E+008,  0.20458582300E+007,  0.19000000000E+002,  0.00000000000E+000,  0.10000000000E+001
  0.17603298757E+008,  0.20457043405E+007,  0.19000000000E+002,  0.00000000000E+000,  0.10000000000E+001
  0.17603448757E+008,  0.20455529954E+007,  0.19000000000E+002,  0.00000000000E+000,  0.10000000000E+001
  0.17603598757E+008,  0.20454041577E+007,  0.19000000000E+002,  0.00000000000E+000,  0.10000000000E+001
  0.17603748757E+008,  0.20452577905E+007,  0.19000000000E+002,  0.00000000000E+000,  0.10000000000E+001
  0.17603898757E+008,  0.20451138574E+007,  0.19000000000E+002,  0.00000000000E+000,  0.10000000000E+001
  0.17604048757E+008,  0.20449723220E+007,  0.19000000000E+002,  0.00000000000E+000,  0.10000000000E+001
  0.17604198757E+008,  0.20448331481E+007,  0.19000000000E+002,  0.00000000000E+000,  0.10000000000E+001
  0.17604348757E+008,  0.20446962998E+007,  0.19000000000E+002,  0.00000000000E+000,  0.10000000000E+001
  0.17604498757E+008,  0.20445617415E+007,  0.19000000000E+002,  0.00000000000E+000,  0.10000000000E+001
  0.17604648757E+008,  0.20444294381E+007,  0.19000000000E+002,  0.00000000000E+000,  0.10000000000E+001
  0.17604798757E+008,  0.20442993543E+007,  0.19000000000E+002,  0.00000000000E+000,  0.10000000000E+001
  0.17604948757E+008,  0.20441714557E+007,  0.19000000000E+002,  0.00000000000E+000,  0.10000000000E+001
  0.17605098757E+008,  0.20440457078E+007,  0.19000000000E+002,  0.00000000000E+000,  0.10000000000E+001
  0.17605248757E+008,  0.20439220766E+007,  0.19000000000E+002,  0.00000000000E+000,  0.10000000000E+001
  0.17605398757E+008,  0.20438005286E+007,  0.19000000000E+002,  0.00000000000E+000,  0.10000000000E+001
  0.17605548757E+008,  0.20436810306E+007,  0.19000000000E+002,  0.00000000000E+000,  0.10000000000E+001
  0.17605698757E+008,  0.20435635495E+007,  0.19000000000E+002,  0.00000000000E+000,  0.10000000000E+001
  0.17605848757E+008,  0.20434480530E+007,  0.19000000000E+002,  0.00000000000E+000,  0.10000000000E+001
  0.17605998757E+008,  0.20433345090E+007,  0.19000000000E+002,  0.00000000000E+000,  0.10000000000E+001
  0.17606148757E+008,  0.20432228859E+007,  0.19000000000E+002,  0.00000000000E+000,  0.10000000000E+001
  0.17606298757E+008,  0.20431131522E+007,  0.19000000000E+002,  0.00000000000E+000,  0.10000000000E+001
  0.17606448757E+008,  0.20430052773E+007,  0.19000000000E+002,  0.00000000000E+000,  0.10000000000E+001
  0.17606598757E+008,  0.20428992306E+007,  0.19000000000E+002,  0.00000000000E+000,  0.10000000000E+001
  0.17606748757E+008,  0.20427949822E+007,  0.19000000000E+002,  0.00000000000E+000,  0.10000000000E+001
  0.17606898757E+008,  0.20426925023E+007,  0.19000000000E+002,  0.00000000000E+000,  0.10000000000E+001
  0.17607048757E+008,  0.20425917618E+007,  0.19000000000E+002,  0.00000000000E+000,  0.10000000000E+001
  0.17607198757E+008,  0.20424927320E+007,  0.19000000000E+002,  0.00000000000E+000,  0.10000000000E+001
  0.17607348757E+008,  0.20423953845E+007,  0.19000000000E+002,  0.00000000000E+000,  0.10000000000E+001
  0.17607498757E+008,  0.20422996913E+007,  0.19000000000E+002,  0.00000000000E+000,  0.10000000000E+001
  0.17607648757E+008,  0.20422056250E+007,  0.19000000000E+002,  0.00000000000E+000,  0.10000000000E+001
  0.17607798757E+008,  0.20421131583E+007,  0.19000000000E+002,  0.00000000000E+000,  0.10000000000E+001
  0.17607948757E+008,  0.20420222646E+007,  0.19000000000E+002,  0.00000000000E+000,  0.10000000000E+001
  0.17608098757E+008,  0.20419329176E+007,  0.19000000000E+002,  0.00000000000E+000,  0.10000000000E+001
  0.17608248757E+008,  0.20418450914E+007,  0.19000000000E+002,  0.00000000000E+000,  0.10000000000E+001
  0.17608398757E+008,  0.20417587605E+007,  0.19000000000E+002,  0.00000000000E+000,  0.10000000000E+001
  0.17608548757E+008,  0.20416738998E+007,  0.19000000000E+002,  0.00000000000E+000,  0.10000000000E+001
  0.17608698757E+008,  0.20415904846E+007,  0.19000000000E+002,  0.00000000000E+000,  0.10000000000E+001
  0.17608848757E+008,  0.20415084906E+007,  0.19000000000E+002,  0.00000000000E+000,  0.10000000000E+001
  0.17608998757E+008,  0.20414278938E+007,  0.19000000000E+002,  0.00000000000E+000,  0.10000000000E+001
  0.17609148757E+008,  0.20413486708E+007,  0.19000000000E+002,  0.00000000000E+000,  0.10000000000E+001
  0.17609298757E+008,  0.20412707983E+007,  0.19000000000E+002,  0.00000000000E+000,  0.10000000000E+001
  0.17609448757E+008,  0.20411942536E+007,  0.19000000000E+002,  0.00000000000E+000,  0.10000000000E+001
  0.17609598757E+008,  0.20411190142E+007,  0.19000000000E+002,  0.00000000000E+000,  0.10000000000E+001
  0.17609748757E+008,  0.20410450581E+007,  0.19000000000E+002,  0.00000000000E+000,  0.10000000000E+001
  0.17609898757E+008,  0.20409723635E+007,  0.19000000000E+002,  0.00000000000E+000,  0.10000000000E+001
  0.17610048757E+008,  0.20409009091E+007,  0.19000000000E+002,  0.00000000000E+000,  0.10000000000E+001
  0.17610198757E+008,  0.20408306739E+007,  0.19000000000E+002,  0.00000000000E+000,  0.10000000000E+001
  0.17610348757E+008,  0.20407616373E+007,  0.19000000000E+002,  0.00000000000E+000,  0.10000000000E+001
  0.17610498757E+008,  0.20406937788E+007,  0.19000000000E+002,  0.00000000000E+000,  0.10000000000E+001
  0.17610648757E+008,  0.20406270786E+007,  0.19000000000E+002,  0.00000000000E+000,  0.10000000000E+001
  0.17610798757E+008,  0.20405615170E+007,  0.19000000000E+002,  0.00000000000E+000,  0.10000000000E+001
  0.17610948757E+008,  0.20404970746E+007,  0.19000000000E+002,  0.00000000000E+000,  0.10000000000E+001
  0.17611098757E+008,  0.20404337325E+007,  0.19000000000E+002,  0.00000000000E+000,  0.10000000000E+001
  0.17611248757E+008,  0.20403714718E+007,  0.19000000000E+002,  0.00000000000E+000,  0.10000000000E+001
  0.17611398757E+008,  0.20403102744E+007,  0.19000000000E+002,  0.00000000000E+000,  0.10000000000E+001
  0.17611548757E+008,  0.20402501220E+007,  0.19000000000E+002,  0.00000000000E+000,  0.10000000000E+001
  0.17611698757E+008,  0.20401909969E+007,  0.19000000000E+002,  0.00000000000E+000,  0.10000000000E+001
  0.17611848757E+008,  0.20401328817E+007,  0.19000000000E+002,  0.00000000000E+000,  0.10000000000E+001
  0.17611998757E+008,  0.20400757590E+007,  0.19000000000E+002,  0.00000000000E+000,  0.10000000000E+001
  0.17612148757E+008,  0.20400196121E+007,  0.19000000000E+002,  0.00000000000E+000,  0.10000000000E+001
  0.17612298757E+008,  0.20399644244E+007,  0.19000000000E+002,  0.00000000000E+000,  0.10000000000E+001
  0.17612448757E+008,  0.20399101794E+007,  0.19000000000E+002,  0.00000000000E+000,  0.10000000000E+001
  0.17612598757E+008,  0.20398568611E+007,  0.19000000000E+002,  0.00000000000E+000,  0.10000000000E+001
  0.17612748757E+008,  0.20398044537E+007,  0.19000000000E+002,  0.00000000000E+000,  0.10000000000E+001
  0.17612898757E+008,  0.20397529417E+007,  0.19000000000E+002,  0.00000000000E+000,  0.10000000000E+001
  0.17613048757E+008,  0.20397023099E+007,  0.19000000000E+002,  0.00000000000E+000,  0.10000000000E+001
  0.17613198757E+008,  0.20396525431E+007,  0.19000000000E+002,  0.00000000000E+000,  0.10000000000E+001
  0.17613348757E+008,  0.20396036267E+007,  0.19000000000E+002,  0.00000000000E+000,  0.10000000000E+001
  0.17613498757E+008,  0.20395555462E+007,  0.19000000000E+002,  0.00000000000E+000,  0.10000000000E+001
  0.17613648757E+008,  0.20395082873E+007,  0.19000000000E+002,  0.00000000000E+000,  0.10000000000E+001
  0.17613798757E+008,  0.20394618359E+007,  0.19000000000E+002,  0.00000000000E+000,  0.10000000000E+001
  0.17613948757E+008,  0.20394161783E+007,  0.19000000000E+002,  0.00000000000E+000,  0.10000000000E+001
  0.17614098757E+008,  0.20393713009E+007,  0.19000000000E+002,  0.00000000000E+000,  0.10000000000E+001
  0.17614248757E+008,  0.20393271905E+007,  0.19000000000E+002,  0.00000000000E+000,  0.10000000000E+001
  0.17614398757E+008,  0.20392838338E+007,  0.19000000000E+002,  0.00000000000E+000,  0.10000000000E+001
  0.17614548757E+008,  0.20392412181E+007,  0.19000000000E+002,  0.00000000000E+000,  0.10000000000E+001
  0.17614698757E+008,  0.20391993306E+007,  0.19000000000E+002,  0.00000000000E+000,  0.10000000000E+001
  0.17614848757E+008,  0.20391581590E+007,  0.19000000000E+002,  0.00000000000E+000,  0.10000000000E+001
  0.17614998757E+008,  0.20391176909E+007,  0.19000000000E+002,  0.00000000000E+000,  0.10000000000E+001
  0.17615148757E+008,  0.20390779145E+007,  0.19000000000E+002,  0.00000000000E+000,  0.10000000000E+001
  0.17615298757E+008,  0.20390388178E+007,  0.19000000000E+002,  0.00000000000E+000,  0.10000000000E+001
  0.17615448757E+008,  0.20390003892E+007,  0.19000000000E+002,  0.00000000000E+000,  0.10000000000E+001
  0.17615598757E+008,  0.20389626174E+007,  0.19000000000E+002,  0.00000000000E+000,  0.10000000000E+001
  0.17615748757E+008,  0.20389254910E+007,  0.19000000000E+002,  0.00000000000E+000,  0.10000000000E+001
  0.17615898757E+008,  0.20388889991E+007,  0.19000000000E+002,  0.00000000000E+000,  0.10000000000E+001
  0.17616048757E+008,  0.20388531307E+007,  0.19000000000E+002,  0.00000000000E+000,  0.10000000000E+001
  0.17616198757E+008,  0.20388178753E+007,  0.19000000000E+002,  0.00000000000E+000,  0.10000000000E+001
  0.17616348757E+008,  0.20387832224E+007,  0.19000000000E+002,  0.00000000000E+000,  0.10000000000E+001
  0.17616498757E+008,  0.20387491615E+007,  0.19000000000E+002,  0.00000000000E+000,  0.10000000000E+001
  0.17616648757E+008,  0.20387156827E+007,  0.19000000000E+002,  0.00000000000E+000,  0.10000000000E+001
  0.17616798757E+008,  0.20386827760E+007,  0.19000000000E+002,  0.00000000000E+000,  0.10000000000E+001
  0.17616948757E+008,  0.20386504315E+007,  0.19000000000E+002,  0.00000000000E+000,  0.10000000000E+001
  0.17617098757E+008,  0.20386186398E+007,  0.19000000000E+002,  0.00000000000E+000,  0.10000000000E+001
  0.17617248757E+008,  0.20385873911E+007,  0.19000000000E+002,  0.00000000000E+000,  0.10000000000E+001
  0.17617398757E+008,  0.20385566765E+007,  0.19000000000E+002,  0.00000000000E+000,  0.10000000000E+001
  0.17617548757E+008,  0.20385264864E+007,  0.19000000000E+002,  0.00000000000E+000,  0.10000000000E+001
  0.17617698757E+008,  0.20384968123E+007,  0.19000000000E+002,  0.00000000000E+000,  0.10000000000E+001
  0.17617848757E+008,  0.20384676448E+007,  0.19000000000E+002,  0.00000000000E+000,  0.10000000000E+001
  0.17617998757E+008,  0.20384389758E+007,  0.19000000000E+002,  0.00000000000E+000,  0.10000000000E+001
  0.17618148757E+008,  0.20384107964E+007,  0.19000000000E+002,  0.00000000000E+000,  0.10000000000E+001
  0.17618298757E+008,  0.20383830985E+007,  0.19000000000E+002,  0.00000000000E+000,  0.10000000000E+001
  0.17618448757E+008,  0.20383558734E+007,  0.19000000000E+002,  0.00000000000E+000,  0.10000000000E+001
  0.17618598757E+008,  0.20383291136E+007,  0.19000000000E+002,  0.00000000000E+000,  0.10000000000E+001
  0.17618748757E+008,  0.20383028105E+007,  0.19000000000E+002,  0.00000000000E+000,  0.10000000000E+001
  0.17618898757E+008,  0.20382769569E+007,  0.19000000000E+002,  0.00000000000E+000,  0.10000000000E+001
