"           TIME(S)","              PRES","              TEMP","             SAT_G","             SAT_L"
  0.17592105000E+008,  0.21000000017E+007,  0.19000000000E+002,  0.10000000000E+001,  0.00000000000E+000
  0.17592130000E+008,  0.21000000102E+007,  0.19000000000E+002,  0.10000000000E+001,  0.00000000000E+000
  0.17592255000E+008,  0.21000000555E+007,  0.19000000000E+002,  0.10000000000E+001,  0.00000000000E+000
  0.17592405000E+008,  0.21000001126E+007,  0.19000000000E+002,  0.10000000000E+001,  0.00000000000E+000
  0.17592555000E+008,  0.21000001264E+007,  0.19000000000E+002,  0.10000000000E+001,  0.00000000000E+000
  0.17592705000E+008,  0.21000000376E+007,  0.19000000000E+002,  0.10000000000E+001,  0.00000000000E+000
  0.17592855000E+008,  0.20999997783E+007,  0.19000000000E+002,  0.10000000000E+001,  0.00000000000E+000
  0.17593005000E+008,  0.20999992691E+007,  0.19000000000E+002,  0.10000000000E+001,  0.00000000000E+000
  0.17593155000E+008,  0.20999984253E+007,  0.19000000000E+002,  0.10000000000E+001,  0.00000000000E+000
  0.17593305000E+008,  0.20999971632E+007,  0.19000000000E+002,  0.10000000000E+001,  0.00000000000E+000
  0.17593455000E+008,  0.20999954034E+007,  0.19000000000E+002,  0.10000000000E+001,  0.00000000000E+000
  0.17593605000E+008,  0.20999930721E+007,  0.19000000000E+002,  0.10000000000E+001,  0.00000000000E+000
  0.17593755000E+008,  0.20999901018E+007,  0.19000000000E+002,  0.10000000000E+001,  0.00000000000E+000
  0.17593905000E+008,  0.20999864311E+007,  0.19000000000E+002,  0.10000000000E+001,  0.00000000000E+000
  0.17594055000E+008,  0.20999820048E+007,  0.19000000000E+002,  0.10000000000E+001,  0.00000000000E+000
  0.17594205000E+008,  0.20999767739E+007,  0.19000000000E+002,  0.10000000000E+001,  0.00000000000E+000
  0.17594355000E+008,  0.20999706957E+007,  0.19000000000E+002,  0.10000000000E+001,  0.00000000000E+000
  0.17594505000E+008,  0.20999637330E+007,  0.19000000000E+002,  0.10000000000E+001,  0.00000000000E+000
  0.17594655000E+008,  0.20999558540E+007,  0.19000000000E+002,  0.10000000000E+001,  0.00000000000E+000
  0.17594805000E+008,  0.20999470318E+007,  0.19000000000E+002,  0.10000000000E+001,  0.00000000000E+000
  0.17594955000E+008,  0.20999372440E+007,  0.19000000000E+002,  0.10000000000E+001,  0.00000000000E+000
  0.17595105000E+008,  0.20999264727E+007,  0.19000000000E+002,  0.10000000000E+001,  0.00000000000E+000
  0.17595255000E+008,  0.20999146956E+007,  0.19000000000E+002,  0.10000000000E+001,  0.00000000000E+000
  0.17595330000E+008,  0.20999085588E+007,  0.19000000000E+002,  0.10000000000E+001,  0.00000000000E+000
  0.17595480000E+008,  0.20998953323E+007,  0.19000000000E+002,  0.10000000000E+001,  0.00000000000E+000
  0.17595555001E+008,  0.20998884380E+007,  0.19000000000E+002,  0.10000000000E+001,  0.00000000000E+000
  0.17595592501E+008,  0.20998849137E+007,  0.19000000000E+002,  0.10000000000E+001,  0.00000000000E+000
  0.17595742501E+008,  0.20998701280E+007,  0.19000000000E+002,  0.10000000000E+001,  0.00000000000E+000
  0.17595817502E+008,  0.20998625323E+007,  0.19000000000E+002,  0.10000000000E+001,  0.00000000000E+000
  0.17595855002E+008,  0.20998586730E+007,  0.19000000000E+002,  0.10000000000E+001,  0.00000000000E+000
  0.17596005002E+008,  0.20998421313E+007,  0.19000000000E+002,  0.10000000000E+001,  0.00000000000E+000
  0.17596080003E+008,  0.20998335636E+007,  0.19000000000E+002,  0.10000000000E+001,  0.00000000000E+000
  0.17596117503E+008,  0.20998292267E+007,  0.19000000000E+002,  0.10000000000E+001,  0.00000000000E+000
  0.17596136254E+008,  0.20998270362E+007,  0.19000000000E+002,  0.10000000000E+001,  0.00000000000E+000
  0.17596230005E+008,  0.20998157969E+007,  0.19000000000E+002,  0.10000000000E+001,  0.00000000000E+000
  0.17596276882E+008,  0.20998098196E+007,  0.19000000000E+002,  0.10000000000E+001,  0.00000000000E+000
  0.17596426882E+008,  0.20997959899E+007,  0.19000000000E+002,  0.10000000000E+001,  0.00000000000E+000
  0.17596501882E+008,  0.20998046056E+007,  0.19000000000E+002,  0.10000000000E+001,  0.00000000000E+000
  0.17596651882E+008,  0.20998139203E+007,  0.19000000000E+002,  0.10000000000E+001,  0.00000000000E+000
  0.17596801882E+008,  0.20998191959E+007,  0.19000000000E+002,  0.10000000000E+001,  0.00000000000E+000
  0.17596951882E+008,  0.20998223014E+007,  0.19000000000E+002,  0.10000000000E+001,  0.00000000000E+000
  0.17597101882E+008,  0.20998241758E+007,  0.19000000000E+002,  0.10000000000E+001,  0.00000000000E+000
  0.17597251882E+008,  0.20998253238E+007,  0.19000000000E+002,  0.10000000000E+001,  0.00000000000E+000
  0.17597401882E+008,  0.20998260328E+007,  0.19000000000E+002,  0.10000000000E+001,  0.00000000000E+000
  0.17597551882E+008,  0.20998264727E+007,  0.19000000000E+002,  0.10000000000E+001,  0.00000000000E+000
  0.17597701882E+008,  0.20998267462E+007,  0.19000000000E+002,  0.10000000000E+001,  0.00000000000E+000
  0.17597851882E+008,  0.20998269165E+007,  0.19000000000E+002,  0.10000000000E+001,  0.00000000000E+000
  0.17598001882E+008,  0.20998270226E+007,  0.19000000000E+002,  0.10000000000E+001,  0.00000000000E+000
  0.17598151882E+008,  0.20998270887E+007,  0.19000000000E+002,  0.10000000000E+001,  0.00000000000E+000
  0.17598301882E+008,  0.20998271298E+007,  0.19000000000E+002,  0.10000000000E+001,  0.00000000000E+000
  0.17598451882E+008,  0.20998271553E+007,  0.19000000000E+002,  0.10000000000E+001,  0.00000000000E+000
  0.17598601882E+008,  0.20998271711E+007,  0.19000000000E+002,  0.10000000000E+001,  0.00000000000E+000
  0.17598751882E+008,  0.20998271808E+007,  0.19000000000E+002,  0.10000000000E+001,  0.00000000000E+000
  0.17598901882E+008,  0.20998271867E+007,  0.19000000000E+002,  0.10000000000E+001,  0.00000000000E+000
  0.17599051882E+008,  0.20998271903E+007,  0.19000000000E+002,  0.10000000000E+001,  0.00000000000E+000
  0.17599201882E+008,  0.20998271923E+007,  0.19000000000E+002,  0.10000000000E+001,  0.00000000000E+000
  0.17599351882E+008,  0.20998271935E+007,  0.19000000000E+002,  0.10000000000E+001,  0.00000000000E+000
  0.17599501882E+008,  0.20998271941E+007,  0.19000000000E+002,  0.10000000000E+001,  0.00000000000E+000
  0.17599651882E+008,  0.20998271943E+007,  0.19000000000E+002,  0.10000000000E+001,  0.00000000000E+000
  0.17599801882E+008,  0.20998271943E+007,  0.19000000000E+002,  0.10000000000E+001,  0.00000000000E+000
  0.17599951882E+008,  0.20998271941E+007,  0.19000000000E+002,  0.10000000000E+001,  0.00000000000E+000
  0.17600101882E+008,  0.20998271939E+007,  0.19000000000E+002,  0.10000000000E+001,  0.00000000000E+000
  0.17600251882E+008,  0.20998271937E+007,  0.19000000000E+002,  0.10000000000E+001,  0.00000000000E+000
  0.17600401882E+008,  0.20998271934E+007,  0.19000000000E+002,  0.10000000000E+001,  0.00000000000E+000
  0.17600551882E+008,  0.20998271931E+007,  0.19000000000E+002,  0.10000000000E+001,  0.00000000000E+000
  0.17600701882E+008,  0.20998271927E+007,  0.19000000000E+002,  0.10000000000E+001,  0.00000000000E+000
  0.17600851882E+008,  0.20998271924E+007,  0.19000000000E+002,  0.10000000000E+001,  0.00000000000E+000
  0.17601001882E+008,  0.20998271921E+007,  0.19000000000E+002,  0.10000000000E+001,  0.00000000000E+000
  0.17601151882E+008,  0.20998271918E+007,  0.19000000000E+002,  0.10000000000E+001,  0.00000000000E+000
  0.17601301882E+008,  0.20998271915E+007,  0.19000000000E+002,  0.10000000000E+001,  0.00000000000E+000
  0.17601451882E+008,  0.20998271912E+007,  0.19000000000E+002,  0.10000000000E+001,  0.00000000000E+000
  0.17601601882E+008,  0.20998271909E+007,  0.19000000000E+002,  0.10000000000E+001,  0.00000000000E+000
  0.17601751882E+008,  0.20998271906E+007,  0.19000000000E+002,  0.10000000000E+001,  0.00000000000E+000
  0.17601901882E+008,  0.20998271903E+007,  0.19000000000E+002,  0.10000000000E+001,  0.00000000000E+000
  0.17602051882E+008,  0.20998271900E+007,  0.19000000000E+002,  0.10000000000E+001,  0.00000000000E+000
  0.17602201882E+008,  0.20998271897E+007,  0.19000000000E+002,  0.10000000000E+001,  0.00000000000E+000
  0.17602351882E+008,  0.20998271894E+007,  0.19000000000E+002,  0.10000000000E+001,  0.00000000000E+000
  0.17602501882E+008,  0.20998271891E+007,  0.19000000000E+002,  0.10000000000E+001,  0.00000000000E+000
  0.17602651882E+008,  0.20998271888E+007,  0.19000000000E+002,  0.10000000000E+001,  0.00000000000E+000
  0.17602801882E+008,  0.20998271885E+007,  0.19000000000E+002,  0.10000000000E+001,  0.00000000000E+000
  0.17602951882E+008,  0.20998271883E+007,  0.19000000000E+002,  0.10000000000E+001,  0.00000000000E+000
  0.17603101882E+008,  0.20998271880E+007,  0.19000000000E+002,  0.10000000000E+001,  0.00000000000E+000
  0.17603251882E+008,  0.20998271877E+007,  0.19000000000E+002,  0.10000000000E+001,  0.00000000000E+000
  0.17603401882E+008,  0.20998271874E+007,  0.19000000000E+002,  0.10000000000E+001,  0.00000000000E+000
  0.17603551882E+008,  0.20998271872E+007,  0.19000000000E+002,  0.10000000000E+001,  0.00000000000E+000
  0.17603701882E+008,  0.20998271869E+007,  0.19000000000E+002,  0.10000000000E+001,  0.00000000000E+000
  0.17603851882E+008,  0.20998271867E+007,  0.19000000000E+002,  0.10000000000E+001,  0.00000000000E+000
  0.17604001882E+008,  0.20998271864E+007,  0.19000000000E+002,  0.10000000000E+001,  0.00000000000E+000
  0.17604151882E+008,  0.20998271862E+007,  0.19000000000E+002,  0.10000000000E+001,  0.00000000000E+000
  0.17604301882E+008,  0.20998271859E+007,  0.19000000000E+002,  0.10000000000E+001,  0.00000000000E+000
  0.17604451882E+008,  0.20998271857E+007,  0.19000000000E+002,  0.10000000000E+001,  0.00000000000E+000
  0.17604601882E+008,  0.20998271854E+007,  0.19000000000E+002,  0.10000000000E+001,  0.00000000000E+000
  0.17604751882E+008,  0.20998271852E+007,  0.19000000000E+002,  0.10000000000E+001,  0.00000000000E+000
  0.17604901882E+008,  0.20998271849E+007,  0.19000000000E+002,  0.10000000000E+001,  0.00000000000E+000
  0.17605051882E+008,  0.20998271847E+007,  0.19000000000E+002,  0.10000000000E+001,  0.00000000000E+000
  0.17605201882E+008,  0.20998271844E+007,  0.19000000000E+002,  0.10000000000E+001,  0.00000000000E+000
  0.17605351882E+008,  0.20998271842E+007,  0.19000000000E+002,  0.10000000000E+001,  0.00000000000E+000
  0.17605501882E+008,  0.20998271840E+007,  0.19000000000E+002,  0.10000000000E+001,  0.00000000000E+000
  0.17605651882E+008,  0.20998271837E+007,  0.19000000000E+002,  0.10000000000E+001,  0.00000000000E+000
  0.17605801882E+008,  0.20998271835E+007,  0.19000000000E+002,  0.10000000000E+001,  0.00000000000E+000
  0.17605951882E+008,  0.20998271833E+007,  0.19000000000E+002,  0.10000000000E+001,  0.00000000000E+000
  0.17606101882E+008,  0.20998271831E+007,  0.19000000000E+002,  0.10000000000E+001,  0.00000000000E+000
  0.17606251882E+008,  0.20998271828E+007,  0.19000000000E+002,  0.10000000000E+001,  0.00000000000E+000
  0.17606401882E+008,  0.20998271826E+007,  0.19000000000E+002,  0.10000000000E+001,  0.00000000000E+000
  0.17606551882E+008,  0.20998271824E+007,  0.19000000000E+002,  0.10000000000E+001,  0.00000000000E+000
  0.17606701882E+008,  0.20998271822E+007,  0.19000000000E+002,  0.10000000000E+001,  0.00000000000E+000
  0.17606851882E+008,  0.20998271820E+007,  0.19000000000E+002,  0.10000000000E+001,  0.00000000000E+000
  0.17607001882E+008,  0.20998271818E+007,  0.19000000000E+002,  0.10000000000E+001,  0.00000000000E+000
  0.17607151882E+008,  0.20998271816E+007,  0.19000000000E+002,  0.10000000000E+001,  0.00000000000E+000
  0.17607301882E+008,  0.20998271813E+007,  0.19000000000E+002,  0.10000000000E+001,  0.00000000000E+000
  0.17607451882E+008,  0.20998271811E+007,  0.19000000000E+002,  0.10000000000E+001,  0.00000000000E+000
  0.17607601882E+008,  0.20998271809E+007,  0.19000000000E+002,  0.10000000000E+001,  0.00000000000E+000
  0.17607751882E+008,  0.20998271807E+007,  0.19000000000E+002,  0.10000000000E+001,  0.00000000000E+000
  0.17607901882E+008,  0.20998271805E+007,  0.19000000000E+002,  0.10000000000E+001,  0.00000000000E+000
  0.17608051882E+008,  0.20998271803E+007,  0.19000000000E+002,  0.10000000000E+001,  0.00000000000E+000
  0.17608201882E+008,  0.20998271801E+007,  0.19000000000E+002,  0.10000000000E+001,  0.00000000000E+000
  0.17608351882E+008,  0.20998271799E+007,  0.19000000000E+002,  0.10000000000E+001,  0.00000000000E+000
  0.17608501882E+008,  0.20998271797E+007,  0.19000000000E+002,  0.10000000000E+001,  0.00000000000E+000
  0.17608651882E+008,  0.20998271795E+007,  0.19000000000E+002,  0.10000000000E+001,  0.00000000000E+000
  0.17608801882E+008,  0.20998271793E+007,  0.19000000000E+002,  0.10000000000E+001,  0.00000000000E+000
  0.17608951882E+008,  0.20998271792E+007,  0.19000000000E+002,  0.10000000000E+001,  0.00000000000E+000
  0.17609101882E+008,  0.20998271790E+007,  0.19000000000E+002,  0.10000000000E+001,  0.00000000000E+000
  0.17609251882E+008,  0.20998271788E+007,  0.19000000000E+002,  0.10000000000E+001,  0.00000000000E+000
  0.17609401882E+008,  0.20998271786E+007,  0.19000000000E+002,  0.10000000000E+001,  0.00000000000E+000
  0.17609551882E+008,  0.20998271784E+007,  0.19000000000E+002,  0.10000000000E+001,  0.00000000000E+000
  0.17609701882E+008,  0.20998271782E+007,  0.19000000000E+002,  0.10000000000E+001,  0.00000000000E+000
  0.17609851882E+008,  0.20998271780E+007,  0.19000000000E+002,  0.10000000000E+001,  0.00000000000E+000
  0.17610001882E+008,  0.20998271779E+007,  0.19000000000E+002,  0.10000000000E+001,  0.00000000000E+000
  0.17610151882E+008,  0.20998271777E+007,  0.19000000000E+002,  0.10000000000E+001,  0.00000000000E+000
  0.17610301882E+008,  0.20998271775E+007,  0.19000000000E+002,  0.10000000000E+001,  0.00000000000E+000
  0.17610451882E+008,  0.20998271773E+007,  0.19000000000E+002,  0.10000000000E+001,  0.00000000000E+000
  0.17610601882E+008,  0.20998271772E+007,  0.19000000000E+002,  0.10000000000E+001,  0.00000000000E+000
  0.17610751882E+008,  0.20998271770E+007,  0.19000000000E+002,  0.10000000000E+001,  0.00000000000E+000
  0.17610901882E+008,  0.20998271768E+007,  0.19000000000E+002,  0.10000000000E+001,  0.00000000000E+000
  0.17611051882E+008,  0.20998271766E+007,  0.19000000000E+002,  0.10000000000E+001,  0.00000000000E+000
  0.17611201882E+008,  0.20998271765E+007,  0.19000000000E+002,  0.10000000000E+001,  0.00000000000E+000
  0.17611351882E+008,  0.20998271763E+007,  0.19000000000E+002,  0.10000000000E+001,  0.00000000000E+000
  0.17611501882E+008,  0.20998271761E+007,  0.19000000000E+002,  0.10000000000E+001,  0.00000000000E+000
  0.17611651882E+008,  0.20998271760E+007,  0.19000000000E+002,  0.10000000000E+001,  0.00000000000E+000
  0.17611801882E+008,  0.20998271758E+007,  0.19000000000E+002,  0.10000000000E+001,  0.00000000000E+000
  0.17611951882E+008,  0.20998271757E+007,  0.19000000000E+002,  0.10000000000E+001,  0.00000000000E+000
  0.17612101882E+008,  0.20998271755E+007,  0.19000000000E+002,  0.10000000000E+001,  0.00000000000E+000
  0.17612251882E+008,  0.20998271753E+007,  0.19000000000E+002,  0.10000000000E+001,  0.00000000000E+000
  0.17612401882E+008,  0.20998271752E+007,  0.19000000000E+002,  0.10000000000E+001,  0.00000000000E+000
  0.17612551882E+008,  0.20998271750E+007,  0.19000000000E+002,  0.10000000000E+001,  0.00000000000E+000
  0.17612701882E+008,  0.20998271749E+007,  0.19000000000E+002,  0.10000000000E+001,  0.00000000000E+000
  0.17612851882E+008,  0.20998271747E+007,  0.19000000000E+002,  0.10000000000E+001,  0.00000000000E+000
  0.17613001882E+008,  0.20998271746E+007,  0.19000000000E+002,  0.10000000000E+001,  0.00000000000E+000
  0.17613151882E+008,  0.20998271744E+007,  0.19000000000E+002,  0.10000000000E+001,  0.00000000000E+000
  0.17613301882E+008,  0.20998271743E+007,  0.19000000000E+002,  0.10000000000E+001,  0.00000000000E+000
  0.17613451882E+008,  0.20998271741E+007,  0.19000000000E+002,  0.10000000000E+001,  0.00000000000E+000
  0.17613601882E+008,  0.20998271740E+007,  0.19000000000E+002,  0.10000000000E+001,  0.00000000000E+000
  0.17613751882E+008,  0.20998271738E+007,  0.19000000000E+002,  0.10000000000E+001,  0.00000000000E+000
  0.17613901882E+008,  0.20998271737E+007,  0.19000000000E+002,  0.10000000000E+001,  0.00000000000E+000
  0.17614051882E+008,  0.20998271735E+007,  0.19000000000E+002,  0.10000000000E+001,  0.00000000000E+000
  0.17614201882E+008,  0.20998271734E+007,  0.19000000000E+002,  0.10000000000E+001,  0.00000000000E+000
  0.17614351882E+008,  0.20998271732E+007,  0.19000000000E+002,  0.10000000000E+001,  0.00000000000E+000
  0.17614501882E+008,  0.20998271731E+007,  0.19000000000E+002,  0.10000000000E+001,  0.00000000000E+000
  0.17614651882E+008,  0.20998271729E+007,  0.19000000000E+002,  0.10000000000E+001,  0.00000000000E+000
  0.17614801882E+008,  0.20998271728E+007,  0.19000000000E+002,  0.10000000000E+001,  0.00000000000E+000
  0.17614951882E+008,  0.20998271727E+007,  0.19000000000E+002,  0.10000000000E+001,  0.00000000000E+000
  0.17615101882E+008,  0.20998271725E+007,  0.19000000000E+002,  0.10000000000E+001,  0.00000000000E+000
  0.17615251882E+008,  0.20998271724E+007,  0.19000000000E+002,  0.10000000000E+001,  0.00000000000E+000
  0.17615401882E+008,  0.20998271723E+007,  0.19000000000E+002,  0.10000000000E+001,  0.00000000000E+000
  0.17615551882E+008,  0.20998271721E+007,  0.19000000000E+002,  0.10000000000E+001,  0.00000000000E+000
  0.17615701882E+008,  0.20998271720E+007,  0.19000000000E+002,  0.10000000000E+001,  0.00000000000E+000
  0.17615851882E+008,  0.20998271719E+007,  0.19000000000E+002,  0.10000000000E+001,  0.00000000000E+000
  0.17616001882E+008,  0.20998271717E+007,  0.19000000000E+002,  0.10000000000E+001,  0.00000000000E+000
  0.17616151882E+008,  0.20998271716E+007,  0.19000000000E+002,  0.10000000000E+001,  0.00000000000E+000
  0.17616301882E+008,  0.20998271715E+007,  0.19000000000E+002,  0.10000000000E+001,  0.00000000000E+000
  0.17616451882E+008,  0.20998271713E+007,  0.19000000000E+002,  0.10000000000E+001,  0.00000000000E+000
  0.17616601882E+008,  0.20998271712E+007,  0.19000000000E+002,  0.10000000000E+001,  0.00000000000E+000
  0.17616751882E+008,  0.20998271711E+007,  0.19000000000E+002,  0.10000000000E+001,  0.00000000000E+000
  0.17616901882E+008,  0.20998271709E+007,  0.19000000000E+002,  0.10000000000E+001,  0.00000000000E+000
  0.17617051882E+008,  0.20998271708E+007,  0.19000000000E+002,  0.10000000000E+001,  0.00000000000E+000
  0.17617201882E+008,  0.20998271707E+007,  0.19000000000E+002,  0.10000000000E+001,  0.00000000000E+000
  0.17617351882E+008,  0.20998271706E+007,  0.19000000000E+002,  0.10000000000E+001,  0.00000000000E+000
  0.17617501882E+008,  0.20998271705E+007,  0.19000000000E+002,  0.10000000000E+001,  0.00000000000E+000
  0.17617651882E+008,  0.20998271703E+007,  0.19000000000E+002,  0.10000000000E+001,  0.00000000000E+000
  0.17617801882E+008,  0.20998271702E+007,  0.19000000000E+002,  0.10000000000E+001,  0.00000000000E+000
  0.17617951882E+008,  0.20998271701E+007,  0.19000000000E+002,  0.10000000000E+001,  0.00000000000E+000
  0.17618101882E+008,  0.20998271700E+007,  0.19000000000E+002,  0.10000000000E+001,  0.00000000000E+000
  0.17618251882E+008,  0.20998271699E+007,  0.19000000000E+002,  0.10000000000E+001,  0.00000000000E+000
  0.17618401882E+008,  0.20998271697E+007,  0.19000000000E+002,  0.10000000000E+001,  0.00000000000E+000
  0.17618551882E+008,  0.20998271696E+007,  0.19000000000E+002,  0.10000000000E+001,  0.00000000000E+000
  0.17618701882E+008,  0.20998271695E+007,  0.19000000000E+002,  0.10000000000E+001,  0.00000000000E+000
  0.17618851882E+008,  0.20998271694E+007,  0.19000000000E+002,  0.10000000000E+001,  0.00000000000E+000
  0.17619001882E+008,  0.20998271693E+007,  0.19000000000E+002,  0.10000000000E+001,  0.00000000000E+000
  0.17619151882E+008,  0.20998271692E+007,  0.19000000000E+002,  0.10000000000E+001,  0.00000000000E+000
