"           TIME(S)","              PRES","              TEMP","             SAT_G","             SAT_L"
  0.17592105000E+008,  0.21000000000E+007,  0.19000000000E+002,  0.00000000000E+000,  0.10000000000E+001
  0.17592130000E+008,  0.20999988304E+007,  0.19000000000E+002,  0.00000000000E+000,  0.10000000000E+001
  0.17592255000E+008,  0.20996447673E+007,  0.19000000000E+002,  0.00000000000E+000,  0.10000000000E+001
  0.17592405000E+008,  0.20987328257E+007,  0.19000000000E+002,  0.00000000000E+000,  0.10000000000E+001
  0.17592555000E+008,  0.20975739613E+007,  0.19000000000E+002,  0.00000000000E+000,  0.10000000000E+001
  0.17592705000E+008,  0.20963648379E+007,  0.19000000000E+002,  0.00000000000E+000,  0.10000000000E+001
  0.17592855000E+008,  0.20952080851E+007,  0.19000000000E+002,  0.00000000000E+000,  0.10000000000E+001
  0.17593005000E+008,  0.20941404815E+007,  0.19000000000E+002,  0.00000000000E+000,  0.10000000000E+001
  0.17593155000E+008,  0.20931653403E+007,  0.19000000000E+002,  0.00000000000E+000,  0.10000000000E+001
  0.17593305000E+008,  0.20922726061E+007,  0.19000000000E+002,  0.00000000000E+000,  0.10000000000E+001
  0.17593455000E+008,  0.20914487888E+007,  0.19000000000E+002,  0.00000000000E+000,  0.10000000000E+001
  0.17593605000E+008,  0.20906811221E+007,  0.19000000000E+002,  0.00000000000E+000,  0.10000000000E+001
  0.17593755000E+008,  0.20899589269E+007,  0.19000000000E+002,  0.00000000000E+000,  0.10000000000E+001
  0.17593905000E+008,  0.20892737719E+007,  0.19000000000E+002,  0.00000000000E+000,  0.10000000000E+001
  0.17594055000E+008,  0.20886191917E+007,  0.19000000000E+002,  0.00000000000E+000,  0.10000000000E+001
  0.17594205000E+008,  0.20879902962E+007,  0.19000000000E+002,  0.00000000000E+000,  0.10000000000E+001
  0.17594355000E+008,  0.20873834005E+007,  0.19000000000E+002,  0.00000000000E+000,  0.10000000000E+001
  0.17594505000E+008,  0.20867957200E+007,  0.19000000000E+002,  0.00000000000E+000,  0.10000000000E+001
  0.17594655000E+008,  0.20862251329E+007,  0.19000000000E+002,  0.00000000000E+000,  0.10000000000E+001
  0.17594805000E+008,  0.20856700025E+007,  0.19000000000E+002,  0.00000000000E+000,  0.10000000000E+001
  0.17594955000E+008,  0.20851290465E+007,  0.19000000000E+002,  0.00000000000E+000,  0.10000000000E+001
  0.17595105000E+008,  0.20846012420E+007,  0.19000000000E+002,  0.00000000000E+000,  0.10000000000E+001
  0.17595255000E+008,  0.20840855622E+007,  0.19000000000E+002,  0.00000000000E+000,  0.10000000000E+001
  0.17595330000E+008,  0.20838306228E+007,  0.19000000000E+002,  0.00000000000E+000,  0.10000000000E+001
  0.17595480000E+008,  0.20833313738E+007,  0.19000000000E+002,  0.00000000000E+000,  0.10000000000E+001
  0.17595555001E+008,  0.20830842386E+007,  0.19000000000E+002,  0.00000000000E+000,  0.10000000000E+001
  0.17595592501E+008,  0.20829612674E+007,  0.19000000000E+002,  0.00000000000E+000,  0.10000000000E+001
  0.17595742501E+008,  0.20824774992E+007,  0.19000000000E+002,  0.00000000000E+000,  0.10000000000E+001
  0.17595817502E+008,  0.20822374563E+007,  0.19000000000E+002,  0.00000000000E+000,  0.10000000000E+001
  0.17595855002E+008,  0.20821178690E+007,  0.19000000000E+002,  0.00000000000E+000,  0.10000000000E+001
  0.17596005002E+008,  0.20816442460E+007,  0.19000000000E+002,  0.00000000000E+000,  0.10000000000E+001
  0.17596080003E+008,  0.20814083030E+007,  0.19000000000E+002,  0.00000000000E+000,  0.10000000000E+001
  0.17596117503E+008,  0.20812905085E+007,  0.19000000000E+002,  0.00000000000E+000,  0.10000000000E+001
  0.17596136254E+008,  0.20812316502E+007,  0.19000000000E+002,  0.00000000000E+000,  0.10000000000E+001
  0.17596230005E+008,  0.20809378451E+007,  0.19000000000E+002,  0.00000000000E+000,  0.10000000000E+001
  0.17596276882E+008,  0.20807910062E+007,  0.19000000000E+002,  0.00000000000E+000,  0.10000000000E+001
  0.17596426882E+008,  0.20803190087E+007,  0.19000000000E+002,  0.00000000000E+000,  0.10000000000E+001
  0.17596501882E+008,  0.20800819282E+007,  0.19000000000E+002,  0.00000000000E+000,  0.10000000000E+001
  0.17596651882E+008,  0.20796014414E+007,  0.19000000000E+002,  0.00000000000E+000,  0.10000000000E+001
  0.17596801882E+008,  0.20791161059E+007,  0.19000000000E+002,  0.00000000000E+000,  0.10000000000E+001
  0.17596951882E+008,  0.20786288022E+007,  0.19000000000E+002,  0.00000000000E+000,  0.10000000000E+001
  0.17597101882E+008,  0.20781421395E+007,  0.19000000000E+002,  0.00000000000E+000,  0.10000000000E+001
  0.17597251882E+008,  0.20776578896E+007,  0.19000000000E+002,  0.00000000000E+000,  0.10000000000E+001
  0.17597401882E+008,  0.20771770406E+007,  0.19000000000E+002,  0.00000000000E+000,  0.10000000000E+001
  0.17597551882E+008,  0.20767000325E+007,  0.19000000000E+002,  0.00000000000E+000,  0.10000000000E+001
  0.17597701882E+008,  0.20762269779E+007,  0.19000000000E+002,  0.00000000000E+000,  0.10000000000E+001
  0.17597851882E+008,  0.20757578170E+007,  0.19000000000E+002,  0.00000000000E+000,  0.10000000000E+001
  0.17598001882E+008,  0.20752924137E+007,  0.19000000000E+002,  0.00000000000E+000,  0.10000000000E+001
  0.17598151882E+008,  0.20748306083E+007,  0.19000000000E+002,  0.00000000000E+000,  0.10000000000E+001
  0.17598301882E+008,  0.20743722455E+007,  0.19000000000E+002,  0.00000000000E+000,  0.10000000000E+001
  0.17598451882E+008,  0.20739171854E+007,  0.19000000000E+002,  0.00000000000E+000,  0.10000000000E+001
  0.17598601882E+008,  0.20734653081E+007,  0.19000000000E+002,  0.00000000000E+000,  0.10000000000E+001
  0.17598751882E+008,  0.20730165129E+007,  0.19000000000E+002,  0.00000000000E+000,  0.10000000000E+001
  0.17598901882E+008,  0.20725707163E+007,  0.19000000000E+002,  0.00000000000E+000,  0.10000000000E+001
  0.17599051882E+008,  0.20721278492E+007,  0.19000000000E+002,  0.00000000000E+000,  0.10000000000E+001
  0.17599201882E+008,  0.20716878545E+007,  0.19000000000E+002,  0.00000000000E+000,  0.10000000000E+001
  0.17599351882E+008,  0.20712506842E+007,  0.19000000000E+002,  0.00000000000E+000,  0.10000000000E+001
  0.17599501882E+008,  0.20708162976E+007,  0.19000000000E+002,  0.00000000000E+000,  0.10000000000E+001
  0.17599651882E+008,  0.20703846598E+007,  0.19000000000E+002,  0.00000000000E+000,  0.10000000000E+001
  0.17599801882E+008,  0.20699557402E+007,  0.19000000000E+002,  0.00000000000E+000,  0.10000000000E+001
  0.17599951882E+008,  0.20695295118E+007,  0.19000000000E+002,  0.00000000000E+000,  0.10000000000E+001
  0.17600101882E+008,  0.20691059498E+007,  0.19000000000E+002,  0.00000000000E+000,  0.10000000000E+001
  0.17600251882E+008,  0.20686850317E+007,  0.19000000000E+002,  0.00000000000E+000,  0.10000000000E+001
  0.17600401882E+008,  0.20682667363E+007,  0.19000000000E+002,  0.00000000000E+000,  0.10000000000E+001
  0.17600551882E+008,  0.20678510437E+007,  0.19000000000E+002,  0.00000000000E+000,  0.10000000000E+001
  0.17600701882E+008,  0.20674379349E+007,  0.19000000000E+002,  0.00000000000E+000,  0.10000000000E+001
  0.17600851882E+008,  0.20670273917E+007,  0.19000000000E+002,  0.00000000000E+000,  0.10000000000E+001
  0.17601001882E+008,  0.20666193963E+007,  0.19000000000E+002,  0.00000000000E+000,  0.10000000000E+001
  0.17601151882E+008,  0.20662139315E+007,  0.19000000000E+002,  0.00000000000E+000,  0.10000000000E+001
  0.17601301882E+008,  0.20658109804E+007,  0.19000000000E+002,  0.00000000000E+000,  0.10000000000E+001
  0.17601451882E+008,  0.20654105266E+007,  0.19000000000E+002,  0.00000000000E+000,  0.10000000000E+001
  0.17601601882E+008,  0.20650125538E+007,  0.19000000000E+002,  0.00000000000E+000,  0.10000000000E+001
  0.17601751882E+008,  0.20646170459E+007,  0.19000000000E+002,  0.00000000000E+000,  0.10000000000E+001
  0.17601901882E+008,  0.20642239872E+007,  0.19000000000E+002,  0.00000000000E+000,  0.10000000000E+001
  0.17602051882E+008,  0.20638333621E+007,  0.19000000000E+002,  0.00000000000E+000,  0.10000000000E+001
  0.17602201882E+008,  0.20634451550E+007,  0.19000000000E+002,  0.00000000000E+000,  0.10000000000E+001
  0.17602351882E+008,  0.20630593507E+007,  0.19000000000E+002,  0.00000000000E+000,  0.10000000000E+001
  0.17602501882E+008,  0.20626759340E+007,  0.19000000000E+002,  0.00000000000E+000,  0.10000000000E+001
  0.17602651882E+008,  0.20622948899E+007,  0.19000000000E+002,  0.00000000000E+000,  0.10000000000E+001
  0.17602801882E+008,  0.20619162035E+007,  0.19000000000E+002,  0.00000000000E+000,  0.10000000000E+001
  0.17602951882E+008,  0.20615398600E+007,  0.19000000000E+002,  0.00000000000E+000,  0.10000000000E+001
  0.17603101882E+008,  0.20611658448E+007,  0.19000000000E+002,  0.00000000000E+000,  0.10000000000E+001
  0.17603251882E+008,  0.20607941433E+007,  0.19000000000E+002,  0.00000000000E+000,  0.10000000000E+001
  0.17603401882E+008,  0.20604247412E+007,  0.19000000000E+002,  0.00000000000E+000,  0.10000000000E+001
  0.17603551882E+008,  0.20600576240E+007,  0.19000000000E+002,  0.00000000000E+000,  0.10000000000E+001
  0.17603701882E+008,  0.20596927775E+007,  0.19000000000E+002,  0.00000000000E+000,  0.10000000000E+001
  0.17603851882E+008,  0.20593301877E+007,  0.19000000000E+002,  0.00000000000E+000,  0.10000000000E+001
  0.17604001882E+008,  0.20589698404E+007,  0.19000000000E+002,  0.00000000000E+000,  0.10000000000E+001
  0.17604151882E+008,  0.20586117218E+007,  0.19000000000E+002,  0.00000000000E+000,  0.10000000000E+001
  0.17604301882E+008,  0.20582558181E+007,  0.19000000000E+002,  0.00000000000E+000,  0.10000000000E+001
  0.17604451882E+008,  0.20579021154E+007,  0.19000000000E+002,  0.00000000000E+000,  0.10000000000E+001
  0.17604601882E+008,  0.20575506002E+007,  0.19000000000E+002,  0.00000000000E+000,  0.10000000000E+001
  0.17604751882E+008,  0.20572012588E+007,  0.19000000000E+002,  0.00000000000E+000,  0.10000000000E+001
  0.17604901882E+008,  0.20568540779E+007,  0.19000000000E+002,  0.00000000000E+000,  0.10000000000E+001
  0.17605051882E+008,  0.20565090440E+007,  0.19000000000E+002,  0.00000000000E+000,  0.10000000000E+001
  0.17605201882E+008,  0.20561661438E+007,  0.19000000000E+002,  0.00000000000E+000,  0.10000000000E+001
  0.17605351882E+008,  0.20558253641E+007,  0.19000000000E+002,  0.00000000000E+000,  0.10000000000E+001
  0.17605501882E+008,  0.20554866918E+007,  0.19000000000E+002,  0.00000000000E+000,  0.10000000000E+001
  0.17605651882E+008,  0.20551501139E+007,  0.19000000000E+002,  0.00000000000E+000,  0.10000000000E+001
  0.17605801882E+008,  0.20548156174E+007,  0.19000000000E+002,  0.00000000000E+000,  0.10000000000E+001
  0.17605951882E+008,  0.20544831894E+007,  0.19000000000E+002,  0.00000000000E+000,  0.10000000000E+001
  0.17606101882E+008,  0.20541528171E+007,  0.19000000000E+002,  0.00000000000E+000,  0.10000000000E+001
  0.17606251882E+008,  0.20538244878E+007,  0.19000000000E+002,  0.00000000000E+000,  0.10000000000E+001
  0.17606401882E+008,  0.20534981890E+007,  0.19000000000E+002,  0.00000000000E+000,  0.10000000000E+001
  0.17606551882E+008,  0.20531739079E+007,  0.19000000000E+002,  0.00000000000E+000,  0.10000000000E+001
  0.17606701882E+008,  0.20528516322E+007,  0.19000000000E+002,  0.00000000000E+000,  0.10000000000E+001
  0.17606851882E+008,  0.20525313495E+007,  0.19000000000E+002,  0.00000000000E+000,  0.10000000000E+001
  0.17607001882E+008,  0.20522130473E+007,  0.19000000000E+002,  0.00000000000E+000,  0.10000000000E+001
  0.17607151882E+008,  0.20518967136E+007,  0.19000000000E+002,  0.00000000000E+000,  0.10000000000E+001
  0.17607301882E+008,  0.20515823361E+007,  0.19000000000E+002,  0.00000000000E+000,  0.10000000000E+001
  0.17607451882E+008,  0.20512699028E+007,  0.19000000000E+002,  0.00000000000E+000,  0.10000000000E+001
  0.17607601882E+008,  0.20509594015E+007,  0.19000000000E+002,  0.00000000000E+000,  0.10000000000E+001
  0.17607751882E+008,  0.20506508205E+007,  0.19000000000E+002,  0.00000000000E+000,  0.10000000000E+001
  0.17607901882E+008,  0.20503441477E+007,  0.19000000000E+002,  0.00000000000E+000,  0.10000000000E+001
  0.17608051882E+008,  0.20500393715E+007,  0.19000000000E+002,  0.00000000000E+000,  0.10000000000E+001
  0.17608201882E+008,  0.20497364800E+007,  0.19000000000E+002,  0.00000000000E+000,  0.10000000000E+001
  0.17608351882E+008,  0.20494354617E+007,  0.19000000000E+002,  0.00000000000E+000,  0.10000000000E+001
  0.17608501882E+008,  0.20491363050E+007,  0.19000000000E+002,  0.00000000000E+000,  0.10000000000E+001
  0.17608651882E+008,  0.20488389983E+007,  0.19000000000E+002,  0.00000000000E+000,  0.10000000000E+001
  0.17608801882E+008,  0.20485435302E+007,  0.19000000000E+002,  0.00000000000E+000,  0.10000000000E+001
  0.17608951882E+008,  0.20482498894E+007,  0.19000000000E+002,  0.00000000000E+000,  0.10000000000E+001
  0.17609101882E+008,  0.20479580646E+007,  0.19000000000E+002,  0.00000000000E+000,  0.10000000000E+001
  0.17609251882E+008,  0.20476680446E+007,  0.19000000000E+002,  0.00000000000E+000,  0.10000000000E+001
  0.17609401882E+008,  0.20473798181E+007,  0.19000000000E+002,  0.00000000000E+000,  0.10000000000E+001
  0.17609551882E+008,  0.20470933742E+007,  0.19000000000E+002,  0.00000000000E+000,  0.10000000000E+001
  0.17609701882E+008,  0.20468087017E+007,  0.19000000000E+002,  0.00000000000E+000,  0.10000000000E+001
  0.17609851882E+008,  0.20465257898E+007,  0.19000000000E+002,  0.00000000000E+000,  0.10000000000E+001
  0.17610001882E+008,  0.20462446276E+007,  0.19000000000E+002,  0.00000000000E+000,  0.10000000000E+001
  0.17610151882E+008,  0.20459652042E+007,  0.19000000000E+002,  0.00000000000E+000,  0.10000000000E+001
  0.17610301882E+008,  0.20456875089E+007,  0.19000000000E+002,  0.00000000000E+000,  0.10000000000E+001
  0.17610451882E+008,  0.20454115310E+007,  0.19000000000E+002,  0.00000000000E+000,  0.10000000000E+001
  0.17610601882E+008,  0.20451372599E+007,  0.19000000000E+002,  0.00000000000E+000,  0.10000000000E+001
  0.17610751882E+008,  0.20448646851E+007,  0.19000000000E+002,  0.00000000000E+000,  0.10000000000E+001
  0.17610901882E+008,  0.20445937961E+007,  0.19000000000E+002,  0.00000000000E+000,  0.10000000000E+001
  0.17611051882E+008,  0.20443245824E+007,  0.19000000000E+002,  0.00000000000E+000,  0.10000000000E+001
  0.17611201882E+008,  0.20440570338E+007,  0.19000000000E+002,  0.00000000000E+000,  0.10000000000E+001
  0.17611351882E+008,  0.20437911398E+007,  0.19000000000E+002,  0.00000000000E+000,  0.10000000000E+001
  0.17611501882E+008,  0.20435268903E+007,  0.19000000000E+002,  0.00000000000E+000,  0.10000000000E+001
  0.17611651882E+008,  0.20432642751E+007,  0.19000000000E+002,  0.00000000000E+000,  0.10000000000E+001
  0.17611801882E+008,  0.20430032841E+007,  0.19000000000E+002,  0.00000000000E+000,  0.10000000000E+001
  0.17611951882E+008,  0.20427439073E+007,  0.19000000000E+002,  0.00000000000E+000,  0.10000000000E+001
  0.17612101882E+008,  0.20424861347E+007,  0.19000000000E+002,  0.00000000000E+000,  0.10000000000E+001
  0.17612251882E+008,  0.20422299564E+007,  0.19000000000E+002,  0.00000000000E+000,  0.10000000000E+001
  0.17612401882E+008,  0.20419753625E+007,  0.19000000000E+002,  0.00000000000E+000,  0.10000000000E+001
  0.17612551882E+008,  0.20417223432E+007,  0.19000000000E+002,  0.00000000000E+000,  0.10000000000E+001
  0.17612701882E+008,  0.20414708888E+007,  0.19000000000E+002,  0.00000000000E+000,  0.10000000000E+001
  0.17612851882E+008,  0.20412209896E+007,  0.19000000000E+002,  0.00000000000E+000,  0.10000000000E+001
  0.17613001882E+008,  0.20409726360E+007,  0.19000000000E+002,  0.00000000000E+000,  0.10000000000E+001
  0.17613151882E+008,  0.20407258185E+007,  0.19000000000E+002,  0.00000000000E+000,  0.10000000000E+001
  0.17613301882E+008,  0.20404805275E+007,  0.19000000000E+002,  0.00000000000E+000,  0.10000000000E+001
  0.17613451882E+008,  0.20402367537E+007,  0.19000000000E+002,  0.00000000000E+000,  0.10000000000E+001
  0.17613601882E+008,  0.20399944875E+007,  0.19000000000E+002,  0.00000000000E+000,  0.10000000000E+001
  0.17613751882E+008,  0.20397537198E+007,  0.19000000000E+002,  0.00000000000E+000,  0.10000000000E+001
  0.17613901882E+008,  0.20395144412E+007,  0.19000000000E+002,  0.00000000000E+000,  0.10000000000E+001
  0.17614051882E+008,  0.20392766426E+007,  0.19000000000E+002,  0.00000000000E+000,  0.10000000000E+001
  0.17614201882E+008,  0.20390403147E+007,  0.19000000000E+002,  0.00000000000E+000,  0.10000000000E+001
  0.17614351882E+008,  0.20388054486E+007,  0.19000000000E+002,  0.00000000000E+000,  0.10000000000E+001
  0.17614501882E+008,  0.20385720351E+007,  0.19000000000E+002,  0.00000000000E+000,  0.10000000000E+001
  0.17614651882E+008,  0.20383400653E+007,  0.19000000000E+002,  0.00000000000E+000,  0.10000000000E+001
  0.17614801882E+008,  0.20381095303E+007,  0.19000000000E+002,  0.00000000000E+000,  0.10000000000E+001
  0.17614951882E+008,  0.20378804211E+007,  0.19000000000E+002,  0.00000000000E+000,  0.10000000000E+001
  0.17615101882E+008,  0.20376527290E+007,  0.19000000000E+002,  0.00000000000E+000,  0.10000000000E+001
  0.17615251882E+008,  0.20374264452E+007,  0.19000000000E+002,  0.00000000000E+000,  0.10000000000E+001
  0.17615401882E+008,  0.20372015610E+007,  0.19000000000E+002,  0.00000000000E+000,  0.10000000000E+001
  0.17615551882E+008,  0.20369780677E+007,  0.19000000000E+002,  0.00000000000E+000,  0.10000000000E+001
  0.17615701882E+008,  0.20367559568E+007,  0.19000000000E+002,  0.00000000000E+000,  0.10000000000E+001
  0.17615851882E+008,  0.20365352196E+007,  0.19000000000E+002,  0.00000000000E+000,  0.10000000000E+001
  0.17616001882E+008,  0.20363158478E+007,  0.19000000000E+002,  0.00000000000E+000,  0.10000000000E+001
  0.17616151882E+008,  0.20360978328E+007,  0.19000000000E+002,  0.00000000000E+000,  0.10000000000E+001
  0.17616301882E+008,  0.20358811663E+007,  0.19000000000E+002,  0.00000000000E+000,  0.10000000000E+001
  0.17616451882E+008,  0.20356658399E+007,  0.19000000000E+002,  0.00000000000E+000,  0.10000000000E+001
  0.17616601882E+008,  0.20354518454E+007,  0.19000000000E+002,  0.00000000000E+000,  0.10000000000E+001
  0.17616751882E+008,  0.20352391744E+007,  0.19000000000E+002,  0.00000000000E+000,  0.10000000000E+001
  0.17616901882E+008,  0.20350278189E+007,  0.19000000000E+002,  0.00000000000E+000,  0.10000000000E+001
  0.17617051882E+008,  0.20348177707E+007,  0.19000000000E+002,  0.00000000000E+000,  0.10000000000E+001
  0.17617201882E+008,  0.20346090216E+007,  0.19000000000E+002,  0.00000000000E+000,  0.10000000000E+001
  0.17617351882E+008,  0.20344015638E+007,  0.19000000000E+002,  0.00000000000E+000,  0.10000000000E+001
  0.17617501882E+008,  0.20341953891E+007,  0.19000000000E+002,  0.00000000000E+000,  0.10000000000E+001
  0.17617651882E+008,  0.20339904897E+007,  0.19000000000E+002,  0.00000000000E+000,  0.10000000000E+001
  0.17617801882E+008,  0.20337868576E+007,  0.19000000000E+002,  0.00000000000E+000,  0.10000000000E+001
  0.17617951882E+008,  0.20335844851E+007,  0.19000000000E+002,  0.00000000000E+000,  0.10000000000E+001
  0.17618101882E+008,  0.20333833643E+007,  0.19000000000E+002,  0.00000000000E+000,  0.10000000000E+001
  0.17618251882E+008,  0.20331834875E+007,  0.19000000000E+002,  0.00000000000E+000,  0.10000000000E+001
  0.17618401882E+008,  0.20329848470E+007,  0.19000000000E+002,  0.00000000000E+000,  0.10000000000E+001
  0.17618551882E+008,  0.20327874352E+007,  0.19000000000E+002,  0.00000000000E+000,  0.10000000000E+001
  0.17618701882E+008,  0.20325912444E+007,  0.19000000000E+002,  0.00000000000E+000,  0.10000000000E+001
  0.17618851882E+008,  0.20323962671E+007,  0.19000000000E+002,  0.00000000000E+000,  0.10000000000E+001
  0.17619001882E+008,  0.20322024959E+007,  0.19000000000E+002,  0.00000000000E+000,  0.10000000000E+001
  0.17619151882E+008,  0.20320099231E+007,  0.19000000000E+002,  0.00000000000E+000,  0.10000000000E+001
