"           TIME(S)","              PRES","              TEMP","             SAT_G","             SAT_L"
  0.18228740000E+008,  0.20000601098E+007,  0.19000000000E+002,  0.95000000171E+000,  0.49999998292E-001
  0.18228890000E+008,  0.20001288769E+007,  0.19000000000E+002,  0.95000000602E+000,  0.49999993976E-001
  0.18229040000E+008,  0.20001592062E+007,  0.19000000000E+002,  0.95000000983E+000,  0.49999990174E-001
  0.18229190000E+008,  0.20001773445E+007,  0.19000000000E+002,  0.95000001347E+000,  0.49999986534E-001
  0.18229340000E+008,  0.20001906050E+007,  0.19000000000E+002,  0.95000001704E+000,  0.49999982959E-001
  0.18229490000E+008,  0.20002015606E+007,  0.19000000000E+002,  0.95000002058E+000,  0.49999979415E-001
  0.18229640000E+008,  0.20002113095E+007,  0.19000000000E+002,  0.95000002411E+000,  0.49999975887E-001
  0.18229790000E+008,  0.20002203874E+007,  0.19000000000E+002,  0.95000002763E+000,  0.49999972368E-001
  0.18229940000E+008,  0.20002290779E+007,  0.19000000000E+002,  0.95000003115E+000,  0.49999968855E-001
  0.18230090000E+008,  0.20002375386E+007,  0.19000000000E+002,  0.95000003466E+000,  0.49999965344E-001
  0.18230240000E+008,  0.20002458599E+007,  0.19000000000E+002,  0.95000003816E+000,  0.49999961835E-001
  0.18230390000E+008,  0.20002540946E+007,  0.19000000000E+002,  0.95000004167E+000,  0.49999958328E-001
  0.18230540000E+008,  0.20002622742E+007,  0.19000000000E+002,  0.95000004518E+000,  0.49999954821E-001
  0.18230690000E+008,  0.20002704175E+007,  0.19000000000E+002,  0.95000004869E+000,  0.49999951315E-001
  0.18230840000E+008,  0.20002785364E+007,  0.19000000000E+002,  0.95000005219E+000,  0.49999947809E-001
  0.18230990000E+008,  0.20002866381E+007,  0.19000000000E+002,  0.95000005570E+000,  0.49999944303E-001
  0.18231140000E+008,  0.20002947273E+007,  0.19000000000E+002,  0.95000005920E+000,  0.49999940798E-001
  0.18231290000E+008,  0.20003028073E+007,  0.19000000000E+002,  0.95000006271E+000,  0.49999937292E-001
  0.18231440000E+008,  0.20003108800E+007,  0.19000000000E+002,  0.95000006621E+000,  0.49999933787E-001
  0.18231590000E+008,  0.20003189471E+007,  0.19000000000E+002,  0.95000006972E+000,  0.49999930282E-001
  0.18231740000E+008,  0.20003270095E+007,  0.19000000000E+002,  0.95000007322E+000,  0.49999926777E-001
  0.18231890000E+008,  0.20003350683E+007,  0.19000000000E+002,  0.95000007673E+000,  0.49999923272E-001
  0.18232040000E+008,  0.20003431239E+007,  0.19000000000E+002,  0.95000008023E+000,  0.49999919767E-001
  0.18232190000E+008,  0.20003511768E+007,  0.19000000000E+002,  0.95000008374E+000,  0.49999916262E-001
  0.18232340000E+008,  0.20003592276E+007,  0.19000000000E+002,  0.95000008724E+000,  0.49999912757E-001
  0.18232490000E+008,  0.20003672765E+007,  0.19000000000E+002,  0.95000009075E+000,  0.49999909252E-001
  0.18232640000E+008,  0.20003753238E+007,  0.19000000000E+002,  0.95000009425E+000,  0.49999905747E-001
  0.18232790000E+008,  0.20003833697E+007,  0.19000000000E+002,  0.95000009776E+000,  0.49999902242E-001
  0.18232940000E+008,  0.20003914144E+007,  0.19000000000E+002,  0.95000010126E+000,  0.49999898738E-001
  0.18233090000E+008,  0.20003994581E+007,  0.19000000000E+002,  0.95000010477E+000,  0.49999895233E-001
  0.18233240000E+008,  0.20004075009E+007,  0.19000000000E+002,  0.95000010827E+000,  0.49999891728E-001
  0.18233390000E+008,  0.20004155429E+007,  0.19000000000E+002,  0.95000011178E+000,  0.49999888223E-001
  0.18233540000E+008,  0.20004235842E+007,  0.19000000000E+002,  0.95000011528E+000,  0.49999884719E-001
  0.18233690000E+008,  0.20004316248E+007,  0.19000000000E+002,  0.95000011879E+000,  0.49999881214E-001
  0.18233840000E+008,  0.20004396648E+007,  0.19000000000E+002,  0.95000012229E+000,  0.49999877710E-001
  0.18233990000E+008,  0.20004477042E+007,  0.19000000000E+002,  0.95000012580E+000,  0.49999874205E-001
  0.18234140000E+008,  0.20004557429E+007,  0.19000000000E+002,  0.95000012930E+000,  0.49999870700E-001
  0.18234290000E+008,  0.20004637810E+007,  0.19000000000E+002,  0.95000013280E+000,  0.49999867196E-001
  0.18234440000E+008,  0.20004718186E+007,  0.19000000000E+002,  0.95000013631E+000,  0.49999863691E-001
  0.18234590000E+008,  0.20004798556E+007,  0.19000000000E+002,  0.95000013981E+000,  0.49999860187E-001
  0.18234740000E+008,  0.20004878922E+007,  0.19000000000E+002,  0.95000014332E+000,  0.49999856682E-001
  0.18234890000E+008,  0.20004959283E+007,  0.19000000000E+002,  0.95000014682E+000,  0.49999853178E-001
  0.18235040000E+008,  0.20005039640E+007,  0.19000000000E+002,  0.95000015033E+000,  0.49999849673E-001
  0.18235190000E+008,  0.20005119993E+007,  0.19000000000E+002,  0.95000015383E+000,  0.49999846169E-001
  0.18235340000E+008,  0.20005200341E+007,  0.19000000000E+002,  0.95000015734E+000,  0.49999842664E-001
  0.18235490000E+008,  0.20005280686E+007,  0.19000000000E+002,  0.95000016084E+000,  0.49999839160E-001
  0.18235640000E+008,  0.20005362012E+007,  0.19000000000E+002,  0.95000016435E+000,  0.49999835654E-001
  0.18235715000E+008,  0.20005402625E+007,  0.19000000000E+002,  0.95000016610E+000,  0.49999833902E-001
  0.18235865000E+008,  0.20005483299E+007,  0.19000000000E+002,  0.95000016960E+000,  0.49999830397E-001
  0.18236015000E+008,  0.20005563814E+007,  0.19000000000E+002,  0.95000017311E+000,  0.49999826892E-001
  0.18236165000E+008,  0.20005644274E+007,  0.19000000000E+002,  0.95000017661E+000,  0.49999823388E-001
  0.18236315000E+008,  0.20005724710E+007,  0.19000000000E+002,  0.95000018012E+000,  0.49999819883E-001
  0.18236465000E+008,  0.20005805132E+007,  0.19000000000E+002,  0.95000018362E+000,  0.49999816379E-001
  0.18236615000E+008,  0.20005885545E+007,  0.19000000000E+002,  0.95000018713E+000,  0.49999812874E-001
  0.18236765000E+008,  0.20005965952E+007,  0.19000000000E+002,  0.95000019063E+000,  0.49999809370E-001
  0.18236915000E+008,  0.20006046353E+007,  0.19000000000E+002,  0.95000019413E+000,  0.49999805866E-001
  0.18237065000E+008,  0.20006126749E+007,  0.19000000000E+002,  0.95000019764E+000,  0.49999802361E-001
  0.18237215000E+008,  0.20006207141E+007,  0.19000000000E+002,  0.95000020114E+000,  0.49999798857E-001
  0.18237365000E+008,  0.20006287530E+007,  0.19000000000E+002,  0.95000020465E+000,  0.49999795353E-001
  0.18237515000E+008,  0.20006367914E+007,  0.19000000000E+002,  0.95000020815E+000,  0.49999791848E-001
  0.18237665000E+008,  0.20006448295E+007,  0.19000000000E+002,  0.95000021166E+000,  0.49999788344E-001
  0.18237815000E+008,  0.20006528672E+007,  0.19000000000E+002,  0.95000021516E+000,  0.49999784840E-001
  0.18237965000E+008,  0.20006609046E+007,  0.19000000000E+002,  0.95000021866E+000,  0.49999781336E-001
  0.18238115000E+008,  0.20006689416E+007,  0.19000000000E+002,  0.95000022217E+000,  0.49999777832E-001
  0.18238265000E+008,  0.20006769783E+007,  0.19000000000E+002,  0.95000022567E+000,  0.49999774327E-001
  0.18238415000E+008,  0.20006850146E+007,  0.19000000000E+002,  0.95000022918E+000,  0.49999770823E-001
  0.18238565000E+008,  0.20006930506E+007,  0.19000000000E+002,  0.95000023268E+000,  0.49999767319E-001
  0.18238715000E+008,  0.20007010862E+007,  0.19000000000E+002,  0.95000023619E+000,  0.49999763815E-001
  0.18238865000E+008,  0.20007091214E+007,  0.19000000000E+002,  0.95000023969E+000,  0.49999760311E-001
  0.18239015000E+008,  0.20007171563E+007,  0.19000000000E+002,  0.95000024319E+000,  0.49999756807E-001
  0.18239165000E+008,  0.20007251907E+007,  0.19000000000E+002,  0.95000024670E+000,  0.49999753303E-001
  0.18239315000E+008,  0.20007332247E+007,  0.19000000000E+002,  0.95000025020E+000,  0.49999749799E-001
  0.18239465000E+008,  0.20007412584E+007,  0.19000000000E+002,  0.95000025371E+000,  0.49999746295E-001
  0.18239615000E+008,  0.20007492916E+007,  0.19000000000E+002,  0.95000025721E+000,  0.49999742791E-001
  0.18239765000E+008,  0.20007573244E+007,  0.19000000000E+002,  0.95000026071E+000,  0.49999739287E-001
  0.18239915000E+008,  0.20007653568E+007,  0.19000000000E+002,  0.95000026422E+000,  0.49999735783E-001
  0.18240065000E+008,  0.20007733888E+007,  0.19000000000E+002,  0.95000026772E+000,  0.49999732279E-001
  0.18240215000E+008,  0.20007814204E+007,  0.19000000000E+002,  0.95000027123E+000,  0.49999728775E-001
  0.18240365000E+008,  0.20007894515E+007,  0.19000000000E+002,  0.95000027473E+000,  0.49999725271E-001
  0.18240515000E+008,  0.20007974822E+007,  0.19000000000E+002,  0.95000027823E+000,  0.49999721767E-001
  0.18240665000E+008,  0.20008055125E+007,  0.19000000000E+002,  0.95000028174E+000,  0.49999718263E-001
  0.18240815000E+008,  0.20008135422E+007,  0.19000000000E+002,  0.95000028524E+000,  0.49999714759E-001
  0.18240965000E+008,  0.20008215715E+007,  0.19000000000E+002,  0.95000028874E+000,  0.49999711255E-001
  0.18241115000E+008,  0.20008296002E+007,  0.19000000000E+002,  0.95000029225E+000,  0.49999707751E-001
  0.18241265000E+008,  0.20008376283E+007,  0.19000000000E+002,  0.95000029575E+000,  0.49999704248E-001
  0.18241415000E+008,  0.20008456559E+007,  0.19000000000E+002,  0.95000029926E+000,  0.49999700744E-001
  0.18241565000E+008,  0.20008536828E+007,  0.19000000000E+002,  0.95000030276E+000,  0.49999697240E-001
  0.18241715000E+008,  0.20008617092E+007,  0.19000000000E+002,  0.95000030626E+000,  0.49999693736E-001
  0.18241865000E+008,  0.20008697349E+007,  0.19000000000E+002,  0.95000030977E+000,  0.49999690233E-001
  0.18242015000E+008,  0.20008777601E+007,  0.19000000000E+002,  0.95000031327E+000,  0.49999686729E-001
  0.18242165000E+008,  0.20008857847E+007,  0.19000000000E+002,  0.95000031677E+000,  0.49999683225E-001
  0.18242315000E+008,  0.20008938087E+007,  0.19000000000E+002,  0.95000032028E+000,  0.49999679722E-001
  0.18242465000E+008,  0.20009018320E+007,  0.19000000000E+002,  0.95000032378E+000,  0.49999676218E-001
  0.18242615000E+008,  0.20009098548E+007,  0.19000000000E+002,  0.95000032729E+000,  0.49999672714E-001
  0.18242765000E+008,  0.20009178769E+007,  0.19000000000E+002,  0.95000033079E+000,  0.49999669211E-001
  0.18242915000E+008,  0.20009258984E+007,  0.19000000000E+002,  0.95000033429E+000,  0.49999665707E-001
  0.18243065000E+008,  0.20009339193E+007,  0.19000000000E+002,  0.95000033780E+000,  0.49999662204E-001
  0.18243215000E+008,  0.20009419396E+007,  0.19000000000E+002,  0.95000034130E+000,  0.49999658700E-001
  0.18243365000E+008,  0.20009499591E+007,  0.19000000000E+002,  0.95000034480E+000,  0.49999655197E-001
  0.18243515000E+008,  0.20009579779E+007,  0.19000000000E+002,  0.95000034831E+000,  0.49999651693E-001
  0.18243665000E+008,  0.20009659959E+007,  0.19000000000E+002,  0.95000035181E+000,  0.49999648190E-001
  0.18243815000E+008,  0.20009740131E+007,  0.19000000000E+002,  0.95000035531E+000,  0.49999644686E-001
  0.18243965000E+008,  0.20009820294E+007,  0.19000000000E+002,  0.95000035882E+000,  0.49999641183E-001
  0.18244115000E+008,  0.20009900449E+007,  0.19000000000E+002,  0.95000036232E+000,  0.49999637680E-001
  0.18244265000E+008,  0.20009980595E+007,  0.19000000000E+002,  0.95000036582E+000,  0.49999634176E-001
  0.18244415000E+008,  0.20010060734E+007,  0.19000000000E+002,  0.95000036933E+000,  0.49999630673E-001
  0.18244565000E+008,  0.20010140863E+007,  0.19000000000E+002,  0.95000037283E+000,  0.49999627170E-001
  0.18244715000E+008,  0.20010220984E+007,  0.19000000000E+002,  0.95000037633E+000,  0.49999623666E-001
  0.18244865000E+008,  0.20010301096E+007,  0.19000000000E+002,  0.95000037984E+000,  0.49999620163E-001
  0.18245015000E+008,  0.20010381199E+007,  0.19000000000E+002,  0.95000038334E+000,  0.49999616660E-001
  0.18245165000E+008,  0.20010461291E+007,  0.19000000000E+002,  0.95000038684E+000,  0.49999613157E-001
  0.18245315000E+008,  0.20010541372E+007,  0.19000000000E+002,  0.95000039035E+000,  0.49999609653E-001
  0.18245465000E+008,  0.20010621443E+007,  0.19000000000E+002,  0.95000039385E+000,  0.49999606150E-001
  0.18245615000E+008,  0.20010701504E+007,  0.19000000000E+002,  0.95000039735E+000,  0.49999602647E-001
  0.18245765000E+008,  0.20010781555E+007,  0.19000000000E+002,  0.95000040086E+000,  0.49999599144E-001
  0.18245915000E+008,  0.20010861594E+007,  0.19000000000E+002,  0.95000040436E+000,  0.49999595641E-001
  0.18246065000E+008,  0.20010941623E+007,  0.19000000000E+002,  0.95000040786E+000,  0.49999592138E-001
  0.18246215000E+008,  0.20011021639E+007,  0.19000000000E+002,  0.95000041136E+000,  0.49999588635E-001
  0.18246365000E+008,  0.20011101644E+007,  0.19000000000E+002,  0.95000041487E+000,  0.49999585132E-001
  0.18246515000E+008,  0.20011181637E+007,  0.19000000000E+002,  0.95000041837E+000,  0.49999581629E-001
  0.18246665000E+008,  0.20011261616E+007,  0.19000000000E+002,  0.95000042187E+000,  0.49999578126E-001
  0.18246815000E+008,  0.20011341583E+007,  0.19000000000E+002,  0.95000042538E+000,  0.49999574623E-001
  0.18246965000E+008,  0.20011421535E+007,  0.19000000000E+002,  0.95000042888E+000,  0.49999571120E-001
  0.18247115000E+008,  0.20011501474E+007,  0.19000000000E+002,  0.95000043238E+000,  0.49999567618E-001
  0.18247265000E+008,  0.20011581399E+007,  0.19000000000E+002,  0.95000043589E+000,  0.49999564115E-001
  0.18247415000E+008,  0.20011661310E+007,  0.19000000000E+002,  0.95000043939E+000,  0.49999560612E-001
  0.18247565000E+008,  0.20011741207E+007,  0.19000000000E+002,  0.95000044289E+000,  0.49999557109E-001
  0.18247715000E+008,  0.20011821089E+007,  0.19000000000E+002,  0.95000044639E+000,  0.49999553607E-001
  0.18247865000E+008,  0.20011900957E+007,  0.19000000000E+002,  0.95000044990E+000,  0.49999550104E-001
  0.18248015000E+008,  0.20011980811E+007,  0.19000000000E+002,  0.95000045340E+000,  0.49999546601E-001
  0.18248165000E+008,  0.20012060650E+007,  0.19000000000E+002,  0.95000045690E+000,  0.49999543099E-001
  0.18248315000E+008,  0.20012140475E+007,  0.19000000000E+002,  0.95000046040E+000,  0.49999539596E-001
  0.18248465000E+008,  0.20012220285E+007,  0.19000000000E+002,  0.95000046391E+000,  0.49999536094E-001
  0.18248615000E+008,  0.20012300080E+007,  0.19000000000E+002,  0.95000046741E+000,  0.49999532591E-001
  0.18248765000E+008,  0.20012379861E+007,  0.19000000000E+002,  0.95000047091E+000,  0.49999529089E-001
  0.18248915000E+008,  0.20012459625E+007,  0.19000000000E+002,  0.95000047441E+000,  0.49999525586E-001
  0.18249065000E+008,  0.20012539375E+007,  0.19000000000E+002,  0.95000047792E+000,  0.49999522084E-001
  0.18249215000E+008,  0.20012619109E+007,  0.19000000000E+002,  0.95000048142E+000,  0.49999518582E-001
  0.18249365000E+008,  0.20012698827E+007,  0.19000000000E+002,  0.95000048492E+000,  0.49999515079E-001
  0.18249515000E+008,  0.20012778530E+007,  0.19000000000E+002,  0.95000048842E+000,  0.49999511577E-001
  0.18249665000E+008,  0.20012858217E+007,  0.19000000000E+002,  0.95000049193E+000,  0.49999508075E-001
  0.18249815000E+008,  0.20012937888E+007,  0.19000000000E+002,  0.95000049543E+000,  0.49999504572E-001
  0.18249965000E+008,  0.20013017543E+007,  0.19000000000E+002,  0.95000049893E+000,  0.49999501070E-001
  0.18250115000E+008,  0.20013097183E+007,  0.19000000000E+002,  0.95000050243E+000,  0.49999497568E-001
  0.18250265000E+008,  0.20013176807E+007,  0.19000000000E+002,  0.95000050593E+000,  0.49999494066E-001
  0.18250415000E+008,  0.20013256581E+007,  0.19000000000E+002,  0.95000050944E+000,  0.49999490564E-001
  0.18250490001E+008,  0.20013296522E+007,  0.19000000000E+002,  0.95000051119E+000,  0.49999488812E-001
  0.18250640001E+008,  0.20013376292E+007,  0.19000000000E+002,  0.95000051469E+000,  0.49999485310E-001
  0.18250790001E+008,  0.20013456075E+007,  0.19000000000E+002,  0.95000051819E+000,  0.49999481808E-001
  0.18250865001E+008,  0.20013496022E+007,  0.19000000000E+002,  0.95000051994E+000,  0.49999480057E-001
  0.18251015001E+008,  0.20013575806E+007,  0.19000000000E+002,  0.95000052345E+000,  0.49999476554E-001
  0.18251165001E+008,  0.20013655508E+007,  0.19000000000E+002,  0.95000052695E+000,  0.49999473052E-001
  0.18251315001E+008,  0.20013735162E+007,  0.19000000000E+002,  0.95000053045E+000,  0.49999469550E-001
  0.18251465001E+008,  0.20013814786E+007,  0.19000000000E+002,  0.95000053395E+000,  0.49999466048E-001
  0.18251615001E+008,  0.20013894386E+007,  0.19000000000E+002,  0.95000053745E+000,  0.49999462546E-001
  0.18251765001E+008,  0.20013974241E+007,  0.19000000000E+002,  0.95000054096E+000,  0.49999459044E-001
  0.18251840002E+008,  0.20014014156E+007,  0.19000000000E+002,  0.95000054271E+000,  0.49999457293E-001
  0.18251990002E+008,  0.20014093888E+007,  0.19000000000E+002,  0.95000054621E+000,  0.49999453791E-001
  0.18252140002E+008,  0.20014173554E+007,  0.19000000000E+002,  0.95000054971E+000,  0.49999450289E-001
  0.18252290002E+008,  0.20014253178E+007,  0.19000000000E+002,  0.95000055321E+000,  0.49999446787E-001
  0.18252440002E+008,  0.20014332773E+007,  0.19000000000E+002,  0.95000055672E+000,  0.49999443285E-001
  0.18252590002E+008,  0.20014412346E+007,  0.19000000000E+002,  0.95000056022E+000,  0.49999439783E-001
  0.18252740002E+008,  0.20014491899E+007,  0.19000000000E+002,  0.95000056372E+000,  0.49999436281E-001
  0.18252890002E+008,  0.20014571434E+007,  0.19000000000E+002,  0.95000056722E+000,  0.49999432779E-001
  0.18253040002E+008,  0.20014650950E+007,  0.19000000000E+002,  0.95000057072E+000,  0.49999429278E-001
  0.18253190002E+008,  0.20014730450E+007,  0.19000000000E+002,  0.95000057422E+000,  0.49999425776E-001
  0.18253340002E+008,  0.20014809931E+007,  0.19000000000E+002,  0.95000057773E+000,  0.49999422274E-001
  0.18253490002E+008,  0.20014889395E+007,  0.19000000000E+002,  0.95000058123E+000,  0.49999418773E-001
  0.18253640002E+008,  0.20014968841E+007,  0.19000000000E+002,  0.95000058473E+000,  0.49999415271E-001
  0.18253790002E+008,  0.20015048270E+007,  0.19000000000E+002,  0.95000058823E+000,  0.49999411770E-001
  0.18253940002E+008,  0.20015127681E+007,  0.19000000000E+002,  0.95000059173E+000,  0.49999408268E-001
  0.18254090002E+008,  0.20015207072E+007,  0.19000000000E+002,  0.95000059523E+000,  0.49999404767E-001
  0.18254240002E+008,  0.20015286445E+007,  0.19000000000E+002,  0.95000059873E+000,  0.49999401265E-001
  0.18254390002E+008,  0.20015365799E+007,  0.19000000000E+002,  0.95000060224E+000,  0.49999397764E-001
  0.18254540002E+008,  0.20015445135E+007,  0.19000000000E+002,  0.95000060574E+000,  0.49999394262E-001
  0.18254690002E+008,  0.20015524453E+007,  0.19000000000E+002,  0.95000060924E+000,  0.49999390761E-001
  0.18254840002E+008,  0.20015603752E+007,  0.19000000000E+002,  0.95000061274E+000,  0.49999387260E-001
  0.18254990002E+008,  0.20015683033E+007,  0.19000000000E+002,  0.95000061624E+000,  0.49999383759E-001
  0.18255140002E+008,  0.20015762295E+007,  0.19000000000E+002,  0.95000061974E+000,  0.49999380257E-001
  0.18255290002E+008,  0.20015841540E+007,  0.19000000000E+002,  0.95000062324E+000,  0.49999376756E-001
  0.18255440002E+008,  0.20015920766E+007,  0.19000000000E+002,  0.95000062674E+000,  0.49999373255E-001
  0.18255590002E+008,  0.20015999974E+007,  0.19000000000E+002,  0.95000063025E+000,  0.49999369754E-001
  0.18255740002E+008,  0.20016079164E+007,  0.19000000000E+002,  0.95000063375E+000,  0.49999366253E-001
  0.18255890002E+008,  0.20016158335E+007,  0.19000000000E+002,  0.95000063725E+000,  0.49999362752E-001
  0.18256040002E+008,  0.20016237489E+007,  0.19000000000E+002,  0.95000064075E+000,  0.49999359251E-001
  0.18256190002E+008,  0.20016316623E+007,  0.19000000000E+002,  0.95000064425E+000,  0.49999355750E-001
  0.18256340002E+008,  0.20016395737E+007,  0.19000000000E+002,  0.95000064775E+000,  0.49999352249E-001
  0.18256490002E+008,  0.20016474828E+007,  0.19000000000E+002,  0.95000065125E+000,  0.49999348748E-001
  0.18256640002E+008,  0.20016553898E+007,  0.19000000000E+002,  0.95000065475E+000,  0.49999345247E-001
