"           TIME(S)","              PRES","              TEMP","             SAT_G","             SAT_L"
  0.17812600500E+008,  0.20000000000E+007,  0.19000000000E+002,  0.00000000000E+000,  0.10000000000E+001
  0.17812602500E+008,  0.20000000023E+007,  0.19000000000E+002,  0.00000000000E+000,  0.10000000000E+001
  0.17812604500E+008,  0.20000000169E+007,  0.19000000000E+002,  0.00000000000E+000,  0.10000000000E+001
  0.17812606500E+008,  0.20000000656E+007,  0.19000000000E+002,  0.00000000000E+000,  0.10000000000E+001
  0.17812608500E+008,  0.20000001794E+007,  0.19000000000E+002,  0.00000000000E+000,  0.10000000000E+001
  0.17812610500E+008,  0.20000003937E+007,  0.19000000000E+002,  0.00000000000E+000,  0.10000000000E+001
  0.17812612500E+008,  0.20000007417E+007,  0.19000000000E+002,  0.00000000000E+000,  0.10000000000E+001
  0.17812614500E+008,  0.20000012493E+007,  0.19000000000E+002,  0.00000000000E+000,  0.10000000000E+001
  0.17812616500E+008,  0.20000019329E+007,  0.19000000000E+002,  0.00000000000E+000,  0.10000000000E+001
  0.17812618500E+008,  0.20000027989E+007,  0.19000000000E+002,  0.00000000000E+000,  0.10000000000E+001
  0.17812620500E+008,  0.20000038447E+007,  0.19000000000E+002,  0.00000000000E+000,  0.10000000000E+001
  0.17812622500E+008,  0.20000050609E+007,  0.19000000000E+002,  0.00000000000E+000,  0.10000000000E+001
  0.17812624500E+008,  0.20000064333E+007,  0.19000000000E+002,  0.00000000000E+000,  0.10000000000E+001
  0.17812626500E+008,  0.20000079448E+007,  0.19000000000E+002,  0.00000000000E+000,  0.10000000000E+001
  0.17812628500E+008,  0.20000095769E+007,  0.19000000000E+002,  0.00000000000E+000,  0.10000000000E+001
  0.17812630500E+008,  0.20000113110E+007,  0.19000000000E+002,  0.00000000000E+000,  0.10000000000E+001
  0.17812632500E+008,  0.20000131293E+007,  0.19000000000E+002,  0.00000000000E+000,  0.10000000000E+001
  0.17812634500E+008,  0.20000150152E+007,  0.19000000000E+002,  0.00000000000E+000,  0.10000000000E+001
  0.17812636500E+008,  0.20000169533E+007,  0.19000000000E+002,  0.00000000000E+000,  0.10000000000E+001
  0.17812638500E+008,  0.20000189304E+007,  0.19000000000E+002,  0.00000000000E+000,  0.10000000000E+001
  0.17812640500E+008,  0.20000209344E+007,  0.19000000000E+002,  0.00000000000E+000,  0.10000000000E+001
  0.17812642500E+008,  0.20000229551E+007,  0.19000000000E+002,  0.00000000000E+000,  0.10000000000E+001
  0.17812644500E+008,  0.20000249835E+007,  0.19000000000E+002,  0.00000000000E+000,  0.10000000000E+001
  0.17812646500E+008,  0.20000270124E+007,  0.19000000000E+002,  0.00000000000E+000,  0.10000000000E+001
  0.17812648500E+008,  0.20000290353E+007,  0.19000000000E+002,  0.00000000000E+000,  0.10000000000E+001
  0.17812650500E+008,  0.20000310470E+007,  0.19000000000E+002,  0.00000000000E+000,  0.10000000000E+001
  0.17812652500E+008,  0.20000330432E+007,  0.19000000000E+002,  0.00000000000E+000,  0.10000000000E+001
  0.17812654500E+008,  0.20000350204E+007,  0.19000000000E+002,  0.00000000000E+000,  0.10000000000E+001
  0.17812656500E+008,  0.20000369759E+007,  0.19000000000E+002,  0.00000000000E+000,  0.10000000000E+001
  0.17812658500E+008,  0.20000389073E+007,  0.19000000000E+002,  0.00000000000E+000,  0.10000000000E+001
  0.17812660500E+008,  0.20000408131E+007,  0.19000000000E+002,  0.00000000000E+000,  0.10000000000E+001
  0.17812662500E+008,  0.20000426920E+007,  0.19000000000E+002,  0.00000000000E+000,  0.10000000000E+001
  0.17812664500E+008,  0.20000445431E+007,  0.19000000000E+002,  0.00000000000E+000,  0.10000000000E+001
  0.17812666500E+008,  0.20000463658E+007,  0.19000000000E+002,  0.00000000000E+000,  0.10000000000E+001
  0.17812668500E+008,  0.20000481599E+007,  0.19000000000E+002,  0.00000000000E+000,  0.10000000000E+001
  0.17812670500E+008,  0.20000499253E+007,  0.19000000000E+002,  0.00000000000E+000,  0.10000000000E+001
  0.17812672500E+008,  0.20000516620E+007,  0.19000000000E+002,  0.00000000000E+000,  0.10000000000E+001
  0.17812674500E+008,  0.20000533704E+007,  0.19000000000E+002,  0.00000000000E+000,  0.10000000000E+001
  0.17812676500E+008,  0.20000550507E+007,  0.19000000000E+002,  0.00000000000E+000,  0.10000000000E+001
  0.17812678500E+008,  0.20000567036E+007,  0.19000000000E+002,  0.00000000000E+000,  0.10000000000E+001
  0.17812680500E+008,  0.20000583296E+007,  0.19000000000E+002,  0.00000000000E+000,  0.10000000000E+001
  0.17812682500E+008,  0.20000599292E+007,  0.19000000000E+002,  0.00000000000E+000,  0.10000000000E+001
  0.17812684500E+008,  0.20000615032E+007,  0.19000000000E+002,  0.00000000000E+000,  0.10000000000E+001
  0.17812686500E+008,  0.20000630522E+007,  0.19000000000E+002,  0.00000000000E+000,  0.10000000000E+001
  0.17812688500E+008,  0.20000645771E+007,  0.19000000000E+002,  0.00000000000E+000,  0.10000000000E+001
  0.17812690500E+008,  0.20000660786E+007,  0.19000000000E+002,  0.00000000000E+000,  0.10000000000E+001
  0.17812692500E+008,  0.20000675574E+007,  0.19000000000E+002,  0.00000000000E+000,  0.10000000000E+001
  0.17812694500E+008,  0.20000690143E+007,  0.19000000000E+002,  0.00000000000E+000,  0.10000000000E+001
  0.17812696500E+008,  0.20000704500E+007,  0.19000000000E+002,  0.00000000000E+000,  0.10000000000E+001
  0.17812698500E+008,  0.20000718654E+007,  0.19000000000E+002,  0.00000000000E+000,  0.10000000000E+001
  0.17812700500E+008,  0.20000732612E+007,  0.19000000000E+002,  0.00000000000E+000,  0.10000000000E+001
  0.17812702500E+008,  0.20000746381E+007,  0.19000000000E+002,  0.00000000000E+000,  0.10000000000E+001
  0.17812704500E+008,  0.20000759968E+007,  0.19000000000E+002,  0.00000000000E+000,  0.10000000000E+001
  0.17812706500E+008,  0.20000773380E+007,  0.19000000000E+002,  0.00000000000E+000,  0.10000000000E+001
  0.17812708500E+008,  0.20000786625E+007,  0.19000000000E+002,  0.00000000000E+000,  0.10000000000E+001
  0.17812710500E+008,  0.20000799708E+007,  0.19000000000E+002,  0.00000000000E+000,  0.10000000000E+001
  0.17812712500E+008,  0.20000812637E+007,  0.19000000000E+002,  0.00000000000E+000,  0.10000000000E+001
  0.17812714500E+008,  0.20000825417E+007,  0.19000000000E+002,  0.00000000000E+000,  0.10000000000E+001
  0.17812716500E+008,  0.20000838055E+007,  0.19000000000E+002,  0.00000000000E+000,  0.10000000000E+001
  0.17812718500E+008,  0.20000850556E+007,  0.19000000000E+002,  0.00000000000E+000,  0.10000000000E+001
  0.17812720500E+008,  0.20000862925E+007,  0.19000000000E+002,  0.00000000000E+000,  0.10000000000E+001
  0.17812722500E+008,  0.20000875170E+007,  0.19000000000E+002,  0.00000000000E+000,  0.10000000000E+001
  0.17812724500E+008,  0.20000887294E+007,  0.19000000000E+002,  0.00000000000E+000,  0.10000000000E+001
  0.17812726500E+008,  0.20000899302E+007,  0.19000000000E+002,  0.00000000000E+000,  0.10000000000E+001
  0.17812728500E+008,  0.20000911200E+007,  0.19000000000E+002,  0.00000000000E+000,  0.10000000000E+001
  0.17812730500E+008,  0.20000922991E+007,  0.19000000000E+002,  0.00000000000E+000,  0.10000000000E+001
  0.17812732500E+008,  0.20000934681E+007,  0.19000000000E+002,  0.00000000000E+000,  0.10000000000E+001
  0.17812734500E+008,  0.20000946274E+007,  0.19000000000E+002,  0.00000000000E+000,  0.10000000000E+001
  0.17812736500E+008,  0.20000957773E+007,  0.19000000000E+002,  0.00000000000E+000,  0.10000000000E+001
  0.17812738500E+008,  0.20000969183E+007,  0.19000000000E+002,  0.00000000000E+000,  0.10000000000E+001
  0.17812740500E+008,  0.20000980507E+007,  0.19000000000E+002,  0.00000000000E+000,  0.10000000000E+001
  0.17812742500E+008,  0.20000991748E+007,  0.19000000000E+002,  0.00000000000E+000,  0.10000000000E+001
  0.17812744500E+008,  0.20001002911E+007,  0.19000000000E+002,  0.00000000000E+000,  0.10000000000E+001
  0.17812746500E+008,  0.20001013998E+007,  0.19000000000E+002,  0.00000000000E+000,  0.10000000000E+001
  0.17812748500E+008,  0.20001025012E+007,  0.19000000000E+002,  0.00000000000E+000,  0.10000000000E+001
  0.17812750500E+008,  0.20001035957E+007,  0.19000000000E+002,  0.00000000000E+000,  0.10000000000E+001
  0.17812752500E+008,  0.20001046835E+007,  0.19000000000E+002,  0.00000000000E+000,  0.10000000000E+001
  0.17812754500E+008,  0.20001057649E+007,  0.19000000000E+002,  0.00000000000E+000,  0.10000000000E+001
  0.17812756500E+008,  0.20001068401E+007,  0.19000000000E+002,  0.00000000000E+000,  0.10000000000E+001
  0.17812758500E+008,  0.20001079094E+007,  0.19000000000E+002,  0.00000000000E+000,  0.10000000000E+001
  0.17812760500E+008,  0.20001089730E+007,  0.19000000000E+002,  0.00000000000E+000,  0.10000000000E+001
  0.17812762500E+008,  0.20001100311E+007,  0.19000000000E+002,  0.00000000000E+000,  0.10000000000E+001
  0.17812764500E+008,  0.20001110839E+007,  0.19000000000E+002,  0.00000000000E+000,  0.10000000000E+001
  0.17812766500E+008,  0.20001121317E+007,  0.19000000000E+002,  0.00000000000E+000,  0.10000000000E+001
  0.17812768500E+008,  0.20001131746E+007,  0.19000000000E+002,  0.00000000000E+000,  0.10000000000E+001
  0.17812770500E+008,  0.20001142128E+007,  0.19000000000E+002,  0.00000000000E+000,  0.10000000000E+001
  0.17812772500E+008,  0.20001152466E+007,  0.19000000000E+002,  0.00000000000E+000,  0.10000000000E+001
  0.17812774500E+008,  0.20001162759E+007,  0.19000000000E+002,  0.00000000000E+000,  0.10000000000E+001
  0.17812776500E+008,  0.20001173011E+007,  0.19000000000E+002,  0.00000000000E+000,  0.10000000000E+001
  0.17812778500E+008,  0.20001183222E+007,  0.19000000000E+002,  0.00000000000E+000,  0.10000000000E+001
  0.17812780500E+008,  0.20001193393E+007,  0.19000000000E+002,  0.00000000000E+000,  0.10000000000E+001
  0.17812782500E+008,  0.20001203528E+007,  0.19000000000E+002,  0.00000000000E+000,  0.10000000000E+001
  0.17812784500E+008,  0.20001213625E+007,  0.19000000000E+002,  0.00000000000E+000,  0.10000000000E+001
  0.17812786500E+008,  0.20001223688E+007,  0.19000000000E+002,  0.00000000000E+000,  0.10000000000E+001
  0.17812788500E+008,  0.20001233716E+007,  0.19000000000E+002,  0.00000000000E+000,  0.10000000000E+001
  0.17812790500E+008,  0.20001243711E+007,  0.19000000000E+002,  0.00000000000E+000,  0.10000000000E+001
  0.17812792500E+008,  0.20001253675E+007,  0.19000000000E+002,  0.00000000000E+000,  0.10000000000E+001
  0.17812794500E+008,  0.20001263607E+007,  0.19000000000E+002,  0.00000000000E+000,  0.10000000000E+001
  0.17812796500E+008,  0.20001273510E+007,  0.19000000000E+002,  0.00000000000E+000,  0.10000000000E+001
  0.17812798500E+008,  0.20001283383E+007,  0.19000000000E+002,  0.00000000000E+000,  0.10000000000E+001
  0.17812800500E+008,  0.20001293229E+007,  0.19000000000E+002,  0.00000000000E+000,  0.10000000000E+001
  0.17812802500E+008,  0.20001303047E+007,  0.19000000000E+002,  0.00000000000E+000,  0.10000000000E+001
  0.17812804500E+008,  0.20001312838E+007,  0.19000000000E+002,  0.00000000000E+000,  0.10000000000E+001
  0.17812806500E+008,  0.20001322604E+007,  0.19000000000E+002,  0.00000000000E+000,  0.10000000000E+001
  0.17812808500E+008,  0.20001332344E+007,  0.19000000000E+002,  0.00000000000E+000,  0.10000000000E+001
  0.17812810500E+008,  0.20001342060E+007,  0.19000000000E+002,  0.00000000000E+000,  0.10000000000E+001
  0.17812812500E+008,  0.20001351753E+007,  0.19000000000E+002,  0.00000000000E+000,  0.10000000000E+001
  0.17812814500E+008,  0.20001361422E+007,  0.19000000000E+002,  0.00000000000E+000,  0.10000000000E+001
  0.17812816500E+008,  0.20001371068E+007,  0.19000000000E+002,  0.00000000000E+000,  0.10000000000E+001
  0.17812818500E+008,  0.20001380693E+007,  0.19000000000E+002,  0.00000000000E+000,  0.10000000000E+001
  0.17812820500E+008,  0.20001390296E+007,  0.19000000000E+002,  0.00000000000E+000,  0.10000000000E+001
  0.17812822500E+008,  0.20001399878E+007,  0.19000000000E+002,  0.00000000000E+000,  0.10000000000E+001
  0.17812824500E+008,  0.20001409439E+007,  0.19000000000E+002,  0.00000000000E+000,  0.10000000000E+001
  0.17812826500E+008,  0.20001418981E+007,  0.19000000000E+002,  0.00000000000E+000,  0.10000000000E+001
  0.17812828500E+008,  0.20001428503E+007,  0.19000000000E+002,  0.00000000000E+000,  0.10000000000E+001
  0.17812830500E+008,  0.20001438005E+007,  0.19000000000E+002,  0.00000000000E+000,  0.10000000000E+001
  0.17812832500E+008,  0.20001447489E+007,  0.19000000000E+002,  0.00000000000E+000,  0.10000000000E+001
  0.17812834500E+008,  0.20001456955E+007,  0.19000000000E+002,  0.00000000000E+000,  0.10000000000E+001
  0.17812836500E+008,  0.20001466403E+007,  0.19000000000E+002,  0.00000000000E+000,  0.10000000000E+001
  0.17812838500E+008,  0.20001475833E+007,  0.19000000000E+002,  0.00000000000E+000,  0.10000000000E+001
  0.17812840500E+008,  0.20001485245E+007,  0.19000000000E+002,  0.00000000000E+000,  0.10000000000E+001
  0.17812842500E+008,  0.20001494641E+007,  0.19000000000E+002,  0.00000000000E+000,  0.10000000000E+001
  0.17812844500E+008,  0.20001504020E+007,  0.19000000000E+002,  0.00000000000E+000,  0.10000000000E+001
  0.17812846500E+008,  0.20001513383E+007,  0.19000000000E+002,  0.00000000000E+000,  0.10000000000E+001
  0.17812848500E+008,  0.20001522729E+007,  0.19000000000E+002,  0.00000000000E+000,  0.10000000000E+001
  0.17812850500E+008,  0.20001532060E+007,  0.19000000000E+002,  0.00000000000E+000,  0.10000000000E+001
  0.17812852500E+008,  0.20001541375E+007,  0.19000000000E+002,  0.00000000000E+000,  0.10000000000E+001
  0.17812854500E+008,  0.20001550675E+007,  0.19000000000E+002,  0.00000000000E+000,  0.10000000000E+001
  0.17812856500E+008,  0.20001559960E+007,  0.19000000000E+002,  0.00000000000E+000,  0.10000000000E+001
  0.17812858500E+008,  0.20001569230E+007,  0.19000000000E+002,  0.00000000000E+000,  0.10000000000E+001
  0.17812860500E+008,  0.20001578485E+007,  0.19000000000E+002,  0.00000000000E+000,  0.10000000000E+001
  0.17812862500E+008,  0.20001587726E+007,  0.19000000000E+002,  0.00000000000E+000,  0.10000000000E+001
  0.17812864500E+008,  0.20001596953E+007,  0.19000000000E+002,  0.00000000000E+000,  0.10000000000E+001
  0.17812866500E+008,  0.20001606165E+007,  0.19000000000E+002,  0.00000000000E+000,  0.10000000000E+001
  0.17812868500E+008,  0.20001615364E+007,  0.19000000000E+002,  0.00000000000E+000,  0.10000000000E+001
  0.17812870500E+008,  0.20001624549E+007,  0.19000000000E+002,  0.00000000000E+000,  0.10000000000E+001
  0.17812872500E+008,  0.20001633720E+007,  0.19000000000E+002,  0.00000000000E+000,  0.10000000000E+001
  0.17812874500E+008,  0.20001642879E+007,  0.19000000000E+002,  0.00000000000E+000,  0.10000000000E+001
  0.17812876500E+008,  0.20001652024E+007,  0.19000000000E+002,  0.00000000000E+000,  0.10000000000E+001
  0.17812878500E+008,  0.20001661155E+007,  0.19000000000E+002,  0.00000000000E+000,  0.10000000000E+001
  0.17812880500E+008,  0.20001670275E+007,  0.19000000000E+002,  0.00000000000E+000,  0.10000000000E+001
  0.17812882500E+008,  0.20001679381E+007,  0.19000000000E+002,  0.00000000000E+000,  0.10000000000E+001
  0.17812884500E+008,  0.20001688475E+007,  0.19000000000E+002,  0.00000000000E+000,  0.10000000000E+001
  0.17812886500E+008,  0.20001697556E+007,  0.19000000000E+002,  0.00000000000E+000,  0.10000000000E+001
  0.17812888500E+008,  0.20001706625E+007,  0.19000000000E+002,  0.00000000000E+000,  0.10000000000E+001
  0.17812890500E+008,  0.20001715681E+007,  0.19000000000E+002,  0.00000000000E+000,  0.10000000000E+001
  0.17812892500E+008,  0.20001724726E+007,  0.19000000000E+002,  0.00000000000E+000,  0.10000000000E+001
  0.17812894500E+008,  0.20001733758E+007,  0.19000000000E+002,  0.00000000000E+000,  0.10000000000E+001
  0.17812896500E+008,  0.20001742779E+007,  0.19000000000E+002,  0.00000000000E+000,  0.10000000000E+001
  0.17812898500E+008,  0.20001751788E+007,  0.19000000000E+002,  0.00000000000E+000,  0.10000000000E+001
  0.17812900500E+008,  0.20001760785E+007,  0.19000000000E+002,  0.00000000000E+000,  0.10000000000E+001
  0.17812902500E+008,  0.20001769770E+007,  0.19000000000E+002,  0.00000000000E+000,  0.10000000000E+001
  0.17812904500E+008,  0.20001778744E+007,  0.19000000000E+002,  0.00000000000E+000,  0.10000000000E+001
  0.17812906500E+008,  0.20001787707E+007,  0.19000000000E+002,  0.00000000000E+000,  0.10000000000E+001
  0.17812908500E+008,  0.20001796658E+007,  0.19000000000E+002,  0.00000000000E+000,  0.10000000000E+001
  0.17812910500E+008,  0.20001805598E+007,  0.19000000000E+002,  0.00000000000E+000,  0.10000000000E+001
  0.17812912500E+008,  0.20001814527E+007,  0.19000000000E+002,  0.00000000000E+000,  0.10000000000E+001
  0.17812914500E+008,  0.20001823445E+007,  0.19000000000E+002,  0.00000000000E+000,  0.10000000000E+001
  0.17812916500E+008,  0.20001832352E+007,  0.19000000000E+002,  0.00000000000E+000,  0.10000000000E+001
  0.17812918500E+008,  0.20001841248E+007,  0.19000000000E+002,  0.00000000000E+000,  0.10000000000E+001
  0.17812920500E+008,  0.20001850133E+007,  0.19000000000E+002,  0.00000000000E+000,  0.10000000000E+001
  0.17812922500E+008,  0.20001859007E+007,  0.19000000000E+002,  0.00000000000E+000,  0.10000000000E+001
  0.17812924500E+008,  0.20001867870E+007,  0.19000000000E+002,  0.00000000000E+000,  0.10000000000E+001
  0.17812926500E+008,  0.20001876723E+007,  0.19000000000E+002,  0.00000000000E+000,  0.10000000000E+001
  0.17812928500E+008,  0.20001885566E+007,  0.19000000000E+002,  0.00000000000E+000,  0.10000000000E+001
  0.17812930500E+008,  0.20001894397E+007,  0.19000000000E+002,  0.00000000000E+000,  0.10000000000E+001
  0.17812932500E+008,  0.20001903219E+007,  0.19000000000E+002,  0.00000000000E+000,  0.10000000000E+001
  0.17812934500E+008,  0.20001912030E+007,  0.19000000000E+002,  0.00000000000E+000,  0.10000000000E+001
  0.17812936500E+008,  0.20001920830E+007,  0.19000000000E+002,  0.00000000000E+000,  0.10000000000E+001
  0.17812938500E+008,  0.20001929621E+007,  0.19000000000E+002,  0.00000000000E+000,  0.10000000000E+001
  0.17812940500E+008,  0.20001938401E+007,  0.19000000000E+002,  0.00000000000E+000,  0.10000000000E+001
  0.17812942500E+008,  0.20001947171E+007,  0.19000000000E+002,  0.00000000000E+000,  0.10000000000E+001
  0.17812944500E+008,  0.20001955931E+007,  0.19000000000E+002,  0.00000000000E+000,  0.10000000000E+001
  0.17812946500E+008,  0.20001964680E+007,  0.19000000000E+002,  0.00000000000E+000,  0.10000000000E+001
  0.17812948500E+008,  0.20001973420E+007,  0.19000000000E+002,  0.00000000000E+000,  0.10000000000E+001
  0.17812950500E+008,  0.20001982150E+007,  0.19000000000E+002,  0.00000000000E+000,  0.10000000000E+001
  0.17812952500E+008,  0.20001990870E+007,  0.19000000000E+002,  0.00000000000E+000,  0.10000000000E+001
  0.17812954500E+008,  0.20001999580E+007,  0.19000000000E+002,  0.00000000000E+000,  0.10000000000E+001
  0.17812956500E+008,  0.20002008280E+007,  0.19000000000E+002,  0.00000000000E+000,  0.10000000000E+001
  0.17812958500E+008,  0.20002016970E+007,  0.19000000000E+002,  0.00000000000E+000,  0.10000000000E+001
  0.17812960500E+008,  0.20002025651E+007,  0.19000000000E+002,  0.00000000000E+000,  0.10000000000E+001
  0.17812962500E+008,  0.20002034322E+007,  0.19000000000E+002,  0.00000000000E+000,  0.10000000000E+001
  0.17812964500E+008,  0.20002042983E+007,  0.19000000000E+002,  0.00000000000E+000,  0.10000000000E+001
  0.17812966500E+008,  0.20002051634E+007,  0.19000000000E+002,  0.00000000000E+000,  0.10000000000E+001
  0.17812968500E+008,  0.20002060276E+007,  0.19000000000E+002,  0.00000000000E+000,  0.10000000000E+001
  0.17812970500E+008,  0.20002068909E+007,  0.19000000000E+002,  0.00000000000E+000,  0.10000000000E+001
  0.17812972500E+008,  0.20002077532E+007,  0.19000000000E+002,  0.00000000000E+000,  0.10000000000E+001
  0.17812974500E+008,  0.20002086145E+007,  0.19000000000E+002,  0.00000000000E+000,  0.10000000000E+001
  0.17812976500E+008,  0.20002094749E+007,  0.19000000000E+002,  0.00000000000E+000,  0.10000000000E+001
