"           TIME(S)","              PRES","              TEMP","             SAT_G","             SAT_L"
  0.18228740000E+008,  0.20000381561E+007,  0.19000000000E+002,  0.00000000000E+000,  0.10000000000E+001
  0.18228890000E+008,  0.20001739283E+007,  0.19000000000E+002,  0.00000000000E+000,  0.10000000000E+001
  0.18229040000E+008,  0.20002484498E+007,  0.19000000000E+002,  0.00000000000E+000,  0.10000000000E+001
  0.18229190000E+008,  0.20002879348E+007,  0.19000000000E+002,  0.00000000000E+000,  0.10000000000E+001
  0.18229340000E+008,  0.20003103019E+007,  0.19000000000E+002,  0.00000000000E+000,  0.10000000000E+001
  0.18229490000E+008,  0.20003241555E+007,  0.19000000000E+002,  0.00000000000E+000,  0.10000000000E+001
  0.18229640000E+008,  0.20003335670E+007,  0.19000000000E+002,  0.00000000000E+000,  0.10000000000E+001
  0.18229790000E+008,  0.20003405692E+007,  0.19000000000E+002,  0.00000000000E+000,  0.10000000000E+001
  0.18229865000E+008,  0.20003436420E+007,  0.19000000000E+002,  0.00000000000E+000,  0.10000000000E+001
  0.18230015000E+008,  0.20003488377E+007,  0.19000000000E+002,  0.00000000000E+000,  0.10000000000E+001
  0.18230165000E+008,  0.20003535195E+007,  0.19000000000E+002,  0.00000000000E+000,  0.10000000000E+001
  0.18230315000E+008,  0.20003579436E+007,  0.19000000000E+002,  0.00000000000E+000,  0.10000000000E+001
  0.18230465000E+008,  0.20003622642E+007,  0.19000000000E+002,  0.00000000000E+000,  0.10000000000E+001
  0.18230615000E+008,  0.20003665768E+007,  0.19000000000E+002,  0.00000000000E+000,  0.10000000000E+001
  0.18230765000E+008,  0.20003709412E+007,  0.19000000000E+002,  0.00000000000E+000,  0.10000000000E+001
  0.18230915000E+008,  0.20003753957E+007,  0.19000000000E+002,  0.00000000000E+000,  0.10000000000E+001
  0.18231065000E+008,  0.20003799653E+007,  0.19000000000E+002,  0.00000000000E+000,  0.10000000000E+001
  0.18231215000E+008,  0.20003846660E+007,  0.19000000000E+002,  0.00000000000E+000,  0.10000000000E+001
  0.18231365000E+008,  0.20003895080E+007,  0.19000000000E+002,  0.00000000000E+000,  0.10000000000E+001
  0.18231515000E+008,  0.20003944977E+007,  0.19000000000E+002,  0.00000000000E+000,  0.10000000000E+001
  0.18231665000E+008,  0.20003996386E+007,  0.19000000000E+002,  0.00000000000E+000,  0.10000000000E+001
  0.18231815000E+008,  0.20004049324E+007,  0.19000000000E+002,  0.00000000000E+000,  0.10000000000E+001
  0.18231965000E+008,  0.20004103793E+007,  0.19000000000E+002,  0.00000000000E+000,  0.10000000000E+001
  0.18232115000E+008,  0.20004159784E+007,  0.19000000000E+002,  0.00000000000E+000,  0.10000000000E+001
  0.18232265000E+008,  0.20004217282E+007,  0.19000000000E+002,  0.00000000000E+000,  0.10000000000E+001
  0.18232415000E+008,  0.20004276266E+007,  0.19000000000E+002,  0.00000000000E+000,  0.10000000000E+001
  0.18232565000E+008,  0.20004336712E+007,  0.19000000000E+002,  0.00000000000E+000,  0.10000000000E+001
  0.18232640001E+008,  0.20004367298E+007,  0.19000000000E+002,  0.00000000000E+000,  0.10000000000E+001
  0.18232677501E+008,  0.20004382681E+007,  0.19000000000E+002,  0.00000000000E+000,  0.10000000000E+001
  0.18232827501E+008,  0.20004445619E+007,  0.19000000000E+002,  0.00000000000E+000,  0.10000000000E+001
  0.18232977501E+008,  0.20004509920E+007,  0.19000000000E+002,  0.00000000000E+000,  0.10000000000E+001
  0.18233052502E+008,  0.20004542406E+007,  0.19000000000E+002,  0.00000000000E+000,  0.10000000000E+001
  0.18233202502E+008,  0.20004608668E+007,  0.19000000000E+002,  0.00000000000E+000,  0.10000000000E+001
  0.18233352502E+008,  0.20004676173E+007,  0.19000000000E+002,  0.00000000000E+000,  0.10000000000E+001
  0.18233502502E+008,  0.20004744876E+007,  0.19000000000E+002,  0.00000000000E+000,  0.10000000000E+001
  0.18233652502E+008,  0.20004814741E+007,  0.19000000000E+002,  0.00000000000E+000,  0.10000000000E+001
  0.18233802502E+008,  0.20004885734E+007,  0.19000000000E+002,  0.00000000000E+000,  0.10000000000E+001
  0.18233952502E+008,  0.20004957830E+007,  0.19000000000E+002,  0.00000000000E+000,  0.10000000000E+001
  0.18234102502E+008,  0.20005031009E+007,  0.19000000000E+002,  0.00000000000E+000,  0.10000000000E+001
  0.18234252502E+008,  0.20005105255E+007,  0.19000000000E+002,  0.00000000000E+000,  0.10000000000E+001
  0.18234402502E+008,  0.20005180543E+007,  0.19000000000E+002,  0.00000000000E+000,  0.10000000000E+001
  0.18234552502E+008,  0.20005256858E+007,  0.19000000000E+002,  0.00000000000E+000,  0.10000000000E+001
  0.18234702502E+008,  0.20005334181E+007,  0.19000000000E+002,  0.00000000000E+000,  0.10000000000E+001
  0.18234852502E+008,  0.20005412487E+007,  0.19000000000E+002,  0.00000000000E+000,  0.10000000000E+001
  0.18235002502E+008,  0.20005491756E+007,  0.19000000000E+002,  0.00000000000E+000,  0.10000000000E+001
  0.18235152502E+008,  0.20005571967E+007,  0.19000000000E+002,  0.00000000000E+000,  0.10000000000E+001
  0.18235302502E+008,  0.20005653092E+007,  0.19000000000E+002,  0.00000000000E+000,  0.10000000000E+001
  0.18235452502E+008,  0.20005735109E+007,  0.19000000000E+002,  0.00000000000E+000,  0.10000000000E+001
  0.18235602502E+008,  0.20005817995E+007,  0.19000000000E+002,  0.00000000000E+000,  0.10000000000E+001
  0.18235752502E+008,  0.20005901723E+007,  0.19000000000E+002,  0.00000000000E+000,  0.10000000000E+001
  0.18235902502E+008,  0.20005986269E+007,  0.19000000000E+002,  0.00000000000E+000,  0.10000000000E+001
  0.18236052502E+008,  0.20006071614E+007,  0.19000000000E+002,  0.00000000000E+000,  0.10000000000E+001
  0.18236202502E+008,  0.20006157729E+007,  0.19000000000E+002,  0.00000000000E+000,  0.10000000000E+001
  0.18236352502E+008,  0.20006244593E+007,  0.19000000000E+002,  0.00000000000E+000,  0.10000000000E+001
  0.18236502502E+008,  0.20006332186E+007,  0.19000000000E+002,  0.00000000000E+000,  0.10000000000E+001
  0.18236652502E+008,  0.20006420482E+007,  0.19000000000E+002,  0.00000000000E+000,  0.10000000000E+001
  0.18236802502E+008,  0.20006509464E+007,  0.19000000000E+002,  0.00000000000E+000,  0.10000000000E+001
  0.18236877502E+008,  0.20006554124E+007,  0.19000000000E+002,  0.00000000000E+000,  0.10000000000E+001
  0.18236915003E+008,  0.20006576496E+007,  0.19000000000E+002,  0.00000000000E+000,  0.10000000000E+001
  0.18236933753E+008,  0.20006587692E+007,  0.19000000000E+002,  0.00000000000E+000,  0.10000000000E+001
  0.18237027505E+008,  0.20006643928E+007,  0.19000000000E+002,  0.00000000000E+000,  0.10000000000E+001
  0.18237074381E+008,  0.20006672109E+007,  0.19000000000E+002,  0.00000000000E+000,  0.10000000000E+001
  0.18237097819E+008,  0.20006686215E+007,  0.19000000000E+002,  0.00000000000E+000,  0.10000000000E+001
  0.18237215011E+008,  0.20006757124E+007,  0.19000000000E+002,  0.00000000000E+000,  0.10000000000E+001
  0.18237365011E+008,  0.20006848472E+007,  0.19000000000E+002,  0.00000000000E+000,  0.10000000000E+001
  0.18237440011E+008,  0.20006894288E+007,  0.19000000000E+002,  0.00000000000E+000,  0.10000000000E+001
  0.18237477511E+008,  0.20006917231E+007,  0.19000000000E+002,  0.00000000000E+000,  0.10000000000E+001
  0.18237627511E+008,  0.20007009525E+007,  0.19000000000E+002,  0.00000000000E+000,  0.10000000000E+001
  0.18237777511E+008,  0.20007102306E+007,  0.19000000000E+002,  0.00000000000E+000,  0.10000000000E+001
  0.18237852512E+008,  0.20007148815E+007,  0.19000000000E+002,  0.00000000000E+000,  0.10000000000E+001
  0.18237890012E+008,  0.20007172098E+007,  0.19000000000E+002,  0.00000000000E+000,  0.10000000000E+001
  0.18238040012E+008,  0.20007265671E+007,  0.19000000000E+002,  0.00000000000E+000,  0.10000000000E+001
  0.18238115013E+008,  0.20007312565E+007,  0.19000000000E+002,  0.00000000000E+000,  0.10000000000E+001
  0.18238152513E+008,  0.20007336038E+007,  0.19000000000E+002,  0.00000000000E+000,  0.10000000000E+001
  0.18238302513E+008,  0.20007430335E+007,  0.19000000000E+002,  0.00000000000E+000,  0.10000000000E+001
  0.18238452513E+008,  0.20007525027E+007,  0.19000000000E+002,  0.00000000000E+000,  0.10000000000E+001
  0.18238602513E+008,  0.20007620105E+007,  0.19000000000E+002,  0.00000000000E+000,  0.10000000000E+001
  0.18238677514E+008,  0.20007667741E+007,  0.19000000000E+002,  0.00000000000E+000,  0.10000000000E+001
  0.18238715014E+008,  0.20007691583E+007,  0.19000000000E+002,  0.00000000000E+000,  0.10000000000E+001
  0.18238733765E+008,  0.20007703510E+007,  0.19000000000E+002,  0.00000000000E+000,  0.10000000000E+001
  0.18238827516E+008,  0.20007763296E+007,  0.19000000000E+002,  0.00000000000E+000,  0.10000000000E+001
  0.18238977516E+008,  0.20007859337E+007,  0.19000000000E+002,  0.00000000000E+000,  0.10000000000E+001
  0.18239052517E+008,  0.20007907455E+007,  0.19000000000E+002,  0.00000000000E+000,  0.10000000000E+001
  0.18239090017E+008,  0.20007931538E+007,  0.19000000000E+002,  0.00000000000E+000,  0.10000000000E+001
  0.18239240017E+008,  0.20008028263E+007,  0.19000000000E+002,  0.00000000000E+000,  0.10000000000E+001
  0.18239390017E+008,  0.20008125382E+007,  0.19000000000E+002,  0.00000000000E+000,  0.10000000000E+001
  0.18239540017E+008,  0.20008222899E+007,  0.19000000000E+002,  0.00000000000E+000,  0.10000000000E+001
  0.18239690017E+008,  0.20008320817E+007,  0.19000000000E+002,  0.00000000000E+000,  0.10000000000E+001
  0.18239840017E+008,  0.20008419130E+007,  0.19000000000E+002,  0.00000000000E+000,  0.10000000000E+001
  0.18239915018E+008,  0.20008468385E+007,  0.19000000000E+002,  0.00000000000E+000,  0.10000000000E+001
  0.18239952518E+008,  0.20008493037E+007,  0.19000000000E+002,  0.00000000000E+000,  0.10000000000E+001
  0.18240102518E+008,  0.20008592024E+007,  0.19000000000E+002,  0.00000000000E+000,  0.10000000000E+001
  0.18240252518E+008,  0.20008691368E+007,  0.19000000000E+002,  0.00000000000E+000,  0.10000000000E+001
  0.18240402518E+008,  0.20008791633E+007,  0.19000000000E+002,  0.00000000000E+000,  0.10000000000E+001
  0.18240477519E+008,  0.20008842584E+007,  0.19000000000E+002,  0.00000000000E+000,  0.10000000000E+001
  0.18240515019E+008,  0.20008868311E+007,  0.19000000000E+002,  0.00000000000E+000,  0.10000000000E+001
  0.18240665019E+008,  0.20008977198E+007,  0.19000000000E+002,  0.00000000000E+000,  0.10000000000E+001
  0.18240740020E+008,  0.20009033280E+007,  0.19000000000E+002,  0.00000000000E+000,  0.10000000000E+001
  0.18240777520E+008,  0.20009061733E+007,  0.19000000000E+002,  0.00000000000E+000,  0.10000000000E+001
  0.18240927520E+008,  0.20009180665E+007,  0.19000000000E+002,  0.00000000000E+000,  0.10000000000E+001
  0.18241002521E+008,  0.20009241208E+007,  0.19000000000E+002,  0.00000000000E+000,  0.10000000000E+001
  0.18241040021E+008,  0.20009271725E+007,  0.19000000000E+002,  0.00000000000E+000,  0.10000000000E+001
  0.18241058771E+008,  0.20009287041E+007,  0.19000000000E+002,  0.00000000000E+000,  0.10000000000E+001
  0.18241152523E+008,  0.20009364792E+007,  0.19000000000E+002,  0.00000000000E+000,  0.10000000000E+001
  0.18241302523E+008,  0.20009491414E+007,  0.19000000000E+002,  0.00000000000E+000,  0.10000000000E+001
  0.18241377524E+008,  0.20009555204E+007,  0.19000000000E+002,  0.00000000000E+000,  0.10000000000E+001
  0.18241527524E+008,  0.20009684267E+007,  0.19000000000E+002,  0.00000000000E+000,  0.10000000000E+001
  0.18241602524E+008,  0.20009749126E+007,  0.19000000000E+002,  0.00000000000E+000,  0.10000000000E+001
  0.18241752524E+008,  0.20009879874E+007,  0.19000000000E+002,  0.00000000000E+000,  0.10000000000E+001
  0.18241902524E+008,  0.20010011444E+007,  0.19000000000E+002,  0.00000000000E+000,  0.10000000000E+001
  0.18241977525E+008,  0.20010077412E+007,  0.19000000000E+002,  0.00000000000E+000,  0.10000000000E+001
  0.18242127525E+008,  0.20010209929E+007,  0.19000000000E+002,  0.00000000000E+000,  0.10000000000E+001
  0.18242277525E+008,  0.20010342911E+007,  0.19000000000E+002,  0.00000000000E+000,  0.10000000000E+001
  0.18242427525E+008,  0.20010476268E+007,  0.19000000000E+002,  0.00000000000E+000,  0.10000000000E+001
  0.18242577525E+008,  0.20010609931E+007,  0.19000000000E+002,  0.00000000000E+000,  0.10000000000E+001
  0.18242652525E+008,  0.20010676833E+007,  0.19000000000E+002,  0.00000000000E+000,  0.10000000000E+001
  0.18242690026E+008,  0.20010710301E+007,  0.19000000000E+002,  0.00000000000E+000,  0.10000000000E+001
  0.18242840026E+008,  0.20010844393E+007,  0.19000000000E+002,  0.00000000000E+000,  0.10000000000E+001
  0.18242915026E+008,  0.20010911490E+007,  0.19000000000E+002,  0.00000000000E+000,  0.10000000000E+001
  0.18243065026E+008,  0.20011045850E+007,  0.19000000000E+002,  0.00000000000E+000,  0.10000000000E+001
  0.18243140026E+008,  0.20011113066E+007,  0.19000000000E+002,  0.00000000000E+000,  0.10000000000E+001
  0.18243290026E+008,  0.20011247600E+007,  0.19000000000E+002,  0.00000000000E+000,  0.10000000000E+001
  0.18243440026E+008,  0.20011382184E+007,  0.19000000000E+002,  0.00000000000E+000,  0.10000000000E+001
  0.18243515027E+008,  0.20011449482E+007,  0.19000000000E+002,  0.00000000000E+000,  0.10000000000E+001
  0.18243665027E+008,  0.20011584040E+007,  0.19000000000E+002,  0.00000000000E+000,  0.10000000000E+001
  0.18243815027E+008,  0.20011718498E+007,  0.19000000000E+002,  0.00000000000E+000,  0.10000000000E+001
  0.18243890027E+008,  0.20011785693E+007,  0.19000000000E+002,  0.00000000000E+000,  0.10000000000E+001
  0.18244040027E+008,  0.20011919894E+007,  0.19000000000E+002,  0.00000000000E+000,  0.10000000000E+001
  0.18244190027E+008,  0.20012053853E+007,  0.19000000000E+002,  0.00000000000E+000,  0.10000000000E+001
  0.18244265028E+008,  0.20012120766E+007,  0.19000000000E+002,  0.00000000000E+000,  0.10000000000E+001
  0.18244415028E+008,  0.20012254287E+007,  0.19000000000E+002,  0.00000000000E+000,  0.10000000000E+001
  0.18244490028E+008,  0.20012320967E+007,  0.19000000000E+002,  0.00000000000E+000,  0.10000000000E+001
  0.18244640028E+008,  0.20012453965E+007,  0.19000000000E+002,  0.00000000000E+000,  0.10000000000E+001
  0.18244790028E+008,  0.20012586569E+007,  0.19000000000E+002,  0.00000000000E+000,  0.10000000000E+001
  0.18244940028E+008,  0.20012718751E+007,  0.19000000000E+002,  0.00000000000E+000,  0.10000000000E+001
  0.18245090028E+008,  0.20012850494E+007,  0.19000000000E+002,  0.00000000000E+000,  0.10000000000E+001
  0.18245240028E+008,  0.20012981786E+007,  0.19000000000E+002,  0.00000000000E+000,  0.10000000000E+001
  0.18245390028E+008,  0.20013112626E+007,  0.19000000000E+002,  0.00000000000E+000,  0.10000000000E+001
  0.18245540028E+008,  0.20013243024E+007,  0.19000000000E+002,  0.00000000000E+000,  0.10000000000E+001
  0.18245690028E+008,  0.20013372995E+007,  0.19000000000E+002,  0.00000000000E+000,  0.10000000000E+001
  0.18245840028E+008,  0.20013502561E+007,  0.19000000000E+002,  0.00000000000E+000,  0.10000000000E+001
  0.18245990028E+008,  0.20013631747E+007,  0.19000000000E+002,  0.00000000000E+000,  0.10000000000E+001
  0.18246140028E+008,  0.20013760586E+007,  0.19000000000E+002,  0.00000000000E+000,  0.10000000000E+001
  0.18246290028E+008,  0.20013889110E+007,  0.19000000000E+002,  0.00000000000E+000,  0.10000000000E+001
  0.18246440028E+008,  0.20014017356E+007,  0.19000000000E+002,  0.00000000000E+000,  0.10000000000E+001
  0.18246590028E+008,  0.20014145362E+007,  0.19000000000E+002,  0.00000000000E+000,  0.10000000000E+001
  0.18246740028E+008,  0.20014273166E+007,  0.19000000000E+002,  0.00000000000E+000,  0.10000000000E+001
  0.18246890028E+008,  0.20014400806E+007,  0.19000000000E+002,  0.00000000000E+000,  0.10000000000E+001
  0.18247040028E+008,  0.20014528321E+007,  0.19000000000E+002,  0.00000000000E+000,  0.10000000000E+001
  0.18247190028E+008,  0.20014655747E+007,  0.19000000000E+002,  0.00000000000E+000,  0.10000000000E+001
  0.18247340028E+008,  0.20014783125E+007,  0.19000000000E+002,  0.00000000000E+000,  0.10000000000E+001
  0.18247490028E+008,  0.20014910487E+007,  0.19000000000E+002,  0.00000000000E+000,  0.10000000000E+001
  0.18247640028E+008,  0.20015037870E+007,  0.19000000000E+002,  0.00000000000E+000,  0.10000000000E+001
  0.18247790028E+008,  0.20015165309E+007,  0.19000000000E+002,  0.00000000000E+000,  0.10000000000E+001
  0.18247940028E+008,  0.20015292834E+007,  0.19000000000E+002,  0.00000000000E+000,  0.10000000000E+001
  0.18248090028E+008,  0.20015420475E+007,  0.19000000000E+002,  0.00000000000E+000,  0.10000000000E+001
  0.18248240028E+008,  0.20015548264E+007,  0.19000000000E+002,  0.00000000000E+000,  0.10000000000E+001
  0.18248390028E+008,  0.20015676225E+007,  0.19000000000E+002,  0.00000000000E+000,  0.10000000000E+001
  0.18248540028E+008,  0.20015804384E+007,  0.19000000000E+002,  0.00000000000E+000,  0.10000000000E+001
  0.18248690028E+008,  0.20015932767E+007,  0.19000000000E+002,  0.00000000000E+000,  0.10000000000E+001
  0.18248840028E+008,  0.20016061397E+007,  0.19000000000E+002,  0.00000000000E+000,  0.10000000000E+001
  0.18248990028E+008,  0.20016190291E+007,  0.19000000000E+002,  0.00000000000E+000,  0.10000000000E+001
  0.18249140028E+008,  0.20016319472E+007,  0.19000000000E+002,  0.00000000000E+000,  0.10000000000E+001
  0.18249290028E+008,  0.20016448956E+007,  0.19000000000E+002,  0.00000000000E+000,  0.10000000000E+001
  0.18249440028E+008,  0.20016578761E+007,  0.19000000000E+002,  0.00000000000E+000,  0.10000000000E+001
  0.18249590028E+008,  0.20016708899E+007,  0.19000000000E+002,  0.00000000000E+000,  0.10000000000E+001
  0.18249740028E+008,  0.20016839386E+007,  0.19000000000E+002,  0.00000000000E+000,  0.10000000000E+001
  0.18249890028E+008,  0.20016970232E+007,  0.19000000000E+002,  0.00000000000E+000,  0.10000000000E+001
  0.18250040028E+008,  0.20017101452E+007,  0.19000000000E+002,  0.00000000000E+000,  0.10000000000E+001
  0.18250190028E+008,  0.20017233052E+007,  0.19000000000E+002,  0.00000000000E+000,  0.10000000000E+001
  0.18250340028E+008,  0.20017365041E+007,  0.19000000000E+002,  0.00000000000E+000,  0.10000000000E+001
  0.18250490028E+008,  0.20017497428E+007,  0.19000000000E+002,  0.00000000000E+000,  0.10000000000E+001
  0.18250640028E+008,  0.20017630221E+007,  0.19000000000E+002,  0.00000000000E+000,  0.10000000000E+001
  0.18250790028E+008,  0.20017763422E+007,  0.19000000000E+002,  0.00000000000E+000,  0.10000000000E+001
  0.18250940028E+008,  0.20017897037E+007,  0.19000000000E+002,  0.00000000000E+000,  0.10000000000E+001
  0.18251090028E+008,  0.20018031071E+007,  0.19000000000E+002,  0.00000000000E+000,  0.10000000000E+001
  0.18251240028E+008,  0.20018165529E+007,  0.19000000000E+002,  0.00000000000E+000,  0.10000000000E+001
  0.18251390028E+008,  0.20018300409E+007,  0.19000000000E+002,  0.00000000000E+000,  0.10000000000E+001
  0.18251540028E+008,  0.20018435716E+007,  0.19000000000E+002,  0.00000000000E+000,  0.10000000000E+001
  0.18251690028E+008,  0.20018571450E+007,  0.19000000000E+002,  0.00000000000E+000,  0.10000000000E+001
  0.18251840028E+008,  0.20018707614E+007,  0.19000000000E+002,  0.00000000000E+000,  0.10000000000E+001
  0.18251990028E+008,  0.20018844204E+007,  0.19000000000E+002,  0.00000000000E+000,  0.10000000000E+001
  0.18252140028E+008,  0.20018981221E+007,  0.19000000000E+002,  0.00000000000E+000,  0.10000000000E+001
  0.18252290028E+008,  0.20019118665E+007,  0.19000000000E+002,  0.00000000000E+000,  0.10000000000E+001
  0.18252440028E+008,  0.20019256537E+007,  0.19000000000E+002,  0.00000000000E+000,  0.10000000000E+001
  0.18252590028E+008,  0.20019394831E+007,  0.19000000000E+002,  0.00000000000E+000,  0.10000000000E+001
  0.18252740028E+008,  0.20019533546E+007,  0.19000000000E+002,  0.00000000000E+000,  0.10000000000E+001
  0.18252890028E+008,  0.20019672681E+007,  0.19000000000E+002,  0.00000000000E+000,  0.10000000000E+001
  0.18253040028E+008,  0.20019812235E+007,  0.19000000000E+002,  0.00000000000E+000,  0.10000000000E+001
