"           TIME(S)","              PRES","              TEMP","             SAT_G","             SAT_L"
  0.17962950000E+008,  0.20993941778E+007,  0.19000000000E+002,  0.00000000000E+000,  0.10000000000E+001
  0.17963100000E+008,  0.20947156847E+007,  0.19000000000E+002,  0.00000000000E+000,  0.10000000000E+001
  0.17963250000E+008,  0.20902054076E+007,  0.19000000000E+002,  0.00000000000E+000,  0.10000000000E+001
  0.17963400000E+008,  0.20866570768E+007,  0.19000000000E+002,  0.00000000000E+000,  0.10000000000E+001
  0.17963550000E+008,  0.20839819215E+007,  0.19000000000E+002,  0.00000000000E+000,  0.10000000000E+001
  0.17963700000E+008,  0.20819379487E+007,  0.19000000000E+002,  0.00000000000E+000,  0.10000000000E+001
  0.17963850000E+008,  0.20803246750E+007,  0.19000000000E+002,  0.00000000000E+000,  0.10000000000E+001
  0.17964000000E+008,  0.20790040636E+007,  0.19000000000E+002,  0.00000000000E+000,  0.10000000000E+001
  0.17964150000E+008,  0.20778854885E+007,  0.19000000000E+002,  0.00000000000E+000,  0.10000000000E+001
  0.17964225000E+008,  0.20773677707E+007,  0.19000000000E+002,  0.00000000000E+000,  0.10000000000E+001
  0.17964375000E+008,  0.20764517394E+007,  0.19000000000E+002,  0.00000000000E+000,  0.10000000000E+001
  0.17964525000E+008,  0.20756239161E+007,  0.19000000000E+002,  0.00000000000E+000,  0.10000000000E+001
  0.17964675000E+008,  0.20748632050E+007,  0.19000000000E+002,  0.00000000000E+000,  0.10000000000E+001
  0.17964825000E+008,  0.20741550788E+007,  0.19000000000E+002,  0.00000000000E+000,  0.10000000000E+001
  0.17964975000E+008,  0.20734893411E+007,  0.19000000000E+002,  0.00000000000E+000,  0.10000000000E+001
  0.17965125000E+008,  0.20728586878E+007,  0.19000000000E+002,  0.00000000000E+000,  0.10000000000E+001
  0.17965275000E+008,  0.20722577738E+007,  0.19000000000E+002,  0.00000000000E+000,  0.10000000000E+001
  0.17965425000E+008,  0.20716825980E+007,  0.19000000000E+002,  0.00000000000E+000,  0.10000000000E+001
  0.17965575000E+008,  0.20711300965E+007,  0.19000000000E+002,  0.00000000000E+000,  0.10000000000E+001
  0.17965725000E+008,  0.20705978683E+007,  0.19000000000E+002,  0.00000000000E+000,  0.10000000000E+001
  0.17965800001E+008,  0.20703365555E+007,  0.19000000000E+002,  0.00000000000E+000,  0.10000000000E+001
  0.17965837501E+008,  0.20702070678E+007,  0.19000000000E+002,  0.00000000000E+000,  0.10000000000E+001
  0.17965987501E+008,  0.20697061885E+007,  0.19000000000E+002,  0.00000000000E+000,  0.10000000000E+001
  0.17966062502E+008,  0.20694598262E+007,  0.19000000000E+002,  0.00000000000E+000,  0.10000000000E+001
  0.17966100002E+008,  0.20693376417E+007,  0.19000000000E+002,  0.00000000000E+000,  0.10000000000E+001
  0.17966118753E+008,  0.20692767956E+007,  0.19000000000E+002,  0.00000000000E+000,  0.10000000000E+001
  0.17966212504E+008,  0.20689784150E+007,  0.19000000000E+002,  0.00000000000E+000,  0.10000000000E+001
  0.17966259380E+008,  0.20688306485E+007,  0.19000000000E+002,  0.00000000000E+000,  0.10000000000E+001
  0.17966409380E+008,  0.20683712671E+007,  0.19000000000E+002,  0.00000000000E+000,  0.10000000000E+001
  0.17966559380E+008,  0.20679243227E+007,  0.19000000000E+002,  0.00000000000E+000,  0.10000000000E+001
  0.17966634381E+008,  0.20677038373E+007,  0.19000000000E+002,  0.00000000000E+000,  0.10000000000E+001
  0.17966671881E+008,  0.20675943262E+007,  0.19000000000E+002,  0.00000000000E+000,  0.10000000000E+001
  0.17966690632E+008,  0.20675397516E+007,  0.19000000000E+002,  0.00000000000E+000,  0.10000000000E+001
  0.17966700007E+008,  0.20675125092E+007,  0.19000000000E+002,  0.00000000000E+000,  0.10000000000E+001
  0.17966704695E+008,  0.20674988991E+007,  0.19000000000E+002,  0.00000000000E+000,  0.10000000000E+001
  0.17966728133E+008,  0.20674311265E+007,  0.19000000000E+002,  0.00000000000E+000,  0.10000000000E+001
  0.17966845324E+008,  0.20670987970E+007,  0.19000000000E+002,  0.00000000000E+000,  0.10000000000E+001
  0.17966903920E+008,  0.20669342146E+007,  0.19000000000E+002,  0.00000000000E+000,  0.10000000000E+001
  0.17967053920E+008,  0.20665224570E+007,  0.19000000000E+002,  0.00000000000E+000,  0.10000000000E+001
  0.17967128920E+008,  0.20663188649E+007,  0.19000000000E+002,  0.00000000000E+000,  0.10000000000E+001
  0.17967278920E+008,  0.20659200271E+007,  0.19000000000E+002,  0.00000000000E+000,  0.10000000000E+001
  0.17967353921E+008,  0.20657225929E+007,  0.19000000000E+002,  0.00000000000E+000,  0.10000000000E+001
  0.17967503921E+008,  0.20653348934E+007,  0.19000000000E+002,  0.00000000000E+000,  0.10000000000E+001
  0.17967653921E+008,  0.20649536358E+007,  0.19000000000E+002,  0.00000000000E+000,  0.10000000000E+001
  0.17967803921E+008,  0.20645781619E+007,  0.19000000000E+002,  0.00000000000E+000,  0.10000000000E+001
  0.17967953921E+008,  0.20642078862E+007,  0.19000000000E+002,  0.00000000000E+000,  0.10000000000E+001
  0.17968103921E+008,  0.20638422937E+007,  0.19000000000E+002,  0.00000000000E+000,  0.10000000000E+001
  0.17968253921E+008,  0.20634809349E+007,  0.19000000000E+002,  0.00000000000E+000,  0.10000000000E+001
  0.17968403921E+008,  0.20631234183E+007,  0.19000000000E+002,  0.00000000000E+000,  0.10000000000E+001
  0.17968553921E+008,  0.20627694030E+007,  0.19000000000E+002,  0.00000000000E+000,  0.10000000000E+001
  0.17968703921E+008,  0.20624185924E+007,  0.19000000000E+002,  0.00000000000E+000,  0.10000000000E+001
  0.17968853921E+008,  0.20620707282E+007,  0.19000000000E+002,  0.00000000000E+000,  0.10000000000E+001
  0.17969003921E+008,  0.20617255854E+007,  0.19000000000E+002,  0.00000000000E+000,  0.10000000000E+001
  0.17969153921E+008,  0.20613829682E+007,  0.19000000000E+002,  0.00000000000E+000,  0.10000000000E+001
  0.17969303921E+008,  0.20610427063E+007,  0.19000000000E+002,  0.00000000000E+000,  0.10000000000E+001
  0.17969453921E+008,  0.20607046521E+007,  0.19000000000E+002,  0.00000000000E+000,  0.10000000000E+001
  0.17969603921E+008,  0.20603686777E+007,  0.19000000000E+002,  0.00000000000E+000,  0.10000000000E+001
  0.17969753921E+008,  0.20600346730E+007,  0.19000000000E+002,  0.00000000000E+000,  0.10000000000E+001
  0.17969903921E+008,  0.20597025434E+007,  0.19000000000E+002,  0.00000000000E+000,  0.10000000000E+001
  0.17970053921E+008,  0.20593722080E+007,  0.19000000000E+002,  0.00000000000E+000,  0.10000000000E+001
  0.17970203921E+008,  0.20590435981E+007,  0.19000000000E+002,  0.00000000000E+000,  0.10000000000E+001
  0.17970353921E+008,  0.20587166558E+007,  0.19000000000E+002,  0.00000000000E+000,  0.10000000000E+001
  0.17970503921E+008,  0.20583913323E+007,  0.19000000000E+002,  0.00000000000E+000,  0.10000000000E+001
  0.17970653921E+008,  0.20580675873E+007,  0.19000000000E+002,  0.00000000000E+000,  0.10000000000E+001
  0.17970803921E+008,  0.20577453875E+007,  0.19000000000E+002,  0.00000000000E+000,  0.10000000000E+001
  0.17970953921E+008,  0.20574247056E+007,  0.19000000000E+002,  0.00000000000E+000,  0.10000000000E+001
  0.17971103921E+008,  0.20571055200E+007,  0.19000000000E+002,  0.00000000000E+000,  0.10000000000E+001
  0.17971253921E+008,  0.20567878134E+007,  0.19000000000E+002,  0.00000000000E+000,  0.10000000000E+001
  0.17971403921E+008,  0.20564715725E+007,  0.19000000000E+002,  0.00000000000E+000,  0.10000000000E+001
  0.17971553921E+008,  0.20561567871E+007,  0.19000000000E+002,  0.00000000000E+000,  0.10000000000E+001
  0.17971703921E+008,  0.20558434500E+007,  0.19000000000E+002,  0.00000000000E+000,  0.10000000000E+001
  0.17971853921E+008,  0.20555315562E+007,  0.19000000000E+002,  0.00000000000E+000,  0.10000000000E+001
  0.17972003921E+008,  0.20552211025E+007,  0.19000000000E+002,  0.00000000000E+000,  0.10000000000E+001
  0.17972153921E+008,  0.20549120873E+007,  0.19000000000E+002,  0.00000000000E+000,  0.10000000000E+001
  0.17972303921E+008,  0.20546045103E+007,  0.19000000000E+002,  0.00000000000E+000,  0.10000000000E+001
  0.17972453921E+008,  0.20542983719E+007,  0.19000000000E+002,  0.00000000000E+000,  0.10000000000E+001
  0.17972603921E+008,  0.20539936736E+007,  0.19000000000E+002,  0.00000000000E+000,  0.10000000000E+001
  0.17972753921E+008,  0.20536904171E+007,  0.19000000000E+002,  0.00000000000E+000,  0.10000000000E+001
  0.17972903921E+008,  0.20533886047E+007,  0.19000000000E+002,  0.00000000000E+000,  0.10000000000E+001
  0.17973053921E+008,  0.20530882386E+007,  0.19000000000E+002,  0.00000000000E+000,  0.10000000000E+001
  0.17973203921E+008,  0.20527893215E+007,  0.19000000000E+002,  0.00000000000E+000,  0.10000000000E+001
  0.17973353921E+008,  0.20524918559E+007,  0.19000000000E+002,  0.00000000000E+000,  0.10000000000E+001
  0.17973503921E+008,  0.20521958442E+007,  0.19000000000E+002,  0.00000000000E+000,  0.10000000000E+001
  0.17973653921E+008,  0.20519012887E+007,  0.19000000000E+002,  0.00000000000E+000,  0.10000000000E+001
  0.17973803921E+008,  0.20516081915E+007,  0.19000000000E+002,  0.00000000000E+000,  0.10000000000E+001
  0.17973953921E+008,  0.20513165546E+007,  0.19000000000E+002,  0.00000000000E+000,  0.10000000000E+001
  0.17974103921E+008,  0.20510263796E+007,  0.19000000000E+002,  0.00000000000E+000,  0.10000000000E+001
  0.17974253921E+008,  0.20507376677E+007,  0.19000000000E+002,  0.00000000000E+000,  0.10000000000E+001
  0.17974403921E+008,  0.20504504200E+007,  0.19000000000E+002,  0.00000000000E+000,  0.10000000000E+001
  0.17974553921E+008,  0.20501646373E+007,  0.19000000000E+002,  0.00000000000E+000,  0.10000000000E+001
  0.17974703921E+008,  0.20498803199E+007,  0.19000000000E+002,  0.00000000000E+000,  0.10000000000E+001
  0.17974853921E+008,  0.20495974678E+007,  0.19000000000E+002,  0.00000000000E+000,  0.10000000000E+001
  0.17975003921E+008,  0.20493160809E+007,  0.19000000000E+002,  0.00000000000E+000,  0.10000000000E+001
  0.17975153921E+008,  0.20490361585E+007,  0.19000000000E+002,  0.00000000000E+000,  0.10000000000E+001
  0.17975303921E+008,  0.20487576996E+007,  0.19000000000E+002,  0.00000000000E+000,  0.10000000000E+001
  0.17975453921E+008,  0.20484807032E+007,  0.19000000000E+002,  0.00000000000E+000,  0.10000000000E+001
  0.17975603921E+008,  0.20482051677E+007,  0.19000000000E+002,  0.00000000000E+000,  0.10000000000E+001
  0.17975753921E+008,  0.20479310912E+007,  0.19000000000E+002,  0.00000000000E+000,  0.10000000000E+001
  0.17975903921E+008,  0.20476584717E+007,  0.19000000000E+002,  0.00000000000E+000,  0.10000000000E+001
  0.17976053921E+008,  0.20473873068E+007,  0.19000000000E+002,  0.00000000000E+000,  0.10000000000E+001
  0.17976203921E+008,  0.20471175938E+007,  0.19000000000E+002,  0.00000000000E+000,  0.10000000000E+001
  0.17976353921E+008,  0.20468493301E+007,  0.19000000000E+002,  0.00000000000E+000,  0.10000000000E+001
  0.17976503921E+008,  0.20465825123E+007,  0.19000000000E+002,  0.00000000000E+000,  0.10000000000E+001
  0.17976653921E+008,  0.20463171373E+007,  0.19000000000E+002,  0.00000000000E+000,  0.10000000000E+001
  0.17976803921E+008,  0.20460532014E+007,  0.19000000000E+002,  0.00000000000E+000,  0.10000000000E+001
  0.17976953921E+008,  0.20457907010E+007,  0.19000000000E+002,  0.00000000000E+000,  0.10000000000E+001
  0.17977103921E+008,  0.20455296320E+007,  0.19000000000E+002,  0.00000000000E+000,  0.10000000000E+001
  0.17977253921E+008,  0.20452699905E+007,  0.19000000000E+002,  0.00000000000E+000,  0.10000000000E+001
  0.17977403921E+008,  0.20450117721E+007,  0.19000000000E+002,  0.00000000000E+000,  0.10000000000E+001
  0.17977553921E+008,  0.20447549724E+007,  0.19000000000E+002,  0.00000000000E+000,  0.10000000000E+001
  0.17977703921E+008,  0.20444995868E+007,  0.19000000000E+002,  0.00000000000E+000,  0.10000000000E+001
  0.17977853921E+008,  0.20442456107E+007,  0.19000000000E+002,  0.00000000000E+000,  0.10000000000E+001
  0.17978003921E+008,  0.20439930390E+007,  0.19000000000E+002,  0.00000000000E+000,  0.10000000000E+001
  0.17978153921E+008,  0.20437418670E+007,  0.19000000000E+002,  0.00000000000E+000,  0.10000000000E+001
  0.17978303921E+008,  0.20434920895E+007,  0.19000000000E+002,  0.00000000000E+000,  0.10000000000E+001
  0.17978453921E+008,  0.20432437012E+007,  0.19000000000E+002,  0.00000000000E+000,  0.10000000000E+001
  0.17978603921E+008,  0.20429966970E+007,  0.19000000000E+002,  0.00000000000E+000,  0.10000000000E+001
  0.17978753921E+008,  0.20427510714E+007,  0.19000000000E+002,  0.00000000000E+000,  0.10000000000E+001
  0.17978903921E+008,  0.20425068190E+007,  0.19000000000E+002,  0.00000000000E+000,  0.10000000000E+001
  0.17979053921E+008,  0.20422639342E+007,  0.19000000000E+002,  0.00000000000E+000,  0.10000000000E+001
  0.17979203921E+008,  0.20420224113E+007,  0.19000000000E+002,  0.00000000000E+000,  0.10000000000E+001
  0.17979353921E+008,  0.20417822448E+007,  0.19000000000E+002,  0.00000000000E+000,  0.10000000000E+001
  0.17979503921E+008,  0.20415434289E+007,  0.19000000000E+002,  0.00000000000E+000,  0.10000000000E+001
  0.17979653921E+008,  0.20413059577E+007,  0.19000000000E+002,  0.00000000000E+000,  0.10000000000E+001
  0.17979803921E+008,  0.20410698254E+007,  0.19000000000E+002,  0.00000000000E+000,  0.10000000000E+001
  0.17979953921E+008,  0.20408350262E+007,  0.19000000000E+002,  0.00000000000E+000,  0.10000000000E+001
  0.17980103921E+008,  0.20406015540E+007,  0.19000000000E+002,  0.00000000000E+000,  0.10000000000E+001
  0.17980253921E+008,  0.20403694028E+007,  0.19000000000E+002,  0.00000000000E+000,  0.10000000000E+001
  0.17980403921E+008,  0.20401385667E+007,  0.19000000000E+002,  0.00000000000E+000,  0.10000000000E+001
  0.17980553921E+008,  0.20399090396E+007,  0.19000000000E+002,  0.00000000000E+000,  0.10000000000E+001
  0.17980703921E+008,  0.20396808154E+007,  0.19000000000E+002,  0.00000000000E+000,  0.10000000000E+001
  0.17980853921E+008,  0.20394538880E+007,  0.19000000000E+002,  0.00000000000E+000,  0.10000000000E+001
  0.17981003921E+008,  0.20392282513E+007,  0.19000000000E+002,  0.00000000000E+000,  0.10000000000E+001
  0.17981153921E+008,  0.20390038991E+007,  0.19000000000E+002,  0.00000000000E+000,  0.10000000000E+001
  0.17981303921E+008,  0.20387808252E+007,  0.19000000000E+002,  0.00000000000E+000,  0.10000000000E+001
  0.17981453921E+008,  0.20385590236E+007,  0.19000000000E+002,  0.00000000000E+000,  0.10000000000E+001
  0.17981603921E+008,  0.20383384880E+007,  0.19000000000E+002,  0.00000000000E+000,  0.10000000000E+001
  0.17981753921E+008,  0.20381192121E+007,  0.19000000000E+002,  0.00000000000E+000,  0.10000000000E+001
  0.17981903921E+008,  0.20379011898E+007,  0.19000000000E+002,  0.00000000000E+000,  0.10000000000E+001
  0.17982053921E+008,  0.20376844150E+007,  0.19000000000E+002,  0.00000000000E+000,  0.10000000000E+001
  0.17982203921E+008,  0.20374688812E+007,  0.19000000000E+002,  0.00000000000E+000,  0.10000000000E+001
  0.17982353921E+008,  0.20372545825E+007,  0.19000000000E+002,  0.00000000000E+000,  0.10000000000E+001
  0.17982503921E+008,  0.20370415124E+007,  0.19000000000E+002,  0.00000000000E+000,  0.10000000000E+001
  0.17982653921E+008,  0.20368296649E+007,  0.19000000000E+002,  0.00000000000E+000,  0.10000000000E+001
  0.17982803921E+008,  0.20366190336E+007,  0.19000000000E+002,  0.00000000000E+000,  0.10000000000E+001
  0.17982953921E+008,  0.20364096125E+007,  0.19000000000E+002,  0.00000000000E+000,  0.10000000000E+001
  0.17983103921E+008,  0.20362013952E+007,  0.19000000000E+002,  0.00000000000E+000,  0.10000000000E+001
  0.17983253921E+008,  0.20359943756E+007,  0.19000000000E+002,  0.00000000000E+000,  0.10000000000E+001
  0.17983403921E+008,  0.20357885476E+007,  0.19000000000E+002,  0.00000000000E+000,  0.10000000000E+001
  0.17983553921E+008,  0.20355839048E+007,  0.19000000000E+002,  0.00000000000E+000,  0.10000000000E+001
  0.17983703921E+008,  0.20353804412E+007,  0.19000000000E+002,  0.00000000000E+000,  0.10000000000E+001
  0.17983853921E+008,  0.20351781506E+007,  0.19000000000E+002,  0.00000000000E+000,  0.10000000000E+001
  0.17984003921E+008,  0.20349770269E+007,  0.19000000000E+002,  0.00000000000E+000,  0.10000000000E+001
  0.17984153921E+008,  0.20347770639E+007,  0.19000000000E+002,  0.00000000000E+000,  0.10000000000E+001
  0.17984303921E+008,  0.20345782555E+007,  0.19000000000E+002,  0.00000000000E+000,  0.10000000000E+001
  0.17984453921E+008,  0.20343805956E+007,  0.19000000000E+002,  0.00000000000E+000,  0.10000000000E+001
  0.17984603921E+008,  0.20341840782E+007,  0.19000000000E+002,  0.00000000000E+000,  0.10000000000E+001
  0.17984753921E+008,  0.20339886971E+007,  0.19000000000E+002,  0.00000000000E+000,  0.10000000000E+001
  0.17984903921E+008,  0.20337944462E+007,  0.19000000000E+002,  0.00000000000E+000,  0.10000000000E+001
  0.17985053921E+008,  0.20336013197E+007,  0.19000000000E+002,  0.00000000000E+000,  0.10000000000E+001
  0.17985203921E+008,  0.20334093113E+007,  0.19000000000E+002,  0.00000000000E+000,  0.10000000000E+001
  0.17985353921E+008,  0.20332184152E+007,  0.19000000000E+002,  0.00000000000E+000,  0.10000000000E+001
  0.17985503921E+008,  0.20330286253E+007,  0.19000000000E+002,  0.00000000000E+000,  0.10000000000E+001
  0.17985653921E+008,  0.20328399358E+007,  0.19000000000E+002,  0.00000000000E+000,  0.10000000000E+001
  0.17985803921E+008,  0.20326523405E+007,  0.19000000000E+002,  0.00000000000E+000,  0.10000000000E+001
  0.17985953921E+008,  0.20324658337E+007,  0.19000000000E+002,  0.00000000000E+000,  0.10000000000E+001
  0.17986103921E+008,  0.20322804094E+007,  0.19000000000E+002,  0.00000000000E+000,  0.10000000000E+001
  0.17986253921E+008,  0.20320960618E+007,  0.19000000000E+002,  0.00000000000E+000,  0.10000000000E+001
  0.17986403921E+008,  0.20319127849E+007,  0.19000000000E+002,  0.00000000000E+000,  0.10000000000E+001
  0.17986553921E+008,  0.20317305729E+007,  0.19000000000E+002,  0.00000000000E+000,  0.10000000000E+001
  0.17986703921E+008,  0.20315494201E+007,  0.19000000000E+002,  0.00000000000E+000,  0.10000000000E+001
  0.17986853921E+008,  0.20313693205E+007,  0.19000000000E+002,  0.00000000000E+000,  0.10000000000E+001
  0.17987003921E+008,  0.20311902686E+007,  0.19000000000E+002,  0.00000000000E+000,  0.10000000000E+001
  0.17987153921E+008,  0.20310122584E+007,  0.19000000000E+002,  0.00000000000E+000,  0.10000000000E+001
  0.17987303921E+008,  0.20308352843E+007,  0.19000000000E+002,  0.00000000000E+000,  0.10000000000E+001
  0.17987453921E+008,  0.20306593405E+007,  0.19000000000E+002,  0.00000000000E+000,  0.10000000000E+001
  0.17987603921E+008,  0.20304844214E+007,  0.19000000000E+002,  0.00000000000E+000,  0.10000000000E+001
  0.17987753921E+008,  0.20303105214E+007,  0.19000000000E+002,  0.00000000000E+000,  0.10000000000E+001
  0.17987903921E+008,  0.20301376347E+007,  0.19000000000E+002,  0.00000000000E+000,  0.10000000000E+001
  0.17988053921E+008,  0.20299657559E+007,  0.19000000000E+002,  0.00000000000E+000,  0.10000000000E+001
  0.17988203921E+008,  0.20297948792E+007,  0.19000000000E+002,  0.00000000000E+000,  0.10000000000E+001
  0.17988353921E+008,  0.20296249991E+007,  0.19000000000E+002,  0.00000000000E+000,  0.10000000000E+001
  0.17988503921E+008,  0.20294561102E+007,  0.19000000000E+002,  0.00000000000E+000,  0.10000000000E+001
  0.17988653921E+008,  0.20292882068E+007,  0.19000000000E+002,  0.00000000000E+000,  0.10000000000E+001
  0.17988803921E+008,  0.20291212835E+007,  0.19000000000E+002,  0.00000000000E+000,  0.10000000000E+001
  0.17988953921E+008,  0.20289553348E+007,  0.19000000000E+002,  0.00000000000E+000,  0.10000000000E+001
  0.17989103921E+008,  0.20287903553E+007,  0.19000000000E+002,  0.00000000000E+000,  0.10000000000E+001
  0.17989253921E+008,  0.20286263396E+007,  0.19000000000E+002,  0.00000000000E+000,  0.10000000000E+001
  0.17989403921E+008,  0.20284632822E+007,  0.19000000000E+002,  0.00000000000E+000,  0.10000000000E+001
