"           TIME(S)","              PRES","              TEMP","             SAT_G","             SAT_L"
  0.17592105000E+008,  0.21000000000E+007,  0.19000000000E+002,  0.00000000000E+000,  0.10000000000E+001
  0.17592130000E+008,  0.20999988336E+007,  0.19000000000E+002,  0.00000000000E+000,  0.10000000000E+001
  0.17592255000E+008,  0.20996464206E+007,  0.19000000000E+002,  0.00000000000E+000,  0.10000000000E+001
  0.17592405000E+008,  0.20987388156E+007,  0.19000000000E+002,  0.00000000000E+000,  0.10000000000E+001
  0.17592555000E+008,  0.20975852638E+007,  0.19000000000E+002,  0.00000000000E+000,  0.10000000000E+001
  0.17592705000E+008,  0.20963812948E+007,  0.19000000000E+002,  0.00000000000E+000,  0.10000000000E+001
  0.17592855000E+008,  0.20952290307E+007,  0.19000000000E+002,  0.00000000000E+000,  0.10000000000E+001
  0.17593005000E+008,  0.20941651715E+007,  0.19000000000E+002,  0.00000000000E+000,  0.10000000000E+001
  0.17593155000E+008,  0.20931931563E+007,  0.19000000000E+002,  0.00000000000E+000,  0.10000000000E+001
  0.17593305000E+008,  0.20923031261E+007,  0.19000000000E+002,  0.00000000000E+000,  0.10000000000E+001
  0.17593455000E+008,  0.20914817929E+007,  0.19000000000E+002,  0.00000000000E+000,  0.10000000000E+001
  0.17593605000E+008,  0.20907165711E+007,  0.19000000000E+002,  0.00000000000E+000,  0.10000000000E+001
  0.17593755000E+008,  0.20899969352E+007,  0.19000000000E+002,  0.00000000000E+000,  0.10000000000E+001
  0.17593905000E+008,  0.20893145820E+007,  0.19000000000E+002,  0.00000000000E+000,  0.10000000000E+001
  0.17594055000E+008,  0.20886631542E+007,  0.19000000000E+002,  0.00000000000E+000,  0.10000000000E+001
  0.17594205000E+008,  0.20880378521E+007,  0.19000000000E+002,  0.00000000000E+000,  0.10000000000E+001
  0.17594355000E+008,  0.20874350683E+007,  0.19000000000E+002,  0.00000000000E+000,  0.10000000000E+001
  0.17594505000E+008,  0.20868520831E+007,  0.19000000000E+002,  0.00000000000E+000,  0.10000000000E+001
  0.17594655000E+008,  0.20862868293E+007,  0.19000000000E+002,  0.00000000000E+000,  0.10000000000E+001
  0.17594805000E+008,  0.20857377150E+007,  0.19000000000E+002,  0.00000000000E+000,  0.10000000000E+001
  0.17594955000E+008,  0.20852034939E+007,  0.19000000000E+002,  0.00000000000E+000,  0.10000000000E+001
  0.17595105000E+008,  0.20846831709E+007,  0.19000000000E+002,  0.00000000000E+000,  0.10000000000E+001
  0.17595255000E+008,  0.20841759348E+007,  0.19000000000E+002,  0.00000000000E+000,  0.10000000000E+001
  0.17595405000E+008,  0.20836811099E+007,  0.19000000000E+002,  0.00000000000E+000,  0.10000000000E+001
  0.17595555000E+008,  0.20831981519E+007,  0.19000000000E+002,  0.00000000000E+000,  0.10000000000E+001
  0.17595564375E+008,  0.20831680130E+007,  0.19000000000E+002,  0.00000000000E+000,  0.10000000000E+001
  0.17595611250E+008,  0.20830184595E+007,  0.19000000000E+002,  0.00000000000E+000,  0.10000000000E+001
  0.17595761250E+008,  0.20825511335E+007,  0.19000000000E+002,  0.00000000000E+000,  0.10000000000E+001
  0.17595836251E+008,  0.20823202259E+007,  0.19000000000E+002,  0.00000000000E+000,  0.10000000000E+001
  0.17595986251E+008,  0.20818689934E+007,  0.19000000000E+002,  0.00000000000E+000,  0.10000000000E+001
  0.17596061251E+008,  0.20816459625E+007,  0.19000000000E+002,  0.00000000000E+000,  0.10000000000E+001
  0.17596098752E+008,  0.20815350856E+007,  0.19000000000E+002,  0.00000000000E+000,  0.10000000000E+001
  0.17596248752E+008,  0.20811012648E+007,  0.19000000000E+002,  0.00000000000E+000,  0.10000000000E+001
  0.17596398752E+008,  0.20806766066E+007,  0.19000000000E+002,  0.00000000000E+000,  0.10000000000E+001
  0.17596473752E+008,  0.20804665046E+007,  0.19000000000E+002,  0.00000000000E+000,  0.10000000000E+001
  0.17596511253E+008,  0.20803620024E+007,  0.19000000000E+002,  0.00000000000E+000,  0.10000000000E+001
  0.17596661253E+008,  0.20799522804E+007,  0.19000000000E+002,  0.00000000000E+000,  0.10000000000E+001
  0.17596736253E+008,  0.20797494211E+007,  0.19000000000E+002,  0.00000000000E+000,  0.10000000000E+001
  0.17596773754E+008,  0.20796484828E+007,  0.19000000000E+002,  0.00000000000E+000,  0.10000000000E+001
  0.17596923754E+008,  0.20792520224E+007,  0.19000000000E+002,  0.00000000000E+000,  0.10000000000E+001
  0.17596998754E+008,  0.20790555374E+007,  0.19000000000E+002,  0.00000000000E+000,  0.10000000000E+001
  0.17597036254E+008,  0.20789577210E+007,  0.19000000000E+002,  0.00000000000E+000,  0.10000000000E+001
  0.17597055005E+008,  0.20789089179E+007,  0.19000000000E+002,  0.00000000000E+000,  0.10000000000E+001
  0.17597148757E+008,  0.20786673645E+007,  0.19000000000E+002,  0.00000000000E+000,  0.10000000000E+001
  0.17597298757E+008,  0.20782865547E+007,  0.19000000000E+002,  0.00000000000E+000,  0.10000000000E+001
  0.17597448757E+008,  0.20779109282E+007,  0.19000000000E+002,  0.00000000000E+000,  0.10000000000E+001
  0.17597598757E+008,  0.20775401476E+007,  0.19000000000E+002,  0.00000000000E+000,  0.10000000000E+001
  0.17597748757E+008,  0.20771740026E+007,  0.19000000000E+002,  0.00000000000E+000,  0.10000000000E+001
  0.17597898757E+008,  0.20768123843E+007,  0.19000000000E+002,  0.00000000000E+000,  0.10000000000E+001
  0.17598048757E+008,  0.20764552583E+007,  0.19000000000E+002,  0.00000000000E+000,  0.10000000000E+001
  0.17598198757E+008,  0.20761026405E+007,  0.19000000000E+002,  0.00000000000E+000,  0.10000000000E+001
  0.17598348757E+008,  0.20757545760E+007,  0.19000000000E+002,  0.00000000000E+000,  0.10000000000E+001
  0.17598498757E+008,  0.20754111239E+007,  0.19000000000E+002,  0.00000000000E+000,  0.10000000000E+001
  0.17598648757E+008,  0.20750723454E+007,  0.19000000000E+002,  0.00000000000E+000,  0.10000000000E+001
  0.17598798757E+008,  0.20747382967E+007,  0.19000000000E+002,  0.00000000000E+000,  0.10000000000E+001
  0.17598948757E+008,  0.20744090244E+007,  0.19000000000E+002,  0.00000000000E+000,  0.10000000000E+001
  0.17599098757E+008,  0.20740845633E+007,  0.19000000000E+002,  0.00000000000E+000,  0.10000000000E+001
  0.17599248757E+008,  0.20737649352E+007,  0.19000000000E+002,  0.00000000000E+000,  0.10000000000E+001
  0.17599398757E+008,  0.20734501495E+007,  0.19000000000E+002,  0.00000000000E+000,  0.10000000000E+001
  0.17599548757E+008,  0.20731402039E+007,  0.19000000000E+002,  0.00000000000E+000,  0.10000000000E+001
  0.17599698757E+008,  0.20728350852E+007,  0.19000000000E+002,  0.00000000000E+000,  0.10000000000E+001
  0.17599848757E+008,  0.20725347707E+007,  0.19000000000E+002,  0.00000000000E+000,  0.10000000000E+001
  0.17599998757E+008,  0.20722392296E+007,  0.19000000000E+002,  0.00000000000E+000,  0.10000000000E+001
  0.17600148757E+008,  0.20719484243E+007,  0.19000000000E+002,  0.00000000000E+000,  0.10000000000E+001
  0.17600298757E+008,  0.20716623112E+007,  0.19000000000E+002,  0.00000000000E+000,  0.10000000000E+001
  0.17600448757E+008,  0.20713808422E+007,  0.19000000000E+002,  0.00000000000E+000,  0.10000000000E+001
  0.17600598757E+008,  0.20711039652E+007,  0.19000000000E+002,  0.00000000000E+000,  0.10000000000E+001
  0.17600748757E+008,  0.20708316251E+007,  0.19000000000E+002,  0.00000000000E+000,  0.10000000000E+001
  0.17600898757E+008,  0.20705637646E+007,  0.19000000000E+002,  0.00000000000E+000,  0.10000000000E+001
  0.17601048757E+008,  0.20703003246E+007,  0.19000000000E+002,  0.00000000000E+000,  0.10000000000E+001
  0.17601198757E+008,  0.20700412445E+007,  0.19000000000E+002,  0.00000000000E+000,  0.10000000000E+001
  0.17601348757E+008,  0.20697864631E+007,  0.19000000000E+002,  0.00000000000E+000,  0.10000000000E+001
  0.17601498757E+008,  0.20695359185E+007,  0.19000000000E+002,  0.00000000000E+000,  0.10000000000E+001
  0.17601648757E+008,  0.20692895484E+007,  0.19000000000E+002,  0.00000000000E+000,  0.10000000000E+001
  0.17601798757E+008,  0.20690472906E+007,  0.19000000000E+002,  0.00000000000E+000,  0.10000000000E+001
  0.17601948757E+008,  0.20688090828E+007,  0.19000000000E+002,  0.00000000000E+000,  0.10000000000E+001
  0.17602098757E+008,  0.20685748632E+007,  0.19000000000E+002,  0.00000000000E+000,  0.10000000000E+001
  0.17602248757E+008,  0.20683445701E+007,  0.19000000000E+002,  0.00000000000E+000,  0.10000000000E+001
  0.17602398757E+008,  0.20681181424E+007,  0.19000000000E+002,  0.00000000000E+000,  0.10000000000E+001
  0.17602548757E+008,  0.20678955193E+007,  0.19000000000E+002,  0.00000000000E+000,  0.10000000000E+001
  0.17602698757E+008,  0.20676766408E+007,  0.19000000000E+002,  0.00000000000E+000,  0.10000000000E+001
  0.17602848757E+008,  0.20674614473E+007,  0.19000000000E+002,  0.00000000000E+000,  0.10000000000E+001
  0.17602998757E+008,  0.20672498801E+007,  0.19000000000E+002,  0.00000000000E+000,  0.10000000000E+001
  0.17603148757E+008,  0.20670418810E+007,  0.19000000000E+002,  0.00000000000E+000,  0.10000000000E+001
  0.17603298757E+008,  0.20668373925E+007,  0.19000000000E+002,  0.00000000000E+000,  0.10000000000E+001
  0.17603448757E+008,  0.20666363579E+007,  0.19000000000E+002,  0.00000000000E+000,  0.10000000000E+001
  0.17603598757E+008,  0.20664387210E+007,  0.19000000000E+002,  0.00000000000E+000,  0.10000000000E+001
  0.17603748757E+008,  0.20662444267E+007,  0.19000000000E+002,  0.00000000000E+000,  0.10000000000E+001
  0.17603898757E+008,  0.20660534204E+007,  0.19000000000E+002,  0.00000000000E+000,  0.10000000000E+001
  0.17604048757E+008,  0.20658656483E+007,  0.19000000000E+002,  0.00000000000E+000,  0.10000000000E+001
  0.17604198757E+008,  0.20656810572E+007,  0.19000000000E+002,  0.00000000000E+000,  0.10000000000E+001
  0.17604348757E+008,  0.20654995950E+007,  0.19000000000E+002,  0.00000000000E+000,  0.10000000000E+001
  0.17604498757E+008,  0.20653212100E+007,  0.19000000000E+002,  0.00000000000E+000,  0.10000000000E+001
  0.17604648757E+008,  0.20651458514E+007,  0.19000000000E+002,  0.00000000000E+000,  0.10000000000E+001
  0.17604798757E+008,  0.20649734691E+007,  0.19000000000E+002,  0.00000000000E+000,  0.10000000000E+001
  0.17604948757E+008,  0.20648040138E+007,  0.19000000000E+002,  0.00000000000E+000,  0.10000000000E+001
  0.17605098757E+008,  0.20646374368E+007,  0.19000000000E+002,  0.00000000000E+000,  0.10000000000E+001
  0.17605248757E+008,  0.20644736904E+007,  0.19000000000E+002,  0.00000000000E+000,  0.10000000000E+001
  0.17605398757E+008,  0.20643127273E+007,  0.19000000000E+002,  0.00000000000E+000,  0.10000000000E+001
  0.17605548757E+008,  0.20641545012E+007,  0.19000000000E+002,  0.00000000000E+000,  0.10000000000E+001
  0.17605698757E+008,  0.20639989662E+007,  0.19000000000E+002,  0.00000000000E+000,  0.10000000000E+001
  0.17605848757E+008,  0.20638460774E+007,  0.19000000000E+002,  0.00000000000E+000,  0.10000000000E+001
  0.17605998757E+008,  0.20636957905E+007,  0.19000000000E+002,  0.00000000000E+000,  0.10000000000E+001
  0.17606148757E+008,  0.20635480618E+007,  0.19000000000E+002,  0.00000000000E+000,  0.10000000000E+001
  0.17606298757E+008,  0.20634028485E+007,  0.19000000000E+002,  0.00000000000E+000,  0.10000000000E+001
  0.17606448757E+008,  0.20632601083E+007,  0.19000000000E+002,  0.00000000000E+000,  0.10000000000E+001
  0.17606598757E+008,  0.20631197995E+007,  0.19000000000E+002,  0.00000000000E+000,  0.10000000000E+001
  0.17606748757E+008,  0.20629818812E+007,  0.19000000000E+002,  0.00000000000E+000,  0.10000000000E+001
  0.17606898757E+008,  0.20628463133E+007,  0.19000000000E+002,  0.00000000000E+000,  0.10000000000E+001
  0.17607048757E+008,  0.20627130560E+007,  0.19000000000E+002,  0.00000000000E+000,  0.10000000000E+001
  0.17607198757E+008,  0.20625820705E+007,  0.19000000000E+002,  0.00000000000E+000,  0.10000000000E+001
  0.17607348757E+008,  0.20624533182E+007,  0.19000000000E+002,  0.00000000000E+000,  0.10000000000E+001
  0.17607498757E+008,  0.20623267615E+007,  0.19000000000E+002,  0.00000000000E+000,  0.10000000000E+001
  0.17607648757E+008,  0.20622023634E+007,  0.19000000000E+002,  0.00000000000E+000,  0.10000000000E+001
  0.17607798757E+008,  0.20620800872E+007,  0.19000000000E+002,  0.00000000000E+000,  0.10000000000E+001
  0.17607948757E+008,  0.20619598971E+007,  0.19000000000E+002,  0.00000000000E+000,  0.10000000000E+001
  0.17608098757E+008,  0.20618417576E+007,  0.19000000000E+002,  0.00000000000E+000,  0.10000000000E+001
  0.17608248757E+008,  0.20617256342E+007,  0.19000000000E+002,  0.00000000000E+000,  0.10000000000E+001
  0.17608398757E+008,  0.20616114926E+007,  0.19000000000E+002,  0.00000000000E+000,  0.10000000000E+001
  0.17608548757E+008,  0.20614992992E+007,  0.19000000000E+002,  0.00000000000E+000,  0.10000000000E+001
  0.17608698757E+008,  0.20613890210E+007,  0.19000000000E+002,  0.00000000000E+000,  0.10000000000E+001
  0.17608848757E+008,  0.20612806253E+007,  0.19000000000E+002,  0.00000000000E+000,  0.10000000000E+001
  0.17608998757E+008,  0.20611740804E+007,  0.19000000000E+002,  0.00000000000E+000,  0.10000000000E+001
  0.17609148757E+008,  0.20610693547E+007,  0.19000000000E+002,  0.00000000000E+000,  0.10000000000E+001
  0.17609298757E+008,  0.20609664173E+007,  0.19000000000E+002,  0.00000000000E+000,  0.10000000000E+001
  0.17609448757E+008,  0.20608652378E+007,  0.19000000000E+002,  0.00000000000E+000,  0.10000000000E+001
  0.17609598757E+008,  0.20607657864E+007,  0.19000000000E+002,  0.00000000000E+000,  0.10000000000E+001
  0.17609748757E+008,  0.20606680335E+007,  0.19000000000E+002,  0.00000000000E+000,  0.10000000000E+001
  0.17609898757E+008,  0.20605719505E+007,  0.19000000000E+002,  0.00000000000E+000,  0.10000000000E+001
  0.17610048757E+008,  0.20604775087E+007,  0.19000000000E+002,  0.00000000000E+000,  0.10000000000E+001
  0.17610198757E+008,  0.20603846803E+007,  0.19000000000E+002,  0.00000000000E+000,  0.10000000000E+001
  0.17610348757E+008,  0.20602934377E+007,  0.19000000000E+002,  0.00000000000E+000,  0.10000000000E+001
  0.17610498757E+008,  0.20602037541E+007,  0.19000000000E+002,  0.00000000000E+000,  0.10000000000E+001
  0.17610648757E+008,  0.20601156028E+007,  0.19000000000E+002,  0.00000000000E+000,  0.10000000000E+001
  0.17610798757E+008,  0.20600289577E+007,  0.19000000000E+002,  0.00000000000E+000,  0.10000000000E+001
  0.17610948757E+008,  0.20599437931E+007,  0.19000000000E+002,  0.00000000000E+000,  0.10000000000E+001
  0.17611098757E+008,  0.20598600838E+007,  0.19000000000E+002,  0.00000000000E+000,  0.10000000000E+001
  0.17611248757E+008,  0.20597778050E+007,  0.19000000000E+002,  0.00000000000E+000,  0.10000000000E+001
  0.17611398757E+008,  0.20596969322E+007,  0.19000000000E+002,  0.00000000000E+000,  0.10000000000E+001
  0.17611548757E+008,  0.20596174416E+007,  0.19000000000E+002,  0.00000000000E+000,  0.10000000000E+001
  0.17611698757E+008,  0.20595393094E+007,  0.19000000000E+002,  0.00000000000E+000,  0.10000000000E+001
  0.17611848757E+008,  0.20594625126E+007,  0.19000000000E+002,  0.00000000000E+000,  0.10000000000E+001
  0.17611998757E+008,  0.20593870283E+007,  0.19000000000E+002,  0.00000000000E+000,  0.10000000000E+001
  0.17612148757E+008,  0.20593128342E+007,  0.19000000000E+002,  0.00000000000E+000,  0.10000000000E+001
  0.17612298757E+008,  0.20592399081E+007,  0.19000000000E+002,  0.00000000000E+000,  0.10000000000E+001
  0.17612448757E+008,  0.20591682285E+007,  0.19000000000E+002,  0.00000000000E+000,  0.10000000000E+001
  0.17612598757E+008,  0.20590977741E+007,  0.19000000000E+002,  0.00000000000E+000,  0.10000000000E+001
  0.17612748757E+008,  0.20590285239E+007,  0.19000000000E+002,  0.00000000000E+000,  0.10000000000E+001
  0.17612898757E+008,  0.20589604573E+007,  0.19000000000E+002,  0.00000000000E+000,  0.10000000000E+001
  0.17613048757E+008,  0.20588935542E+007,  0.19000000000E+002,  0.00000000000E+000,  0.10000000000E+001
  0.17613198757E+008,  0.20588277946E+007,  0.19000000000E+002,  0.00000000000E+000,  0.10000000000E+001
  0.17613348757E+008,  0.20587631591E+007,  0.19000000000E+002,  0.00000000000E+000,  0.10000000000E+001
  0.17613498757E+008,  0.20586996283E+007,  0.19000000000E+002,  0.00000000000E+000,  0.10000000000E+001
  0.17613648757E+008,  0.20586371835E+007,  0.19000000000E+002,  0.00000000000E+000,  0.10000000000E+001
  0.17613798757E+008,  0.20585758060E+007,  0.19000000000E+002,  0.00000000000E+000,  0.10000000000E+001
  0.17613948757E+008,  0.20585154777E+007,  0.19000000000E+002,  0.00000000000E+000,  0.10000000000E+001
  0.17614098757E+008,  0.20584561804E+007,  0.19000000000E+002,  0.00000000000E+000,  0.10000000000E+001
  0.17614248757E+008,  0.20583978968E+007,  0.19000000000E+002,  0.00000000000E+000,  0.10000000000E+001
  0.17614398757E+008,  0.20583406093E+007,  0.19000000000E+002,  0.00000000000E+000,  0.10000000000E+001
  0.17614548757E+008,  0.20582843009E+007,  0.19000000000E+002,  0.00000000000E+000,  0.10000000000E+001
  0.17614698757E+008,  0.20582289550E+007,  0.19000000000E+002,  0.00000000000E+000,  0.10000000000E+001
  0.17614848757E+008,  0.20581745550E+007,  0.19000000000E+002,  0.00000000000E+000,  0.10000000000E+001
  0.17614998757E+008,  0.20581210847E+007,  0.19000000000E+002,  0.00000000000E+000,  0.10000000000E+001
  0.17615148757E+008,  0.20580685283E+007,  0.19000000000E+002,  0.00000000000E+000,  0.10000000000E+001
  0.17615298757E+008,  0.20580168701E+007,  0.19000000000E+002,  0.00000000000E+000,  0.10000000000E+001
  0.17615448757E+008,  0.20579660948E+007,  0.19000000000E+002,  0.00000000000E+000,  0.10000000000E+001
  0.17615598757E+008,  0.20579161872E+007,  0.19000000000E+002,  0.00000000000E+000,  0.10000000000E+001
  0.17615748757E+008,  0.20578671324E+007,  0.19000000000E+002,  0.00000000000E+000,  0.10000000000E+001
  0.17615898757E+008,  0.20578189159E+007,  0.19000000000E+002,  0.00000000000E+000,  0.10000000000E+001
  0.17616048757E+008,  0.20577715234E+007,  0.19000000000E+002,  0.00000000000E+000,  0.10000000000E+001
  0.17616198757E+008,  0.20577249406E+007,  0.19000000000E+002,  0.00000000000E+000,  0.10000000000E+001
  0.17616348757E+008,  0.20576791538E+007,  0.19000000000E+002,  0.00000000000E+000,  0.10000000000E+001
  0.17616498757E+008,  0.20576341494E+007,  0.19000000000E+002,  0.00000000000E+000,  0.10000000000E+001
  0.17616648757E+008,  0.20575899138E+007,  0.19000000000E+002,  0.00000000000E+000,  0.10000000000E+001
  0.17616798757E+008,  0.20575464340E+007,  0.19000000000E+002,  0.00000000000E+000,  0.10000000000E+001
  0.17616948757E+008,  0.20575036971E+007,  0.19000000000E+002,  0.00000000000E+000,  0.10000000000E+001
  0.17617098757E+008,  0.20574616902E+007,  0.19000000000E+002,  0.00000000000E+000,  0.10000000000E+001
  0.17617248757E+008,  0.20574204011E+007,  0.19000000000E+002,  0.00000000000E+000,  0.10000000000E+001
  0.17617398757E+008,  0.20573798172E+007,  0.19000000000E+002,  0.00000000000E+000,  0.10000000000E+001
  0.17617548757E+008,  0.20573399265E+007,  0.19000000000E+002,  0.00000000000E+000,  0.10000000000E+001
  0.17617698757E+008,  0.20573007171E+007,  0.19000000000E+002,  0.00000000000E+000,  0.10000000000E+001
  0.17617848757E+008,  0.20572621773E+007,  0.19000000000E+002,  0.00000000000E+000,  0.10000000000E+001
  0.17617998757E+008,  0.20572242958E+007,  0.19000000000E+002,  0.00000000000E+000,  0.10000000000E+001
  0.17618148757E+008,  0.20571870611E+007,  0.19000000000E+002,  0.00000000000E+000,  0.10000000000E+001
  0.17618298757E+008,  0.20571504623E+007,  0.19000000000E+002,  0.00000000000E+000,  0.10000000000E+001
  0.17618448757E+008,  0.20571144884E+007,  0.19000000000E+002,  0.00000000000E+000,  0.10000000000E+001
  0.17618598757E+008,  0.20570791288E+007,  0.19000000000E+002,  0.00000000000E+000,  0.10000000000E+001
  0.17618748757E+008,  0.20570443728E+007,  0.19000000000E+002,  0.00000000000E+000,  0.10000000000E+001
  0.17618898757E+008,  0.20570102102E+007,  0.19000000000E+002,  0.00000000000E+000,  0.10000000000E+001
