"           TIME(S)","              PRES","              TEMP","             SAT_G","             SAT_L"
  0.17592105000E+008,  0.20999998470E+007,  0.19000000000E+002,  0.00000000000E+000,  0.10000000000E+001
  0.17592130000E+008,  0.20998704094E+007,  0.19000000000E+002,  0.00000000000E+000,  0.10000000000E+001
  0.17592255000E+008,  0.20962074506E+007,  0.19000000000E+002,  0.00000000000E+000,  0.10000000000E+001
  0.17592405000E+008,  0.20914531992E+007,  0.19000000000E+002,  0.00000000000E+000,  0.10000000000E+001
  0.17592555000E+008,  0.20876169732E+007,  0.19000000000E+002,  0.00000000000E+000,  0.10000000000E+001
  0.17592705000E+008,  0.20847215276E+007,  0.19000000000E+002,  0.00000000000E+000,  0.10000000000E+001
  0.17592855000E+008,  0.20825248092E+007,  0.19000000000E+002,  0.00000000000E+000,  0.10000000000E+001
  0.17593005000E+008,  0.20808073429E+007,  0.19000000000E+002,  0.00000000000E+000,  0.10000000000E+001
  0.17593155000E+008,  0.20794147690E+007,  0.19000000000E+002,  0.00000000000E+000,  0.10000000000E+001
  0.17593305000E+008,  0.20782452802E+007,  0.19000000000E+002,  0.00000000000E+000,  0.10000000000E+001
  0.17593455000E+008,  0.20772324457E+007,  0.19000000000E+002,  0.00000000000E+000,  0.10000000000E+001
  0.17593605000E+008,  0.20763325843E+007,  0.19000000000E+002,  0.00000000000E+000,  0.10000000000E+001
  0.17593755000E+008,  0.20755165645E+007,  0.19000000000E+002,  0.00000000000E+000,  0.10000000000E+001
  0.17593905000E+008,  0.20747646339E+007,  0.19000000000E+002,  0.00000000000E+000,  0.10000000000E+001
  0.17594055000E+008,  0.20740631593E+007,  0.19000000000E+002,  0.00000000000E+000,  0.10000000000E+001
  0.17594205000E+008,  0.20734025521E+007,  0.19000000000E+002,  0.00000000000E+000,  0.10000000000E+001
  0.17594355000E+008,  0.20727759321E+007,  0.19000000000E+002,  0.00000000000E+000,  0.10000000000E+001
  0.17594505000E+008,  0.20721782565E+007,  0.19000000000E+002,  0.00000000000E+000,  0.10000000000E+001
  0.17594655000E+008,  0.20716057470E+007,  0.19000000000E+002,  0.00000000000E+000,  0.10000000000E+001
  0.17594805000E+008,  0.20710555070E+007,  0.19000000000E+002,  0.00000000000E+000,  0.10000000000E+001
  0.17594955000E+008,  0.20705252657E+007,  0.19000000000E+002,  0.00000000000E+000,  0.10000000000E+001
  0.17595105000E+008,  0.20700132030E+007,  0.19000000000E+002,  0.00000000000E+000,  0.10000000000E+001
  0.17595255000E+008,  0.20695178295E+007,  0.19000000000E+002,  0.00000000000E+000,  0.10000000000E+001
  0.17595405000E+008,  0.20690379034E+007,  0.19000000000E+002,  0.00000000000E+000,  0.10000000000E+001
  0.17595555000E+008,  0.20685722594E+007,  0.19000000000E+002,  0.00000000000E+000,  0.10000000000E+001
  0.17595630000E+008,  0.20683428600E+007,  0.19000000000E+002,  0.00000000000E+000,  0.10000000000E+001
  0.17595667501E+008,  0.20682289970E+007,  0.19000000000E+002,  0.00000000000E+000,  0.10000000000E+001
  0.17595817501E+008,  0.20677857722E+007,  0.19000000000E+002,  0.00000000000E+000,  0.10000000000E+001
  0.17595826876E+008,  0.20677581180E+007,  0.19000000000E+002,  0.00000000000E+000,  0.10000000000E+001
  0.17595831564E+008,  0.20677443026E+007,  0.19000000000E+002,  0.00000000000E+000,  0.10000000000E+001
  0.17595855001E+008,  0.20676755168E+007,  0.19000000000E+002,  0.00000000000E+000,  0.10000000000E+001
  0.17595866720E+008,  0.20676411960E+007,  0.19000000000E+002,  0.00000000000E+000,  0.10000000000E+001
  0.17595872580E+008,  0.20676240535E+007,  0.19000000000E+002,  0.00000000000E+000,  0.10000000000E+001
  0.17595901877E+008,  0.20675387821E+007,  0.19000000000E+002,  0.00000000000E+000,  0.10000000000E+001
  0.17595916526E+008,  0.20674962553E+007,  0.19000000000E+002,  0.00000000000E+000,  0.10000000000E+001
  0.17595989771E+008,  0.20672862306E+007,  0.19000000000E+002,  0.00000000000E+000,  0.10000000000E+001
  0.17596139771E+008,  0.20668661638E+007,  0.19000000000E+002,  0.00000000000E+000,  0.10000000000E+001
  0.17596289771E+008,  0.20664553823E+007,  0.19000000000E+002,  0.00000000000E+000,  0.10000000000E+001
  0.17596364771E+008,  0.20662522228E+007,  0.19000000000E+002,  0.00000000000E+000,  0.10000000000E+001
  0.17596402272E+008,  0.20661511897E+007,  0.19000000000E+002,  0.00000000000E+000,  0.10000000000E+001
  0.17596421022E+008,  0.20661008082E+007,  0.19000000000E+002,  0.00000000000E+000,  0.10000000000E+001
  0.17596514774E+008,  0.20658521304E+007,  0.19000000000E+002,  0.00000000000E+000,  0.10000000000E+001
  0.17596664774E+008,  0.20654618866E+007,  0.19000000000E+002,  0.00000000000E+000,  0.10000000000E+001
  0.17596739774E+008,  0.20652685937E+007,  0.19000000000E+002,  0.00000000000E+000,  0.10000000000E+001
  0.17596777275E+008,  0.20651723944E+007,  0.19000000000E+002,  0.00000000000E+000,  0.10000000000E+001
  0.17596927275E+008,  0.20647941451E+007,  0.19000000000E+002,  0.00000000000E+000,  0.10000000000E+001
  0.17597002275E+008,  0.20646065779E+007,  0.19000000000E+002,  0.00000000000E+000,  0.10000000000E+001
  0.17597152275E+008,  0.20642370671E+007,  0.19000000000E+002,  0.00000000000E+000,  0.10000000000E+001
  0.17597302275E+008,  0.20638725880E+007,  0.19000000000E+002,  0.00000000000E+000,  0.10000000000E+001
  0.17597452275E+008,  0.20635125904E+007,  0.19000000000E+002,  0.00000000000E+000,  0.10000000000E+001
  0.17597602275E+008,  0.20631565762E+007,  0.19000000000E+002,  0.00000000000E+000,  0.10000000000E+001
  0.17597752275E+008,  0.20628041063E+007,  0.19000000000E+002,  0.00000000000E+000,  0.10000000000E+001
  0.17597902275E+008,  0.20624548003E+007,  0.19000000000E+002,  0.00000000000E+000,  0.10000000000E+001
  0.17598052275E+008,  0.20621083341E+007,  0.19000000000E+002,  0.00000000000E+000,  0.10000000000E+001
  0.17598202275E+008,  0.20617644336E+007,  0.19000000000E+002,  0.00000000000E+000,  0.10000000000E+001
  0.17598352275E+008,  0.20614228688E+007,  0.19000000000E+002,  0.00000000000E+000,  0.10000000000E+001
  0.17598502275E+008,  0.20610834475E+007,  0.19000000000E+002,  0.00000000000E+000,  0.10000000000E+001
  0.17598652275E+008,  0.20607460091E+007,  0.19000000000E+002,  0.00000000000E+000,  0.10000000000E+001
  0.17598802275E+008,  0.20604104202E+007,  0.19000000000E+002,  0.00000000000E+000,  0.10000000000E+001
  0.17598952275E+008,  0.20600765702E+007,  0.19000000000E+002,  0.00000000000E+000,  0.10000000000E+001
  0.17599102275E+008,  0.20597443678E+007,  0.19000000000E+002,  0.00000000000E+000,  0.10000000000E+001
  0.17599252275E+008,  0.20594137378E+007,  0.19000000000E+002,  0.00000000000E+000,  0.10000000000E+001
  0.17599402275E+008,  0.20590846195E+007,  0.19000000000E+002,  0.00000000000E+000,  0.10000000000E+001
  0.17599552275E+008,  0.20587569637E+007,  0.19000000000E+002,  0.00000000000E+000,  0.10000000000E+001
  0.17599702275E+008,  0.20584307317E+007,  0.19000000000E+002,  0.00000000000E+000,  0.10000000000E+001
  0.17599852275E+008,  0.20581058934E+007,  0.19000000000E+002,  0.00000000000E+000,  0.10000000000E+001
  0.17600002275E+008,  0.20577824263E+007,  0.19000000000E+002,  0.00000000000E+000,  0.10000000000E+001
  0.17600152275E+008,  0.20574603141E+007,  0.19000000000E+002,  0.00000000000E+000,  0.10000000000E+001
  0.17600302275E+008,  0.20571395462E+007,  0.19000000000E+002,  0.00000000000E+000,  0.10000000000E+001
  0.17600452275E+008,  0.20568201161E+007,  0.19000000000E+002,  0.00000000000E+000,  0.10000000000E+001
  0.17600602275E+008,  0.20565020213E+007,  0.19000000000E+002,  0.00000000000E+000,  0.10000000000E+001
  0.17600752275E+008,  0.20561852624E+007,  0.19000000000E+002,  0.00000000000E+000,  0.10000000000E+001
  0.17600902275E+008,  0.20558698424E+007,  0.19000000000E+002,  0.00000000000E+000,  0.10000000000E+001
  0.17601052275E+008,  0.20555557663E+007,  0.19000000000E+002,  0.00000000000E+000,  0.10000000000E+001
  0.17601202275E+008,  0.20552430406E+007,  0.19000000000E+002,  0.00000000000E+000,  0.10000000000E+001
  0.17601352275E+008,  0.20549316731E+007,  0.19000000000E+002,  0.00000000000E+000,  0.10000000000E+001
  0.17601502275E+008,  0.20546216721E+007,  0.19000000000E+002,  0.00000000000E+000,  0.10000000000E+001
  0.17601652275E+008,  0.20543130468E+007,  0.19000000000E+002,  0.00000000000E+000,  0.10000000000E+001
  0.17601802275E+008,  0.20540058063E+007,  0.19000000000E+002,  0.00000000000E+000,  0.10000000000E+001
  0.17601952275E+008,  0.20536999600E+007,  0.19000000000E+002,  0.00000000000E+000,  0.10000000000E+001
  0.17602102275E+008,  0.20533955171E+007,  0.19000000000E+002,  0.00000000000E+000,  0.10000000000E+001
  0.17602252275E+008,  0.20530924867E+007,  0.19000000000E+002,  0.00000000000E+000,  0.10000000000E+001
  0.17602402275E+008,  0.20527908774E+007,  0.19000000000E+002,  0.00000000000E+000,  0.10000000000E+001
  0.17602552275E+008,  0.20524906974E+007,  0.19000000000E+002,  0.00000000000E+000,  0.10000000000E+001
  0.17602702275E+008,  0.20521919545E+007,  0.19000000000E+002,  0.00000000000E+000,  0.10000000000E+001
  0.17602852275E+008,  0.20518946558E+007,  0.19000000000E+002,  0.00000000000E+000,  0.10000000000E+001
  0.17603002275E+008,  0.20515988080E+007,  0.19000000000E+002,  0.00000000000E+000,  0.10000000000E+001
  0.17603152275E+008,  0.20513044170E+007,  0.19000000000E+002,  0.00000000000E+000,  0.10000000000E+001
  0.17603302275E+008,  0.20510114883E+007,  0.19000000000E+002,  0.00000000000E+000,  0.10000000000E+001
  0.17603452275E+008,  0.20507200265E+007,  0.19000000000E+002,  0.00000000000E+000,  0.10000000000E+001
  0.17603602275E+008,  0.20504300359E+007,  0.19000000000E+002,  0.00000000000E+000,  0.10000000000E+001
  0.17603752275E+008,  0.20501415198E+007,  0.19000000000E+002,  0.00000000000E+000,  0.10000000000E+001
  0.17603902275E+008,  0.20498544813E+007,  0.19000000000E+002,  0.00000000000E+000,  0.10000000000E+001
  0.17604052275E+008,  0.20495689226E+007,  0.19000000000E+002,  0.00000000000E+000,  0.10000000000E+001
  0.17604202275E+008,  0.20492848456E+007,  0.19000000000E+002,  0.00000000000E+000,  0.10000000000E+001
  0.17604352275E+008,  0.20490022514E+007,  0.19000000000E+002,  0.00000000000E+000,  0.10000000000E+001
  0.17604502275E+008,  0.20487211408E+007,  0.19000000000E+002,  0.00000000000E+000,  0.10000000000E+001
  0.17604652275E+008,  0.20484415139E+007,  0.19000000000E+002,  0.00000000000E+000,  0.10000000000E+001
  0.17604802275E+008,  0.20481633706E+007,  0.19000000000E+002,  0.00000000000E+000,  0.10000000000E+001
  0.17604952275E+008,  0.20478867100E+007,  0.19000000000E+002,  0.00000000000E+000,  0.10000000000E+001
  0.17605102275E+008,  0.20476115312E+007,  0.19000000000E+002,  0.00000000000E+000,  0.10000000000E+001
  0.17605252275E+008,  0.20473378324E+007,  0.19000000000E+002,  0.00000000000E+000,  0.10000000000E+001
  0.17605402275E+008,  0.20470656118E+007,  0.19000000000E+002,  0.00000000000E+000,  0.10000000000E+001
  0.17605552275E+008,  0.20467948672E+007,  0.19000000000E+002,  0.00000000000E+000,  0.10000000000E+001
  0.17605702275E+008,  0.20465255960E+007,  0.19000000000E+002,  0.00000000000E+000,  0.10000000000E+001
  0.17605852275E+008,  0.20462577951E+007,  0.19000000000E+002,  0.00000000000E+000,  0.10000000000E+001
  0.17606002275E+008,  0.20459914615E+007,  0.19000000000E+002,  0.00000000000E+000,  0.10000000000E+001
  0.17606152275E+008,  0.20457265916E+007,  0.19000000000E+002,  0.00000000000E+000,  0.10000000000E+001
  0.17606302275E+008,  0.20454631817E+007,  0.19000000000E+002,  0.00000000000E+000,  0.10000000000E+001
  0.17606452275E+008,  0.20452012278E+007,  0.19000000000E+002,  0.00000000000E+000,  0.10000000000E+001
  0.17606602275E+008,  0.20449407257E+007,  0.19000000000E+002,  0.00000000000E+000,  0.10000000000E+001
  0.17606752275E+008,  0.20446816710E+007,  0.19000000000E+002,  0.00000000000E+000,  0.10000000000E+001
  0.17606902275E+008,  0.20444240592E+007,  0.19000000000E+002,  0.00000000000E+000,  0.10000000000E+001
  0.17607052275E+008,  0.20441678854E+007,  0.19000000000E+002,  0.00000000000E+000,  0.10000000000E+001
  0.17607202275E+008,  0.20439131447E+007,  0.19000000000E+002,  0.00000000000E+000,  0.10000000000E+001
  0.17607352275E+008,  0.20436598320E+007,  0.19000000000E+002,  0.00000000000E+000,  0.10000000000E+001
  0.17607502275E+008,  0.20434079422E+007,  0.19000000000E+002,  0.00000000000E+000,  0.10000000000E+001
  0.17607652275E+008,  0.20431574698E+007,  0.19000000000E+002,  0.00000000000E+000,  0.10000000000E+001
  0.17607802275E+008,  0.20429084093E+007,  0.19000000000E+002,  0.00000000000E+000,  0.10000000000E+001
  0.17607952275E+008,  0.20426607553E+007,  0.19000000000E+002,  0.00000000000E+000,  0.10000000000E+001
  0.17608102275E+008,  0.20424145019E+007,  0.19000000000E+002,  0.00000000000E+000,  0.10000000000E+001
  0.17608252275E+008,  0.20421696435E+007,  0.19000000000E+002,  0.00000000000E+000,  0.10000000000E+001
  0.17608402275E+008,  0.20419261741E+007,  0.19000000000E+002,  0.00000000000E+000,  0.10000000000E+001
  0.17608552275E+008,  0.20416840878E+007,  0.19000000000E+002,  0.00000000000E+000,  0.10000000000E+001
  0.17608702275E+008,  0.20414433786E+007,  0.19000000000E+002,  0.00000000000E+000,  0.10000000000E+001
  0.17608852275E+008,  0.20412040404E+007,  0.19000000000E+002,  0.00000000000E+000,  0.10000000000E+001
  0.17609002275E+008,  0.20409660672E+007,  0.19000000000E+002,  0.00000000000E+000,  0.10000000000E+001
  0.17609152275E+008,  0.20407294526E+007,  0.19000000000E+002,  0.00000000000E+000,  0.10000000000E+001
  0.17609302275E+008,  0.20404941905E+007,  0.19000000000E+002,  0.00000000000E+000,  0.10000000000E+001
  0.17609452275E+008,  0.20402602747E+007,  0.19000000000E+002,  0.00000000000E+000,  0.10000000000E+001
  0.17609602275E+008,  0.20400276987E+007,  0.19000000000E+002,  0.00000000000E+000,  0.10000000000E+001
  0.17609752275E+008,  0.20397964563E+007,  0.19000000000E+002,  0.00000000000E+000,  0.10000000000E+001
  0.17609902275E+008,  0.20395665411E+007,  0.19000000000E+002,  0.00000000000E+000,  0.10000000000E+001
  0.17610052275E+008,  0.20393379467E+007,  0.19000000000E+002,  0.00000000000E+000,  0.10000000000E+001
  0.17610202275E+008,  0.20391106666E+007,  0.19000000000E+002,  0.00000000000E+000,  0.10000000000E+001
  0.17610352275E+008,  0.20388846945E+007,  0.19000000000E+002,  0.00000000000E+000,  0.10000000000E+001
  0.17610502275E+008,  0.20386600239E+007,  0.19000000000E+002,  0.00000000000E+000,  0.10000000000E+001
  0.17610652275E+008,  0.20384366483E+007,  0.19000000000E+002,  0.00000000000E+000,  0.10000000000E+001
  0.17610802275E+008,  0.20382145612E+007,  0.19000000000E+002,  0.00000000000E+000,  0.10000000000E+001
  0.17610952275E+008,  0.20379937561E+007,  0.19000000000E+002,  0.00000000000E+000,  0.10000000000E+001
  0.17611102275E+008,  0.20377742267E+007,  0.19000000000E+002,  0.00000000000E+000,  0.10000000000E+001
  0.17611252275E+008,  0.20375559663E+007,  0.19000000000E+002,  0.00000000000E+000,  0.10000000000E+001
  0.17611402275E+008,  0.20373389685E+007,  0.19000000000E+002,  0.00000000000E+000,  0.10000000000E+001
  0.17611552275E+008,  0.20371232268E+007,  0.19000000000E+002,  0.00000000000E+000,  0.10000000000E+001
  0.17611702275E+008,  0.20369087348E+007,  0.19000000000E+002,  0.00000000000E+000,  0.10000000000E+001
  0.17611852275E+008,  0.20366954858E+007,  0.19000000000E+002,  0.00000000000E+000,  0.10000000000E+001
  0.17612002275E+008,  0.20364834736E+007,  0.19000000000E+002,  0.00000000000E+000,  0.10000000000E+001
  0.17612152275E+008,  0.20362726915E+007,  0.19000000000E+002,  0.00000000000E+000,  0.10000000000E+001
  0.17612302275E+008,  0.20360631331E+007,  0.19000000000E+002,  0.00000000000E+000,  0.10000000000E+001
  0.17612452275E+008,  0.20358547920E+007,  0.19000000000E+002,  0.00000000000E+000,  0.10000000000E+001
  0.17612602275E+008,  0.20356476617E+007,  0.19000000000E+002,  0.00000000000E+000,  0.10000000000E+001
  0.17612752275E+008,  0.20354417359E+007,  0.19000000000E+002,  0.00000000000E+000,  0.10000000000E+001
  0.17612902275E+008,  0.20352370081E+007,  0.19000000000E+002,  0.00000000000E+000,  0.10000000000E+001
  0.17613052275E+008,  0.20350334718E+007,  0.19000000000E+002,  0.00000000000E+000,  0.10000000000E+001
  0.17613202275E+008,  0.20348311208E+007,  0.19000000000E+002,  0.00000000000E+000,  0.10000000000E+001
  0.17613352275E+008,  0.20346299486E+007,  0.19000000000E+002,  0.00000000000E+000,  0.10000000000E+001
  0.17613502275E+008,  0.20344299490E+007,  0.19000000000E+002,  0.00000000000E+000,  0.10000000000E+001
  0.17613652275E+008,  0.20342311155E+007,  0.19000000000E+002,  0.00000000000E+000,  0.10000000000E+001
  0.17613802275E+008,  0.20340334419E+007,  0.19000000000E+002,  0.00000000000E+000,  0.10000000000E+001
  0.17613952275E+008,  0.20338369218E+007,  0.19000000000E+002,  0.00000000000E+000,  0.10000000000E+001
  0.17614102275E+008,  0.20336415490E+007,  0.19000000000E+002,  0.00000000000E+000,  0.10000000000E+001
  0.17614252275E+008,  0.20334473173E+007,  0.19000000000E+002,  0.00000000000E+000,  0.10000000000E+001
  0.17614402275E+008,  0.20332542204E+007,  0.19000000000E+002,  0.00000000000E+000,  0.10000000000E+001
  0.17614552275E+008,  0.20330622520E+007,  0.19000000000E+002,  0.00000000000E+000,  0.10000000000E+001
  0.17614702275E+008,  0.20328714061E+007,  0.19000000000E+002,  0.00000000000E+000,  0.10000000000E+001
  0.17614852275E+008,  0.20326816764E+007,  0.19000000000E+002,  0.00000000000E+000,  0.10000000000E+001
  0.17615002275E+008,  0.20324930568E+007,  0.19000000000E+002,  0.00000000000E+000,  0.10000000000E+001
  0.17615152275E+008,  0.20323055412E+007,  0.19000000000E+002,  0.00000000000E+000,  0.10000000000E+001
  0.17615302275E+008,  0.20321191234E+007,  0.19000000000E+002,  0.00000000000E+000,  0.10000000000E+001
  0.17615452275E+008,  0.20319337975E+007,  0.19000000000E+002,  0.00000000000E+000,  0.10000000000E+001
  0.17615602275E+008,  0.20317495572E+007,  0.19000000000E+002,  0.00000000000E+000,  0.10000000000E+001
  0.17615752275E+008,  0.20315663967E+007,  0.19000000000E+002,  0.00000000000E+000,  0.10000000000E+001
  0.17615902275E+008,  0.20313843099E+007,  0.19000000000E+002,  0.00000000000E+000,  0.10000000000E+001
  0.17616052275E+008,  0.20312032909E+007,  0.19000000000E+002,  0.00000000000E+000,  0.10000000000E+001
  0.17616202275E+008,  0.20310233336E+007,  0.19000000000E+002,  0.00000000000E+000,  0.10000000000E+001
  0.17616352275E+008,  0.20308444322E+007,  0.19000000000E+002,  0.00000000000E+000,  0.10000000000E+001
  0.17616502275E+008,  0.20306665807E+007,  0.19000000000E+002,  0.00000000000E+000,  0.10000000000E+001
  0.17616652275E+008,  0.20304897733E+007,  0.19000000000E+002,  0.00000000000E+000,  0.10000000000E+001
  0.17616802275E+008,  0.20303140042E+007,  0.19000000000E+002,  0.00000000000E+000,  0.10000000000E+001
  0.17616952275E+008,  0.20301392674E+007,  0.19000000000E+002,  0.00000000000E+000,  0.10000000000E+001
  0.17617102275E+008,  0.20299655572E+007,  0.19000000000E+002,  0.00000000000E+000,  0.10000000000E+001
  0.17617252275E+008,  0.20297928678E+007,  0.19000000000E+002,  0.00000000000E+000,  0.10000000000E+001
  0.17617402275E+008,  0.20296211936E+007,  0.19000000000E+002,  0.00000000000E+000,  0.10000000000E+001
  0.17617552275E+008,  0.20294505286E+007,  0.19000000000E+002,  0.00000000000E+000,  0.10000000000E+001
  0.17617702275E+008,  0.20292808674E+007,  0.19000000000E+002,  0.00000000000E+000,  0.10000000000E+001
  0.17617852275E+008,  0.20291122041E+007,  0.19000000000E+002,  0.00000000000E+000,  0.10000000000E+001
  0.17618002275E+008,  0.20289445332E+007,  0.19000000000E+002,  0.00000000000E+000,  0.10000000000E+001
  0.17618152275E+008,  0.20287778490E+007,  0.19000000000E+002,  0.00000000000E+000,  0.10000000000E+001
  0.17618302275E+008,  0.20286121459E+007,  0.19000000000E+002,  0.00000000000E+000,  0.10000000000E+001
