"           TIME(S)","              PRES","              TEMP","             SAT_G","             SAT_L"
  0.18228740000E+008,  0.20000062994E+007,  0.19000000000E+002,  0.00000000000E+000,  0.10000000000E+001
  0.18228890000E+008,  0.20000935201E+007,  0.19000000000E+002,  0.00000000000E+000,  0.10000000000E+001
  0.18229040000E+008,  0.20002152254E+007,  0.19000000000E+002,  0.00000000000E+000,  0.10000000000E+001
  0.18229190000E+008,  0.20003581751E+007,  0.19000000000E+002,  0.00000000000E+000,  0.10000000000E+001
  0.18229340000E+008,  0.20005152317E+007,  0.19000000000E+002,  0.00000000000E+000,  0.10000000000E+001
  0.18229490000E+008,  0.20006818409E+007,  0.19000000000E+002,  0.00000000000E+000,  0.10000000000E+001
  0.18229640000E+008,  0.20008543875E+007,  0.19000000000E+002,  0.00000000000E+000,  0.10000000000E+001
  0.18229715000E+008,  0.20009414978E+007,  0.19000000000E+002,  0.00000000000E+000,  0.10000000000E+001
  0.18229865000E+008,  0.20011182422E+007,  0.19000000000E+002,  0.00000000000E+000,  0.10000000000E+001
  0.18230015000E+008,  0.20012975769E+007,  0.19000000000E+002,  0.00000000000E+000,  0.10000000000E+001
  0.18230165000E+008,  0.20014793131E+007,  0.19000000000E+002,  0.00000000000E+000,  0.10000000000E+001
  0.18230315000E+008,  0.20016630286E+007,  0.19000000000E+002,  0.00000000000E+000,  0.10000000000E+001
  0.18230465000E+008,  0.20018482525E+007,  0.19000000000E+002,  0.00000000000E+000,  0.10000000000E+001
  0.18230615000E+008,  0.20020363244E+007,  0.19000000000E+002,  0.00000000000E+000,  0.10000000000E+001
  0.18230690001E+008,  0.20021317552E+007,  0.19000000000E+002,  0.00000000000E+000,  0.10000000000E+001
  0.18230727501E+008,  0.20021799091E+007,  0.19000000000E+002,  0.00000000000E+000,  0.10000000000E+001
  0.18230877501E+008,  0.20023790595E+007,  0.19000000000E+002,  0.00000000000E+000,  0.10000000000E+001
  0.18231027501E+008,  0.20025827980E+007,  0.19000000000E+002,  0.00000000000E+000,  0.10000000000E+001
  0.18231102502E+008,  0.20026855244E+007,  0.19000000000E+002,  0.00000000000E+000,  0.10000000000E+001
  0.18231140002E+008,  0.20027370233E+007,  0.19000000000E+002,  0.00000000000E+000,  0.10000000000E+001
  0.18231158752E+008,  0.20027627977E+007,  0.19000000000E+002,  0.00000000000E+000,  0.10000000000E+001
  0.18231168128E+008,  0.20027756916E+007,  0.19000000000E+002,  0.00000000000E+000,  0.10000000000E+001
  0.18231215004E+008,  0.20028401765E+007,  0.19000000000E+002,  0.00000000000E+000,  0.10000000000E+001
  0.18231365004E+008,  0.20030458786E+007,  0.19000000000E+002,  0.00000000000E+000,  0.10000000000E+001
  0.18231440004E+008,  0.20031485416E+007,  0.19000000000E+002,  0.00000000000E+000,  0.10000000000E+001
  0.18231477505E+008,  0.20031998433E+007,  0.19000000000E+002,  0.00000000000E+000,  0.10000000000E+001
  0.18231496255E+008,  0.20032254893E+007,  0.19000000000E+002,  0.00000000000E+000,  0.10000000000E+001
  0.18231505630E+008,  0.20032383114E+007,  0.19000000000E+002,  0.00000000000E+000,  0.10000000000E+001
  0.18231552506E+008,  0.20033024077E+007,  0.19000000000E+002,  0.00000000000E+000,  0.10000000000E+001
  0.18231702506E+008,  0.20035074399E+007,  0.19000000000E+002,  0.00000000000E+000,  0.10000000000E+001
  0.18231777507E+008,  0.20036098740E+007,  0.19000000000E+002,  0.00000000000E+000,  0.10000000000E+001
  0.18231927507E+008,  0.20038149683E+007,  0.19000000000E+002,  0.00000000000E+000,  0.10000000000E+001
  0.18232002507E+008,  0.20039176304E+007,  0.19000000000E+002,  0.00000000000E+000,  0.10000000000E+001
  0.18232040008E+008,  0.20039690078E+007,  0.19000000000E+002,  0.00000000000E+000,  0.10000000000E+001
  0.18232058758E+008,  0.20039947022E+007,  0.19000000000E+002,  0.00000000000E+000,  0.10000000000E+001
  0.18232068133E+008,  0.20040075500E+007,  0.19000000000E+002,  0.00000000000E+000,  0.10000000000E+001
  0.18232072821E+008,  0.20040139738E+007,  0.19000000000E+002,  0.00000000000E+000,  0.10000000000E+001
  0.18232096259E+008,  0.20040460463E+007,  0.19000000000E+002,  0.00000000000E+000,  0.10000000000E+001
  0.18232107978E+008,  0.20040620650E+007,  0.19000000000E+002,  0.00000000000E+000,  0.10000000000E+001
  0.18232113838E+008,  0.20040700693E+007,  0.19000000000E+002,  0.00000000000E+000,  0.10000000000E+001
  0.18232143136E+008,  0.20041098620E+007,  0.19000000000E+002,  0.00000000000E+000,  0.10000000000E+001
  0.18232157785E+008,  0.20041296869E+007,  0.19000000000E+002,  0.00000000000E+000,  0.10000000000E+001
  0.18232231031E+008,  0.20042260777E+007,  0.19000000000E+002,  0.00000000000E+000,  0.10000000000E+001
  0.18232381031E+008,  0.20044123400E+007,  0.19000000000E+002,  0.00000000000E+000,  0.10000000000E+001
  0.18232456032E+008,  0.20045024091E+007,  0.19000000000E+002,  0.00000000000E+000,  0.10000000000E+001
  0.18232493532E+008,  0.20045465848E+007,  0.19000000000E+002,  0.00000000000E+000,  0.10000000000E+001
  0.18232512282E+008,  0.20045684448E+007,  0.19000000000E+002,  0.00000000000E+000,  0.10000000000E+001
  0.18232606034E+008,  0.20046720227E+007,  0.19000000000E+002,  0.00000000000E+000,  0.10000000000E+001
  0.18232756034E+008,  0.20048256783E+007,  0.19000000000E+002,  0.00000000000E+000,  0.10000000000E+001
  0.18232906034E+008,  0.20049695664E+007,  0.19000000000E+002,  0.00000000000E+000,  0.10000000000E+001
  0.18233056034E+008,  0.20051062354E+007,  0.19000000000E+002,  0.00000000000E+000,  0.10000000000E+001
  0.18233206034E+008,  0.20052382323E+007,  0.19000000000E+002,  0.00000000000E+000,  0.10000000000E+001
  0.18233356034E+008,  0.20053678483E+007,  0.19000000000E+002,  0.00000000000E+000,  0.10000000000E+001
  0.18233506034E+008,  0.20054970174E+007,  0.19000000000E+002,  0.00000000000E+000,  0.10000000000E+001
  0.18233656034E+008,  0.20056272977E+007,  0.19000000000E+002,  0.00000000000E+000,  0.10000000000E+001
  0.18233806034E+008,  0.20057598972E+007,  0.19000000000E+002,  0.00000000000E+000,  0.10000000000E+001
  0.18233956034E+008,  0.20058957189E+007,  0.19000000000E+002,  0.00000000000E+000,  0.10000000000E+001
  0.18234106034E+008,  0.20060354102E+007,  0.19000000000E+002,  0.00000000000E+000,  0.10000000000E+001
  0.18234256034E+008,  0.20061794100E+007,  0.19000000000E+002,  0.00000000000E+000,  0.10000000000E+001
  0.18234406034E+008,  0.20063279916E+007,  0.19000000000E+002,  0.00000000000E+000,  0.10000000000E+001
  0.18234556034E+008,  0.20064812980E+007,  0.19000000000E+002,  0.00000000000E+000,  0.10000000000E+001
  0.18234706034E+008,  0.20066393732E+007,  0.19000000000E+002,  0.00000000000E+000,  0.10000000000E+001
  0.18234856034E+008,  0.20068021866E+007,  0.19000000000E+002,  0.00000000000E+000,  0.10000000000E+001
  0.18235006034E+008,  0.20069696530E+007,  0.19000000000E+002,  0.00000000000E+000,  0.10000000000E+001
  0.18235156034E+008,  0.20071416492E+007,  0.19000000000E+002,  0.00000000000E+000,  0.10000000000E+001
  0.18235306034E+008,  0.20073180256E+007,  0.19000000000E+002,  0.00000000000E+000,  0.10000000000E+001
  0.18235456034E+008,  0.20074986169E+007,  0.19000000000E+002,  0.00000000000E+000,  0.10000000000E+001
  0.18235606034E+008,  0.20076832486E+007,  0.19000000000E+002,  0.00000000000E+000,  0.10000000000E+001
  0.18235756034E+008,  0.20078717433E+007,  0.19000000000E+002,  0.00000000000E+000,  0.10000000000E+001
  0.18235906034E+008,  0.20080639245E+007,  0.19000000000E+002,  0.00000000000E+000,  0.10000000000E+001
  0.18236056034E+008,  0.20082596194E+007,  0.19000000000E+002,  0.00000000000E+000,  0.10000000000E+001
  0.18236206034E+008,  0.20084586614E+007,  0.19000000000E+002,  0.00000000000E+000,  0.10000000000E+001
  0.18236356034E+008,  0.20086608913E+007,  0.19000000000E+002,  0.00000000000E+000,  0.10000000000E+001
  0.18236506034E+008,  0.20088661580E+007,  0.19000000000E+002,  0.00000000000E+000,  0.10000000000E+001
  0.18236656034E+008,  0.20090743189E+007,  0.19000000000E+002,  0.00000000000E+000,  0.10000000000E+001
  0.18236806034E+008,  0.20092852403E+007,  0.19000000000E+002,  0.00000000000E+000,  0.10000000000E+001
  0.18236956034E+008,  0.20094987973E+007,  0.19000000000E+002,  0.00000000000E+000,  0.10000000000E+001
  0.18237106034E+008,  0.20097148730E+007,  0.19000000000E+002,  0.00000000000E+000,  0.10000000000E+001
  0.18237256034E+008,  0.20099333591E+007,  0.19000000000E+002,  0.00000000000E+000,  0.10000000000E+001
  0.18237406034E+008,  0.20101541543E+007,  0.19000000000E+002,  0.00000000000E+000,  0.10000000000E+001
  0.18237556034E+008,  0.20103771650E+007,  0.19000000000E+002,  0.00000000000E+000,  0.10000000000E+001
  0.18237706034E+008,  0.20106023041E+007,  0.19000000000E+002,  0.00000000000E+000,  0.10000000000E+001
  0.18237856034E+008,  0.20108294905E+007,  0.19000000000E+002,  0.00000000000E+000,  0.10000000000E+001
  0.18238006034E+008,  0.20110586491E+007,  0.19000000000E+002,  0.00000000000E+000,  0.10000000000E+001
  0.18238156034E+008,  0.20112897100E+007,  0.19000000000E+002,  0.00000000000E+000,  0.10000000000E+001
  0.18238306034E+008,  0.20115226079E+007,  0.19000000000E+002,  0.00000000000E+000,  0.10000000000E+001
  0.18238456034E+008,  0.20117572821E+007,  0.19000000000E+002,  0.00000000000E+000,  0.10000000000E+001
  0.18238606034E+008,  0.20119936761E+007,  0.19000000000E+002,  0.00000000000E+000,  0.10000000000E+001
  0.18238756034E+008,  0.20122317367E+007,  0.19000000000E+002,  0.00000000000E+000,  0.10000000000E+001
  0.18238906034E+008,  0.20124714142E+007,  0.19000000000E+002,  0.00000000000E+000,  0.10000000000E+001
  0.18239056034E+008,  0.20127126621E+007,  0.19000000000E+002,  0.00000000000E+000,  0.10000000000E+001
  0.18239206034E+008,  0.20129554365E+007,  0.19000000000E+002,  0.00000000000E+000,  0.10000000000E+001
  0.18239356034E+008,  0.20131996959E+007,  0.19000000000E+002,  0.00000000000E+000,  0.10000000000E+001
  0.18239506034E+008,  0.20134454015E+007,  0.19000000000E+002,  0.00000000000E+000,  0.10000000000E+001
  0.18239656034E+008,  0.20136925162E+007,  0.19000000000E+002,  0.00000000000E+000,  0.10000000000E+001
  0.18239806034E+008,  0.20139410050E+007,  0.19000000000E+002,  0.00000000000E+000,  0.10000000000E+001
  0.18239956034E+008,  0.20141908346E+007,  0.19000000000E+002,  0.00000000000E+000,  0.10000000000E+001
  0.18240106034E+008,  0.20144419733E+007,  0.19000000000E+002,  0.00000000000E+000,  0.10000000000E+001
  0.18240256034E+008,  0.20146943908E+007,  0.19000000000E+002,  0.00000000000E+000,  0.10000000000E+001
  0.18240406034E+008,  0.20149480581E+007,  0.19000000000E+002,  0.00000000000E+000,  0.10000000000E+001
  0.18240556034E+008,  0.20152029476E+007,  0.19000000000E+002,  0.00000000000E+000,  0.10000000000E+001
  0.18240706034E+008,  0.20154590326E+007,  0.19000000000E+002,  0.00000000000E+000,  0.10000000000E+001
  0.18240856034E+008,  0.20157162877E+007,  0.19000000000E+002,  0.00000000000E+000,  0.10000000000E+001
  0.18241006034E+008,  0.20159746881E+007,  0.19000000000E+002,  0.00000000000E+000,  0.10000000000E+001
  0.18241156034E+008,  0.20162342102E+007,  0.19000000000E+002,  0.00000000000E+000,  0.10000000000E+001
  0.18241306034E+008,  0.20164948311E+007,  0.19000000000E+002,  0.00000000000E+000,  0.10000000000E+001
  0.18241456034E+008,  0.20167565287E+007,  0.19000000000E+002,  0.00000000000E+000,  0.10000000000E+001
  0.18241606034E+008,  0.20170192814E+007,  0.19000000000E+002,  0.00000000000E+000,  0.10000000000E+001
  0.18241756034E+008,  0.20172830685E+007,  0.19000000000E+002,  0.00000000000E+000,  0.10000000000E+001
  0.18241906034E+008,  0.20175478699E+007,  0.19000000000E+002,  0.00000000000E+000,  0.10000000000E+001
  0.18242056034E+008,  0.20178136660E+007,  0.19000000000E+002,  0.00000000000E+000,  0.10000000000E+001
  0.18242206034E+008,  0.20180804378E+007,  0.19000000000E+002,  0.00000000000E+000,  0.10000000000E+001
  0.18242356034E+008,  0.20183481667E+007,  0.19000000000E+002,  0.00000000000E+000,  0.10000000000E+001
  0.18242506034E+008,  0.20186168347E+007,  0.19000000000E+002,  0.00000000000E+000,  0.10000000000E+001
  0.18242656034E+008,  0.20188864242E+007,  0.19000000000E+002,  0.00000000000E+000,  0.10000000000E+001
  0.18242806034E+008,  0.20191569181E+007,  0.19000000000E+002,  0.00000000000E+000,  0.10000000000E+001
  0.18242956034E+008,  0.20194282996E+007,  0.19000000000E+002,  0.00000000000E+000,  0.10000000000E+001
  0.18243106034E+008,  0.20197005525E+007,  0.19000000000E+002,  0.00000000000E+000,  0.10000000000E+001
  0.18243256034E+008,  0.20199736608E+007,  0.19000000000E+002,  0.00000000000E+000,  0.10000000000E+001
  0.18243406034E+008,  0.20202476088E+007,  0.19000000000E+002,  0.00000000000E+000,  0.10000000000E+001
  0.18243556034E+008,  0.20205223814E+007,  0.19000000000E+002,  0.00000000000E+000,  0.10000000000E+001
  0.18243706034E+008,  0.20207979636E+007,  0.19000000000E+002,  0.00000000000E+000,  0.10000000000E+001
  0.18243856034E+008,  0.20210743408E+007,  0.19000000000E+002,  0.00000000000E+000,  0.10000000000E+001
  0.18244006034E+008,  0.20213514988E+007,  0.19000000000E+002,  0.00000000000E+000,  0.10000000000E+001
  0.18244156034E+008,  0.20216294235E+007,  0.19000000000E+002,  0.00000000000E+000,  0.10000000000E+001
  0.18244306034E+008,  0.20219081013E+007,  0.19000000000E+002,  0.00000000000E+000,  0.10000000000E+001
  0.18244456034E+008,  0.20221875186E+007,  0.19000000000E+002,  0.00000000000E+000,  0.10000000000E+001
  0.18244606034E+008,  0.20224676624E+007,  0.19000000000E+002,  0.00000000000E+000,  0.10000000000E+001
  0.18244756034E+008,  0.20227485197E+007,  0.19000000000E+002,  0.00000000000E+000,  0.10000000000E+001
  0.18244906034E+008,  0.20230300780E+007,  0.19000000000E+002,  0.00000000000E+000,  0.10000000000E+001
  0.18245056034E+008,  0.20233123247E+007,  0.19000000000E+002,  0.00000000000E+000,  0.10000000000E+001
  0.18245206034E+008,  0.20235952477E+007,  0.19000000000E+002,  0.00000000000E+000,  0.10000000000E+001
  0.18245356034E+008,  0.20238788350E+007,  0.19000000000E+002,  0.00000000000E+000,  0.10000000000E+001
  0.18245506034E+008,  0.20241630750E+007,  0.19000000000E+002,  0.00000000000E+000,  0.10000000000E+001
  0.18245656034E+008,  0.20244479562E+007,  0.19000000000E+002,  0.00000000000E+000,  0.10000000000E+001
  0.18245806034E+008,  0.20247334672E+007,  0.19000000000E+002,  0.00000000000E+000,  0.10000000000E+001
  0.18245956034E+008,  0.20250195971E+007,  0.19000000000E+002,  0.00000000000E+000,  0.10000000000E+001
  0.18246106034E+008,  0.20253063349E+007,  0.19000000000E+002,  0.00000000000E+000,  0.10000000000E+001
  0.18246256034E+008,  0.20255936699E+007,  0.19000000000E+002,  0.00000000000E+000,  0.10000000000E+001
  0.18246406034E+008,  0.20258815918E+007,  0.19000000000E+002,  0.00000000000E+000,  0.10000000000E+001
  0.18246556034E+008,  0.20261700901E+007,  0.19000000000E+002,  0.00000000000E+000,  0.10000000000E+001
  0.18246706034E+008,  0.20264591548E+007,  0.19000000000E+002,  0.00000000000E+000,  0.10000000000E+001
  0.18246856034E+008,  0.20267487760E+007,  0.19000000000E+002,  0.00000000000E+000,  0.10000000000E+001
  0.18247006034E+008,  0.20270389440E+007,  0.19000000000E+002,  0.00000000000E+000,  0.10000000000E+001
  0.18247156034E+008,  0.20273296491E+007,  0.19000000000E+002,  0.00000000000E+000,  0.10000000000E+001
  0.18247306034E+008,  0.20276208820E+007,  0.19000000000E+002,  0.00000000000E+000,  0.10000000000E+001
  0.18247456034E+008,  0.20279126335E+007,  0.19000000000E+002,  0.00000000000E+000,  0.10000000000E+001
  0.18247606034E+008,  0.20282048944E+007,  0.19000000000E+002,  0.00000000000E+000,  0.10000000000E+001
  0.18247756034E+008,  0.20284976559E+007,  0.19000000000E+002,  0.00000000000E+000,  0.10000000000E+001
  0.18247906034E+008,  0.20287909092E+007,  0.19000000000E+002,  0.00000000000E+000,  0.10000000000E+001
  0.18248056034E+008,  0.20290846457E+007,  0.19000000000E+002,  0.00000000000E+000,  0.10000000000E+001
  0.18248206034E+008,  0.20293788571E+007,  0.19000000000E+002,  0.00000000000E+000,  0.10000000000E+001
  0.18248356034E+008,  0.20296735349E+007,  0.19000000000E+002,  0.00000000000E+000,  0.10000000000E+001
  0.18248506034E+008,  0.20299686711E+007,  0.19000000000E+002,  0.00000000000E+000,  0.10000000000E+001
  0.18248656034E+008,  0.20302642576E+007,  0.19000000000E+002,  0.00000000000E+000,  0.10000000000E+001
  0.18248806034E+008,  0.20305602865E+007,  0.19000000000E+002,  0.00000000000E+000,  0.10000000000E+001
  0.18248956034E+008,  0.20308567502E+007,  0.19000000000E+002,  0.00000000000E+000,  0.10000000000E+001
  0.18249106034E+008,  0.20311536411E+007,  0.19000000000E+002,  0.00000000000E+000,  0.10000000000E+001
  0.18249256034E+008,  0.20314509516E+007,  0.19000000000E+002,  0.00000000000E+000,  0.10000000000E+001
  0.18249406034E+008,  0.20317486745E+007,  0.19000000000E+002,  0.00000000000E+000,  0.10000000000E+001
  0.18249556034E+008,  0.20320468025E+007,  0.19000000000E+002,  0.00000000000E+000,  0.10000000000E+001
  0.18249706034E+008,  0.20323453285E+007,  0.19000000000E+002,  0.00000000000E+000,  0.10000000000E+001
  0.18249856034E+008,  0.20326442457E+007,  0.19000000000E+002,  0.00000000000E+000,  0.10000000000E+001
  0.18250006034E+008,  0.20329435471E+007,  0.19000000000E+002,  0.00000000000E+000,  0.10000000000E+001
  0.18250156034E+008,  0.20332432260E+007,  0.19000000000E+002,  0.00000000000E+000,  0.10000000000E+001
  0.18250306034E+008,  0.20335432759E+007,  0.19000000000E+002,  0.00000000000E+000,  0.10000000000E+001
  0.18250456034E+008,  0.20338436902E+007,  0.19000000000E+002,  0.00000000000E+000,  0.10000000000E+001
  0.18250606034E+008,  0.20341444626E+007,  0.19000000000E+002,  0.00000000000E+000,  0.10000000000E+001
  0.18250756034E+008,  0.20344455869E+007,  0.19000000000E+002,  0.00000000000E+000,  0.10000000000E+001
  0.18250906034E+008,  0.20347470567E+007,  0.19000000000E+002,  0.00000000000E+000,  0.10000000000E+001
  0.18251056034E+008,  0.20350488662E+007,  0.19000000000E+002,  0.00000000000E+000,  0.10000000000E+001
  0.18251206034E+008,  0.20353510093E+007,  0.19000000000E+002,  0.00000000000E+000,  0.10000000000E+001
  0.18251356034E+008,  0.20356534802E+007,  0.19000000000E+002,  0.00000000000E+000,  0.10000000000E+001
  0.18251506034E+008,  0.20359562732E+007,  0.19000000000E+002,  0.00000000000E+000,  0.10000000000E+001
  0.18251656034E+008,  0.20362593826E+007,  0.19000000000E+002,  0.00000000000E+000,  0.10000000000E+001
  0.18251806034E+008,  0.20365628028E+007,  0.19000000000E+002,  0.00000000000E+000,  0.10000000000E+001
  0.18251956034E+008,  0.20368665285E+007,  0.19000000000E+002,  0.00000000000E+000,  0.10000000000E+001
  0.18252106034E+008,  0.20371705542E+007,  0.19000000000E+002,  0.00000000000E+000,  0.10000000000E+001
  0.18252256034E+008,  0.20374748747E+007,  0.19000000000E+002,  0.00000000000E+000,  0.10000000000E+001
  0.18252406034E+008,  0.20377794849E+007,  0.19000000000E+002,  0.00000000000E+000,  0.10000000000E+001
  0.18252556034E+008,  0.20380843795E+007,  0.19000000000E+002,  0.00000000000E+000,  0.10000000000E+001
  0.18252706034E+008,  0.20383895537E+007,  0.19000000000E+002,  0.00000000000E+000,  0.10000000000E+001
  0.18252856034E+008,  0.20386950025E+007,  0.19000000000E+002,  0.00000000000E+000,  0.10000000000E+001
  0.18253006034E+008,  0.20390007211E+007,  0.19000000000E+002,  0.00000000000E+000,  0.10000000000E+001
  0.18253156034E+008,  0.20393067048E+007,  0.19000000000E+002,  0.00000000000E+000,  0.10000000000E+001
  0.18253306034E+008,  0.20396129488E+007,  0.19000000000E+002,  0.00000000000E+000,  0.10000000000E+001
  0.18253456034E+008,  0.20399194486E+007,  0.19000000000E+002,  0.00000000000E+000,  0.10000000000E+001
  0.18253606034E+008,  0.20402261997E+007,  0.19000000000E+002,  0.00000000000E+000,  0.10000000000E+001
  0.18253756034E+008,  0.20405331977E+007,  0.19000000000E+002,  0.00000000000E+000,  0.10000000000E+001
