"           TIME(S)","              PRES","              TEMP","             SAT_G","             SAT_L"
  0.17592105000E+008,  0.21000000000E+007,  0.19000000000E+002,  0.00000000000E+000,  0.10000000000E+001
  0.17592130000E+008,  0.20999998234E+007,  0.19000000000E+002,  0.00000000000E+000,  0.10000000000E+001
  0.17592255000E+008,  0.20998617035E+007,  0.19000000000E+002,  0.00000000000E+000,  0.10000000000E+001
  0.17592405000E+008,  0.20994218490E+007,  0.19000000000E+002,  0.00000000000E+000,  0.10000000000E+001
  0.17592555000E+008,  0.20987737956E+007,  0.19000000000E+002,  0.00000000000E+000,  0.10000000000E+001
  0.17592705000E+008,  0.20980162157E+007,  0.19000000000E+002,  0.00000000000E+000,  0.10000000000E+001
  0.17592855000E+008,  0.20972245163E+007,  0.19000000000E+002,  0.00000000000E+000,  0.10000000000E+001
  0.17593005000E+008,  0.20964420558E+007,  0.19000000000E+002,  0.00000000000E+000,  0.10000000000E+001
  0.17593155000E+008,  0.20956885693E+007,  0.19000000000E+002,  0.00000000000E+000,  0.10000000000E+001
  0.17593305000E+008,  0.20949700828E+007,  0.19000000000E+002,  0.00000000000E+000,  0.10000000000E+001
  0.17593455000E+008,  0.20942858876E+007,  0.19000000000E+002,  0.00000000000E+000,  0.10000000000E+001
  0.17593605000E+008,  0.20936325712E+007,  0.19000000000E+002,  0.00000000000E+000,  0.10000000000E+001
  0.17593755000E+008,  0.20930060697E+007,  0.19000000000E+002,  0.00000000000E+000,  0.10000000000E+001
  0.17593905000E+008,  0.20924025835E+007,  0.19000000000E+002,  0.00000000000E+000,  0.10000000000E+001
  0.17594055000E+008,  0.20918189045E+007,  0.19000000000E+002,  0.00000000000E+000,  0.10000000000E+001
  0.17594205000E+008,  0.20912524617E+007,  0.19000000000E+002,  0.00000000000E+000,  0.10000000000E+001
  0.17594355000E+008,  0.20907012531E+007,  0.19000000000E+002,  0.00000000000E+000,  0.10000000000E+001
  0.17594505000E+008,  0.20901637410E+007,  0.19000000000E+002,  0.00000000000E+000,  0.10000000000E+001
  0.17594655000E+008,  0.20896387482E+007,  0.19000000000E+002,  0.00000000000E+000,  0.10000000000E+001
  0.17594805000E+008,  0.20891253688E+007,  0.19000000000E+002,  0.00000000000E+000,  0.10000000000E+001
  0.17594955000E+008,  0.20886228971E+007,  0.19000000000E+002,  0.00000000000E+000,  0.10000000000E+001
  0.17595105000E+008,  0.20881307728E+007,  0.19000000000E+002,  0.00000000000E+000,  0.10000000000E+001
  0.17595255000E+008,  0.20876485401E+007,  0.19000000000E+002,  0.00000000000E+000,  0.10000000000E+001
  0.17595405000E+008,  0.20871758178E+007,  0.19000000000E+002,  0.00000000000E+000,  0.10000000000E+001
  0.17595555000E+008,  0.20867123432E+007,  0.19000000000E+002,  0.00000000000E+000,  0.10000000000E+001
  0.17595630000E+008,  0.20864828998E+007,  0.19000000000E+002,  0.00000000000E+000,  0.10000000000E+001
  0.17595780000E+008,  0.20860331437E+007,  0.19000000000E+002,  0.00000000000E+000,  0.10000000000E+001
  0.17595855001E+008,  0.20858105350E+007,  0.19000000000E+002,  0.00000000000E+000,  0.10000000000E+001
  0.17596005001E+008,  0.20853741663E+007,  0.19000000000E+002,  0.00000000000E+000,  0.10000000000E+001
  0.17596080001E+008,  0.20851581543E+007,  0.19000000000E+002,  0.00000000000E+000,  0.10000000000E+001
  0.17596117502E+008,  0.20850506858E+007,  0.19000000000E+002,  0.00000000000E+000,  0.10000000000E+001
  0.17596136252E+008,  0.20849970851E+007,  0.19000000000E+002,  0.00000000000E+000,  0.10000000000E+001
  0.17596145627E+008,  0.20849703181E+007,  0.19000000000E+002,  0.00000000000E+000,  0.10000000000E+001
  0.17596192504E+008,  0.20848373035E+007,  0.19000000000E+002,  0.00000000000E+000,  0.10000000000E+001
  0.17596342504E+008,  0.20844195496E+007,  0.19000000000E+002,  0.00000000000E+000,  0.10000000000E+001
  0.17596492504E+008,  0.20840092284E+007,  0.19000000000E+002,  0.00000000000E+000,  0.10000000000E+001
  0.17596567504E+008,  0.20838058746E+007,  0.19000000000E+002,  0.00000000000E+000,  0.10000000000E+001
  0.17596605005E+008,  0.20837046430E+007,  0.19000000000E+002,  0.00000000000E+000,  0.10000000000E+001
  0.17596755005E+008,  0.20833064054E+007,  0.19000000000E+002,  0.00000000000E+000,  0.10000000000E+001
  0.17596830005E+008,  0.20831088892E+007,  0.19000000000E+002,  0.00000000000E+000,  0.10000000000E+001
  0.17596867505E+008,  0.20830105221E+007,  0.19000000000E+002,  0.00000000000E+000,  0.10000000000E+001
  0.17597017505E+008,  0.20826227328E+007,  0.19000000000E+002,  0.00000000000E+000,  0.10000000000E+001
  0.17597092506E+008,  0.20824301750E+007,  0.19000000000E+002,  0.00000000000E+000,  0.10000000000E+001
  0.17597130006E+008,  0.20823342190E+007,  0.19000000000E+002,  0.00000000000E+000,  0.10000000000E+001
  0.17597148757E+008,  0.20822863201E+007,  0.19000000000E+002,  0.00000000000E+000,  0.10000000000E+001
  0.17597242509E+008,  0.20820486015E+007,  0.19000000000E+002,  0.00000000000E+000,  0.10000000000E+001
  0.17597392509E+008,  0.20816721522E+007,  0.19000000000E+002,  0.00000000000E+000,  0.10000000000E+001
  0.17597542509E+008,  0.20812991932E+007,  0.19000000000E+002,  0.00000000000E+000,  0.10000000000E+001
  0.17597692509E+008,  0.20809295326E+007,  0.19000000000E+002,  0.00000000000E+000,  0.10000000000E+001
  0.17597842509E+008,  0.20805631459E+007,  0.19000000000E+002,  0.00000000000E+000,  0.10000000000E+001
  0.17597992509E+008,  0.20802001307E+007,  0.19000000000E+002,  0.00000000000E+000,  0.10000000000E+001
  0.17598142509E+008,  0.20798406633E+007,  0.19000000000E+002,  0.00000000000E+000,  0.10000000000E+001
  0.17598292509E+008,  0.20794849607E+007,  0.19000000000E+002,  0.00000000000E+000,  0.10000000000E+001
  0.17598442509E+008,  0.20791332509E+007,  0.19000000000E+002,  0.00000000000E+000,  0.10000000000E+001
  0.17598592509E+008,  0.20787857531E+007,  0.19000000000E+002,  0.00000000000E+000,  0.10000000000E+001
  0.17598742509E+008,  0.20784426647E+007,  0.19000000000E+002,  0.00000000000E+000,  0.10000000000E+001
  0.17598892509E+008,  0.20781041552E+007,  0.19000000000E+002,  0.00000000000E+000,  0.10000000000E+001
  0.17599042509E+008,  0.20777703632E+007,  0.19000000000E+002,  0.00000000000E+000,  0.10000000000E+001
  0.17599192509E+008,  0.20774413967E+007,  0.19000000000E+002,  0.00000000000E+000,  0.10000000000E+001
  0.17599342509E+008,  0.20771173344E+007,  0.19000000000E+002,  0.00000000000E+000,  0.10000000000E+001
  0.17599492509E+008,  0.20767982287E+007,  0.19000000000E+002,  0.00000000000E+000,  0.10000000000E+001
  0.17599642509E+008,  0.20764841086E+007,  0.19000000000E+002,  0.00000000000E+000,  0.10000000000E+001
  0.17599792509E+008,  0.20761749829E+007,  0.19000000000E+002,  0.00000000000E+000,  0.10000000000E+001
  0.17599942509E+008,  0.20758708432E+007,  0.19000000000E+002,  0.00000000000E+000,  0.10000000000E+001
  0.17600092509E+008,  0.20755716665E+007,  0.19000000000E+002,  0.00000000000E+000,  0.10000000000E+001
  0.17600242509E+008,  0.20752774184E+007,  0.19000000000E+002,  0.00000000000E+000,  0.10000000000E+001
  0.17600392509E+008,  0.20749880547E+007,  0.19000000000E+002,  0.00000000000E+000,  0.10000000000E+001
  0.17600542509E+008,  0.20747035238E+007,  0.19000000000E+002,  0.00000000000E+000,  0.10000000000E+001
  0.17600692509E+008,  0.20744237678E+007,  0.19000000000E+002,  0.00000000000E+000,  0.10000000000E+001
  0.17600842509E+008,  0.20741487248E+007,  0.19000000000E+002,  0.00000000000E+000,  0.10000000000E+001
  0.17600992509E+008,  0.20738783291E+007,  0.19000000000E+002,  0.00000000000E+000,  0.10000000000E+001
  0.17601142509E+008,  0.20736125129E+007,  0.19000000000E+002,  0.00000000000E+000,  0.10000000000E+001
  0.17601292509E+008,  0.20733512065E+007,  0.19000000000E+002,  0.00000000000E+000,  0.10000000000E+001
  0.17601442509E+008,  0.20730943395E+007,  0.19000000000E+002,  0.00000000000E+000,  0.10000000000E+001
  0.17601592509E+008,  0.20728418409E+007,  0.19000000000E+002,  0.00000000000E+000,  0.10000000000E+001
  0.17601742509E+008,  0.20725936393E+007,  0.19000000000E+002,  0.00000000000E+000,  0.10000000000E+001
  0.17601892509E+008,  0.20723496641E+007,  0.19000000000E+002,  0.00000000000E+000,  0.10000000000E+001
  0.17602042509E+008,  0.20721098447E+007,  0.19000000000E+002,  0.00000000000E+000,  0.10000000000E+001
  0.17602192509E+008,  0.20718741113E+007,  0.19000000000E+002,  0.00000000000E+000,  0.10000000000E+001
  0.17602342509E+008,  0.20716423950E+007,  0.19000000000E+002,  0.00000000000E+000,  0.10000000000E+001
  0.17602492509E+008,  0.20714146275E+007,  0.19000000000E+002,  0.00000000000E+000,  0.10000000000E+001
  0.17602642509E+008,  0.20711907417E+007,  0.19000000000E+002,  0.00000000000E+000,  0.10000000000E+001
  0.17602792509E+008,  0.20709706715E+007,  0.19000000000E+002,  0.00000000000E+000,  0.10000000000E+001
  0.17602942509E+008,  0.20707543518E+007,  0.19000000000E+002,  0.00000000000E+000,  0.10000000000E+001
  0.17603092509E+008,  0.20705417184E+007,  0.19000000000E+002,  0.00000000000E+000,  0.10000000000E+001
  0.17603242509E+008,  0.20703327084E+007,  0.19000000000E+002,  0.00000000000E+000,  0.10000000000E+001
  0.17603392509E+008,  0.20701272600E+007,  0.19000000000E+002,  0.00000000000E+000,  0.10000000000E+001
  0.17603542509E+008,  0.20699253121E+007,  0.19000000000E+002,  0.00000000000E+000,  0.10000000000E+001
  0.17603692509E+008,  0.20697268051E+007,  0.19000000000E+002,  0.00000000000E+000,  0.10000000000E+001
  0.17603842509E+008,  0.20695316801E+007,  0.19000000000E+002,  0.00000000000E+000,  0.10000000000E+001
  0.17603992509E+008,  0.20693398796E+007,  0.19000000000E+002,  0.00000000000E+000,  0.10000000000E+001
  0.17604142509E+008,  0.20691513466E+007,  0.19000000000E+002,  0.00000000000E+000,  0.10000000000E+001
  0.17604292509E+008,  0.20689660255E+007,  0.19000000000E+002,  0.00000000000E+000,  0.10000000000E+001
  0.17604442509E+008,  0.20687838615E+007,  0.19000000000E+002,  0.00000000000E+000,  0.10000000000E+001
  0.17604592509E+008,  0.20686048008E+007,  0.19000000000E+002,  0.00000000000E+000,  0.10000000000E+001
  0.17604742509E+008,  0.20684287906E+007,  0.19000000000E+002,  0.00000000000E+000,  0.10000000000E+001
  0.17604892509E+008,  0.20682557788E+007,  0.19000000000E+002,  0.00000000000E+000,  0.10000000000E+001
  0.17605042509E+008,  0.20680857144E+007,  0.19000000000E+002,  0.00000000000E+000,  0.10000000000E+001
  0.17605192509E+008,  0.20679185472E+007,  0.19000000000E+002,  0.00000000000E+000,  0.10000000000E+001
  0.17605342509E+008,  0.20677542279E+007,  0.19000000000E+002,  0.00000000000E+000,  0.10000000000E+001
  0.17605492509E+008,  0.20675927081E+007,  0.19000000000E+002,  0.00000000000E+000,  0.10000000000E+001
  0.17605642509E+008,  0.20674339400E+007,  0.19000000000E+002,  0.00000000000E+000,  0.10000000000E+001
  0.17605792509E+008,  0.20672778768E+007,  0.19000000000E+002,  0.00000000000E+000,  0.10000000000E+001
  0.17605942509E+008,  0.20671244726E+007,  0.19000000000E+002,  0.00000000000E+000,  0.10000000000E+001
  0.17606092509E+008,  0.20669736820E+007,  0.19000000000E+002,  0.00000000000E+000,  0.10000000000E+001
  0.17606242509E+008,  0.20668254606E+007,  0.19000000000E+002,  0.00000000000E+000,  0.10000000000E+001
  0.17606392509E+008,  0.20666797647E+007,  0.19000000000E+002,  0.00000000000E+000,  0.10000000000E+001
  0.17606542509E+008,  0.20665365513E+007,  0.19000000000E+002,  0.00000000000E+000,  0.10000000000E+001
  0.17606692509E+008,  0.20663957781E+007,  0.19000000000E+002,  0.00000000000E+000,  0.10000000000E+001
  0.17606842509E+008,  0.20662574036E+007,  0.19000000000E+002,  0.00000000000E+000,  0.10000000000E+001
  0.17606992509E+008,  0.20661213869E+007,  0.19000000000E+002,  0.00000000000E+000,  0.10000000000E+001
  0.17607142509E+008,  0.20659876880E+007,  0.19000000000E+002,  0.00000000000E+000,  0.10000000000E+001
  0.17607292509E+008,  0.20658562674E+007,  0.19000000000E+002,  0.00000000000E+000,  0.10000000000E+001
  0.17607442509E+008,  0.20657270862E+007,  0.19000000000E+002,  0.00000000000E+000,  0.10000000000E+001
  0.17607592509E+008,  0.20656001063E+007,  0.19000000000E+002,  0.00000000000E+000,  0.10000000000E+001
  0.17607742509E+008,  0.20654752902E+007,  0.19000000000E+002,  0.00000000000E+000,  0.10000000000E+001
  0.17607892509E+008,  0.20653526012E+007,  0.19000000000E+002,  0.00000000000E+000,  0.10000000000E+001
  0.17608042509E+008,  0.20652320028E+007,  0.19000000000E+002,  0.00000000000E+000,  0.10000000000E+001
  0.17608192509E+008,  0.20651134595E+007,  0.19000000000E+002,  0.00000000000E+000,  0.10000000000E+001
  0.17608342509E+008,  0.20649969364E+007,  0.19000000000E+002,  0.00000000000E+000,  0.10000000000E+001
  0.17608492509E+008,  0.20648823988E+007,  0.19000000000E+002,  0.00000000000E+000,  0.10000000000E+001
  0.17608642509E+008,  0.20647698130E+007,  0.19000000000E+002,  0.00000000000E+000,  0.10000000000E+001
  0.17608792509E+008,  0.20646591458E+007,  0.19000000000E+002,  0.00000000000E+000,  0.10000000000E+001
  0.17608942509E+008,  0.20645503643E+007,  0.19000000000E+002,  0.00000000000E+000,  0.10000000000E+001
  0.17609092509E+008,  0.20644434365E+007,  0.19000000000E+002,  0.00000000000E+000,  0.10000000000E+001
  0.17609242509E+008,  0.20643383306E+007,  0.19000000000E+002,  0.00000000000E+000,  0.10000000000E+001
  0.17609392509E+008,  0.20642350157E+007,  0.19000000000E+002,  0.00000000000E+000,  0.10000000000E+001
  0.17609542509E+008,  0.20641334612E+007,  0.19000000000E+002,  0.00000000000E+000,  0.10000000000E+001
  0.17609692509E+008,  0.20640336369E+007,  0.19000000000E+002,  0.00000000000E+000,  0.10000000000E+001
  0.17609842509E+008,  0.20639355135E+007,  0.19000000000E+002,  0.00000000000E+000,  0.10000000000E+001
  0.17609992509E+008,  0.20638390618E+007,  0.19000000000E+002,  0.00000000000E+000,  0.10000000000E+001
  0.17610142509E+008,  0.20637442533E+007,  0.19000000000E+002,  0.00000000000E+000,  0.10000000000E+001
  0.17610292509E+008,  0.20636510599E+007,  0.19000000000E+002,  0.00000000000E+000,  0.10000000000E+001
  0.17610442509E+008,  0.20635594541E+007,  0.19000000000E+002,  0.00000000000E+000,  0.10000000000E+001
  0.17610592509E+008,  0.20634694088E+007,  0.19000000000E+002,  0.00000000000E+000,  0.10000000000E+001
  0.17610742509E+008,  0.20633808973E+007,  0.19000000000E+002,  0.00000000000E+000,  0.10000000000E+001
  0.17610892509E+008,  0.20632938933E+007,  0.19000000000E+002,  0.00000000000E+000,  0.10000000000E+001
  0.17611042509E+008,  0.20632083712E+007,  0.19000000000E+002,  0.00000000000E+000,  0.10000000000E+001
  0.17611192509E+008,  0.20631243055E+007,  0.19000000000E+002,  0.00000000000E+000,  0.10000000000E+001
  0.17611342509E+008,  0.20630416715E+007,  0.19000000000E+002,  0.00000000000E+000,  0.10000000000E+001
  0.17611492509E+008,  0.20629604446E+007,  0.19000000000E+002,  0.00000000000E+000,  0.10000000000E+001
  0.17611642509E+008,  0.20628806009E+007,  0.19000000000E+002,  0.00000000000E+000,  0.10000000000E+001
  0.17611792509E+008,  0.20628021165E+007,  0.19000000000E+002,  0.00000000000E+000,  0.10000000000E+001
  0.17611942509E+008,  0.20627249684E+007,  0.19000000000E+002,  0.00000000000E+000,  0.10000000000E+001
  0.17612092509E+008,  0.20626491335E+007,  0.19000000000E+002,  0.00000000000E+000,  0.10000000000E+001
  0.17612242509E+008,  0.20625745896E+007,  0.19000000000E+002,  0.00000000000E+000,  0.10000000000E+001
  0.17612392509E+008,  0.20625013145E+007,  0.19000000000E+002,  0.00000000000E+000,  0.10000000000E+001
  0.17612542509E+008,  0.20624292865E+007,  0.19000000000E+002,  0.00000000000E+000,  0.10000000000E+001
  0.17612692509E+008,  0.20623584842E+007,  0.19000000000E+002,  0.00000000000E+000,  0.10000000000E+001
  0.17612842509E+008,  0.20622888867E+007,  0.19000000000E+002,  0.00000000000E+000,  0.10000000000E+001
  0.17612992509E+008,  0.20622204734E+007,  0.19000000000E+002,  0.00000000000E+000,  0.10000000000E+001
  0.17613142509E+008,  0.20621532241E+007,  0.19000000000E+002,  0.00000000000E+000,  0.10000000000E+001
  0.17613292509E+008,  0.20620871187E+007,  0.19000000000E+002,  0.00000000000E+000,  0.10000000000E+001
  0.17613442509E+008,  0.20620221377E+007,  0.19000000000E+002,  0.00000000000E+000,  0.10000000000E+001
  0.17613592509E+008,  0.20619582619E+007,  0.19000000000E+002,  0.00000000000E+000,  0.10000000000E+001
  0.17613742509E+008,  0.20618954724E+007,  0.19000000000E+002,  0.00000000000E+000,  0.10000000000E+001
  0.17613892509E+008,  0.20618337505E+007,  0.19000000000E+002,  0.00000000000E+000,  0.10000000000E+001
  0.17614042509E+008,  0.20617730779E+007,  0.19000000000E+002,  0.00000000000E+000,  0.10000000000E+001
  0.17614192509E+008,  0.20617134368E+007,  0.19000000000E+002,  0.00000000000E+000,  0.10000000000E+001
  0.17614342509E+008,  0.20616548094E+007,  0.19000000000E+002,  0.00000000000E+000,  0.10000000000E+001
  0.17614492509E+008,  0.20615971784E+007,  0.19000000000E+002,  0.00000000000E+000,  0.10000000000E+001
  0.17614642509E+008,  0.20615405267E+007,  0.19000000000E+002,  0.00000000000E+000,  0.10000000000E+001
  0.17614792509E+008,  0.20614848376E+007,  0.19000000000E+002,  0.00000000000E+000,  0.10000000000E+001
  0.17614942509E+008,  0.20614300945E+007,  0.19000000000E+002,  0.00000000000E+000,  0.10000000000E+001
  0.17615092509E+008,  0.20613762812E+007,  0.19000000000E+002,  0.00000000000E+000,  0.10000000000E+001
  0.17615242509E+008,  0.20613233819E+007,  0.19000000000E+002,  0.00000000000E+000,  0.10000000000E+001
  0.17615392509E+008,  0.20612713808E+007,  0.19000000000E+002,  0.00000000000E+000,  0.10000000000E+001
  0.17615542509E+008,  0.20612202627E+007,  0.19000000000E+002,  0.00000000000E+000,  0.10000000000E+001
  0.17615692509E+008,  0.20611700122E+007,  0.19000000000E+002,  0.00000000000E+000,  0.10000000000E+001
  0.17615842509E+008,  0.20611206146E+007,  0.19000000000E+002,  0.00000000000E+000,  0.10000000000E+001
  0.17615992509E+008,  0.20610720553E+007,  0.19000000000E+002,  0.00000000000E+000,  0.10000000000E+001
  0.17616142509E+008,  0.20610243199E+007,  0.19000000000E+002,  0.00000000000E+000,  0.10000000000E+001
  0.17616292509E+008,  0.20609773943E+007,  0.19000000000E+002,  0.00000000000E+000,  0.10000000000E+001
  0.17616442509E+008,  0.20609312645E+007,  0.19000000000E+002,  0.00000000000E+000,  0.10000000000E+001
  0.17616592509E+008,  0.20608859170E+007,  0.19000000000E+002,  0.00000000000E+000,  0.10000000000E+001
  0.17616742509E+008,  0.20608413384E+007,  0.19000000000E+002,  0.00000000000E+000,  0.10000000000E+001
  0.17616892509E+008,  0.20607975154E+007,  0.19000000000E+002,  0.00000000000E+000,  0.10000000000E+001
  0.17617042509E+008,  0.20607544351E+007,  0.19000000000E+002,  0.00000000000E+000,  0.10000000000E+001
  0.17617192509E+008,  0.20607120848E+007,  0.19000000000E+002,  0.00000000000E+000,  0.10000000000E+001
  0.17617342509E+008,  0.20606704520E+007,  0.19000000000E+002,  0.00000000000E+000,  0.10000000000E+001
  0.17617492509E+008,  0.20606295243E+007,  0.19000000000E+002,  0.00000000000E+000,  0.10000000000E+001
  0.17617642509E+008,  0.20605892899E+007,  0.19000000000E+002,  0.00000000000E+000,  0.10000000000E+001
  0.17617792509E+008,  0.20605497364E+007,  0.19000000000E+002,  0.00000000000E+000,  0.10000000000E+001
  0.17617942509E+008,  0.20605108525E+007,  0.19000000000E+002,  0.00000000000E+000,  0.10000000000E+001
  0.17618092509E+008,  0.20604726266E+007,  0.19000000000E+002,  0.00000000000E+000,  0.10000000000E+001
  0.17618242509E+008,  0.20604350474E+007,  0.19000000000E+002,  0.00000000000E+000,  0.10000000000E+001
  0.17618392509E+008,  0.20603981039E+007,  0.19000000000E+002,  0.00000000000E+000,  0.10000000000E+001
  0.17618542509E+008,  0.20603617850E+007,  0.19000000000E+002,  0.00000000000E+000,  0.10000000000E+001
  0.17618692509E+008,  0.20603260803E+007,  0.19000000000E+002,  0.00000000000E+000,  0.10000000000E+001
