"           TIME(S)","              PRES","              TEMP","             SAT_G","             SAT_L"
  0.17592105000E+008,  0.20999999994E+007,  0.19000000000E+002,  0.00000000000E+000,  0.10000000000E+001
  0.17592130000E+008,  0.20999923038E+007,  0.19000000000E+002,  0.00000000000E+000,  0.10000000000E+001
  0.17592255000E+008,  0.20990898979E+007,  0.19000000000E+002,  0.00000000000E+000,  0.10000000000E+001
  0.17592405000E+008,  0.20972665288E+007,  0.19000000000E+002,  0.00000000000E+000,  0.10000000000E+001
  0.17592555000E+008,  0.20953023208E+007,  0.19000000000E+002,  0.00000000000E+000,  0.10000000000E+001
  0.17592705000E+008,  0.20934889320E+007,  0.19000000000E+002,  0.00000000000E+000,  0.10000000000E+001
  0.17592855000E+008,  0.20919053784E+007,  0.19000000000E+002,  0.00000000000E+000,  0.10000000000E+001
  0.17593005000E+008,  0.20905398056E+007,  0.19000000000E+002,  0.00000000000E+000,  0.10000000000E+001
  0.17593155000E+008,  0.20893539306E+007,  0.19000000000E+002,  0.00000000000E+000,  0.10000000000E+001
  0.17593305000E+008,  0.20883084789E+007,  0.19000000000E+002,  0.00000000000E+000,  0.10000000000E+001
  0.17593455000E+008,  0.20873708411E+007,  0.19000000000E+002,  0.00000000000E+000,  0.10000000000E+001
  0.17593605000E+008,  0.20865160269E+007,  0.19000000000E+002,  0.00000000000E+000,  0.10000000000E+001
  0.17593755000E+008,  0.20857255438E+007,  0.19000000000E+002,  0.00000000000E+000,  0.10000000000E+001
  0.17593905000E+008,  0.20849859060E+007,  0.19000000000E+002,  0.00000000000E+000,  0.10000000000E+001
  0.17594055000E+008,  0.20842873115E+007,  0.19000000000E+002,  0.00000000000E+000,  0.10000000000E+001
  0.17594205000E+008,  0.20836226103E+007,  0.19000000000E+002,  0.00000000000E+000,  0.10000000000E+001
  0.17594355000E+008,  0.20829865416E+007,  0.19000000000E+002,  0.00000000000E+000,  0.10000000000E+001
  0.17594505000E+008,  0.20823751845E+007,  0.19000000000E+002,  0.00000000000E+000,  0.10000000000E+001
  0.17594655000E+008,  0.20817855707E+007,  0.19000000000E+002,  0.00000000000E+000,  0.10000000000E+001
  0.17594805000E+008,  0.20812154109E+007,  0.19000000000E+002,  0.00000000000E+000,  0.10000000000E+001
  0.17594955000E+008,  0.20806629041E+007,  0.19000000000E+002,  0.00000000000E+000,  0.10000000000E+001
  0.17595105000E+008,  0.20801266034E+007,  0.19000000000E+002,  0.00000000000E+000,  0.10000000000E+001
  0.17595255000E+008,  0.20796053222E+007,  0.19000000000E+002,  0.00000000000E+000,  0.10000000000E+001
  0.17595405000E+008,  0.20790980672E+007,  0.19000000000E+002,  0.00000000000E+000,  0.10000000000E+001
  0.17595555000E+008,  0.20786040045E+007,  0.19000000000E+002,  0.00000000000E+000,  0.10000000000E+001
  0.17595630000E+008,  0.20783601757E+007,  0.19000000000E+002,  0.00000000000E+000,  0.10000000000E+001
  0.17595780000E+008,  0.20778847156E+007,  0.19000000000E+002,  0.00000000000E+000,  0.10000000000E+001
  0.17595855001E+008,  0.20776499617E+007,  0.19000000000E+002,  0.00000000000E+000,  0.10000000000E+001
  0.17596005001E+008,  0.20771918424E+007,  0.19000000000E+002,  0.00000000000E+000,  0.10000000000E+001
  0.17596080001E+008,  0.20769655639E+007,  0.19000000000E+002,  0.00000000000E+000,  0.10000000000E+001
  0.17596117502E+008,  0.20768531116E+007,  0.19000000000E+002,  0.00000000000E+000,  0.10000000000E+001
  0.17596136252E+008,  0.20767970561E+007,  0.19000000000E+002,  0.00000000000E+000,  0.10000000000E+001
  0.17596145627E+008,  0.20767690707E+007,  0.19000000000E+002,  0.00000000000E+000,  0.10000000000E+001
  0.17596192504E+008,  0.20766301938E+007,  0.19000000000E+002,  0.00000000000E+000,  0.10000000000E+001
  0.17596342504E+008,  0.20761960298E+007,  0.19000000000E+002,  0.00000000000E+000,  0.10000000000E+001
  0.17596492504E+008,  0.20757715920E+007,  0.19000000000E+002,  0.00000000000E+000,  0.10000000000E+001
  0.17596567504E+008,  0.20755617421E+007,  0.19000000000E+002,  0.00000000000E+000,  0.10000000000E+001
  0.17596605005E+008,  0.20754574015E+007,  0.19000000000E+002,  0.00000000000E+000,  0.10000000000E+001
  0.17596755005E+008,  0.20750489351E+007,  0.19000000000E+002,  0.00000000000E+000,  0.10000000000E+001
  0.17596830005E+008,  0.20748468646E+007,  0.19000000000E+002,  0.00000000000E+000,  0.10000000000E+001
  0.17596867505E+008,  0.20747463623E+007,  0.19000000000E+002,  0.00000000000E+000,  0.10000000000E+001
  0.17597017505E+008,  0.20743524112E+007,  0.19000000000E+002,  0.00000000000E+000,  0.10000000000E+001
  0.17597092506E+008,  0.20741573866E+007,  0.19000000000E+002,  0.00000000000E+000,  0.10000000000E+001
  0.17597130006E+008,  0.20740603540E+007,  0.19000000000E+002,  0.00000000000E+000,  0.10000000000E+001
  0.17597148757E+008,  0.20740119565E+007,  0.19000000000E+002,  0.00000000000E+000,  0.10000000000E+001
  0.17597242509E+008,  0.20737728190E+007,  0.19000000000E+002,  0.00000000000E+000,  0.10000000000E+001
  0.17597392509E+008,  0.20733969891E+007,  0.19000000000E+002,  0.00000000000E+000,  0.10000000000E+001
  0.17597542509E+008,  0.20730274809E+007,  0.19000000000E+002,  0.00000000000E+000,  0.10000000000E+001
  0.17597692509E+008,  0.20726639047E+007,  0.19000000000E+002,  0.00000000000E+000,  0.10000000000E+001
  0.17597842509E+008,  0.20723059456E+007,  0.19000000000E+002,  0.00000000000E+000,  0.10000000000E+001
  0.17597992509E+008,  0.20719533597E+007,  0.19000000000E+002,  0.00000000000E+000,  0.10000000000E+001
  0.17598142509E+008,  0.20716059644E+007,  0.19000000000E+002,  0.00000000000E+000,  0.10000000000E+001
  0.17598292509E+008,  0.20712636270E+007,  0.19000000000E+002,  0.00000000000E+000,  0.10000000000E+001
  0.17598442509E+008,  0.20709262524E+007,  0.19000000000E+002,  0.00000000000E+000,  0.10000000000E+001
  0.17598592509E+008,  0.20705937727E+007,  0.19000000000E+002,  0.00000000000E+000,  0.10000000000E+001
  0.17598742509E+008,  0.20702661380E+007,  0.19000000000E+002,  0.00000000000E+000,  0.10000000000E+001
  0.17598892509E+008,  0.20699433096E+007,  0.19000000000E+002,  0.00000000000E+000,  0.10000000000E+001
  0.17599042509E+008,  0.20696252549E+007,  0.19000000000E+002,  0.00000000000E+000,  0.10000000000E+001
  0.17599192509E+008,  0.20693119438E+007,  0.19000000000E+002,  0.00000000000E+000,  0.10000000000E+001
  0.17599342509E+008,  0.20690033465E+007,  0.19000000000E+002,  0.00000000000E+000,  0.10000000000E+001
  0.17599492509E+008,  0.20686994316E+007,  0.19000000000E+002,  0.00000000000E+000,  0.10000000000E+001
  0.17599642509E+008,  0.20684001657E+007,  0.19000000000E+002,  0.00000000000E+000,  0.10000000000E+001
  0.17599792509E+008,  0.20681055127E+007,  0.19000000000E+002,  0.00000000000E+000,  0.10000000000E+001
  0.17599942509E+008,  0.20678154338E+007,  0.19000000000E+002,  0.00000000000E+000,  0.10000000000E+001
  0.17600092509E+008,  0.20675298875E+007,  0.19000000000E+002,  0.00000000000E+000,  0.10000000000E+001
  0.17600242509E+008,  0.20672488301E+007,  0.19000000000E+002,  0.00000000000E+000,  0.10000000000E+001
  0.17600392509E+008,  0.20669722155E+007,  0.19000000000E+002,  0.00000000000E+000,  0.10000000000E+001
  0.17600542509E+008,  0.20666999957E+007,  0.19000000000E+002,  0.00000000000E+000,  0.10000000000E+001
  0.17600692509E+008,  0.20664321212E+007,  0.19000000000E+002,  0.00000000000E+000,  0.10000000000E+001
  0.17600842509E+008,  0.20661685413E+007,  0.19000000000E+002,  0.00000000000E+000,  0.10000000000E+001
  0.17600992509E+008,  0.20659092038E+007,  0.19000000000E+002,  0.00000000000E+000,  0.10000000000E+001
  0.17601142509E+008,  0.20656540559E+007,  0.19000000000E+002,  0.00000000000E+000,  0.10000000000E+001
  0.17601292509E+008,  0.20654030441E+007,  0.19000000000E+002,  0.00000000000E+000,  0.10000000000E+001
  0.17601442509E+008,  0.20651561143E+007,  0.19000000000E+002,  0.00000000000E+000,  0.10000000000E+001
  0.17601592509E+008,  0.20649132122E+007,  0.19000000000E+002,  0.00000000000E+000,  0.10000000000E+001
  0.17601742509E+008,  0.20646742829E+007,  0.19000000000E+002,  0.00000000000E+000,  0.10000000000E+001
  0.17601892509E+008,  0.20644392717E+007,  0.19000000000E+002,  0.00000000000E+000,  0.10000000000E+001
  0.17602042509E+008,  0.20642081237E+007,  0.19000000000E+002,  0.00000000000E+000,  0.10000000000E+001
  0.17602192509E+008,  0.20639807841E+007,  0.19000000000E+002,  0.00000000000E+000,  0.10000000000E+001
  0.17602342509E+008,  0.20637571981E+007,  0.19000000000E+002,  0.00000000000E+000,  0.10000000000E+001
  0.17602492509E+008,  0.20635373113E+007,  0.19000000000E+002,  0.00000000000E+000,  0.10000000000E+001
  0.17602642509E+008,  0.20633210694E+007,  0.19000000000E+002,  0.00000000000E+000,  0.10000000000E+001
  0.17602792509E+008,  0.20631084182E+007,  0.19000000000E+002,  0.00000000000E+000,  0.10000000000E+001
  0.17602942509E+008,  0.20628993040E+007,  0.19000000000E+002,  0.00000000000E+000,  0.10000000000E+001
  0.17603092509E+008,  0.20626936735E+007,  0.19000000000E+002,  0.00000000000E+000,  0.10000000000E+001
  0.17603242509E+008,  0.20624914738E+007,  0.19000000000E+002,  0.00000000000E+000,  0.10000000000E+001
  0.17603392509E+008,  0.20622926521E+007,  0.19000000000E+002,  0.00000000000E+000,  0.10000000000E+001
  0.17603542509E+008,  0.20620971565E+007,  0.19000000000E+002,  0.00000000000E+000,  0.10000000000E+001
  0.17603692509E+008,  0.20619049353E+007,  0.19000000000E+002,  0.00000000000E+000,  0.10000000000E+001
  0.17603842509E+008,  0.20617159372E+007,  0.19000000000E+002,  0.00000000000E+000,  0.10000000000E+001
  0.17603992509E+008,  0.20615301118E+007,  0.19000000000E+002,  0.00000000000E+000,  0.10000000000E+001
  0.17604142509E+008,  0.20613474087E+007,  0.19000000000E+002,  0.00000000000E+000,  0.10000000000E+001
  0.17604292509E+008,  0.20611677786E+007,  0.19000000000E+002,  0.00000000000E+000,  0.10000000000E+001
  0.17604442509E+008,  0.20609911723E+007,  0.19000000000E+002,  0.00000000000E+000,  0.10000000000E+001
  0.17604592509E+008,  0.20608175415E+007,  0.19000000000E+002,  0.00000000000E+000,  0.10000000000E+001
  0.17604742509E+008,  0.20606468382E+007,  0.19000000000E+002,  0.00000000000E+000,  0.10000000000E+001
  0.17604892509E+008,  0.20604790152E+007,  0.19000000000E+002,  0.00000000000E+000,  0.10000000000E+001
  0.17605042509E+008,  0.20603140258E+007,  0.19000000000E+002,  0.00000000000E+000,  0.10000000000E+001
  0.17605192509E+008,  0.20601518240E+007,  0.19000000000E+002,  0.00000000000E+000,  0.10000000000E+001
  0.17605342509E+008,  0.20599923642E+007,  0.19000000000E+002,  0.00000000000E+000,  0.10000000000E+001
  0.17605492509E+008,  0.20598356015E+007,  0.19000000000E+002,  0.00000000000E+000,  0.10000000000E+001
  0.17605642509E+008,  0.20596814918E+007,  0.19000000000E+002,  0.00000000000E+000,  0.10000000000E+001
  0.17605792509E+008,  0.20595299914E+007,  0.19000000000E+002,  0.00000000000E+000,  0.10000000000E+001
  0.17605942509E+008,  0.20593810573E+007,  0.19000000000E+002,  0.00000000000E+000,  0.10000000000E+001
  0.17606092509E+008,  0.20592346470E+007,  0.19000000000E+002,  0.00000000000E+000,  0.10000000000E+001
  0.17606242509E+008,  0.20590907188E+007,  0.19000000000E+002,  0.00000000000E+000,  0.10000000000E+001
  0.17606392509E+008,  0.20589492314E+007,  0.19000000000E+002,  0.00000000000E+000,  0.10000000000E+001
  0.17606542509E+008,  0.20588101443E+007,  0.19000000000E+002,  0.00000000000E+000,  0.10000000000E+001
  0.17606692509E+008,  0.20586734176E+007,  0.19000000000E+002,  0.00000000000E+000,  0.10000000000E+001
  0.17606842509E+008,  0.20585390118E+007,  0.19000000000E+002,  0.00000000000E+000,  0.10000000000E+001
  0.17606992509E+008,  0.20584068881E+007,  0.19000000000E+002,  0.00000000000E+000,  0.10000000000E+001
  0.17607142509E+008,  0.20582770084E+007,  0.19000000000E+002,  0.00000000000E+000,  0.10000000000E+001
  0.17607292509E+008,  0.20581493352E+007,  0.19000000000E+002,  0.00000000000E+000,  0.10000000000E+001
  0.17607442509E+008,  0.20580238313E+007,  0.19000000000E+002,  0.00000000000E+000,  0.10000000000E+001
  0.17607592509E+008,  0.20579004604E+007,  0.19000000000E+002,  0.00000000000E+000,  0.10000000000E+001
  0.17607742509E+008,  0.20577791866E+007,  0.19000000000E+002,  0.00000000000E+000,  0.10000000000E+001
  0.17607892509E+008,  0.20576599745E+007,  0.19000000000E+002,  0.00000000000E+000,  0.10000000000E+001
  0.17608042509E+008,  0.20575427896E+007,  0.19000000000E+002,  0.00000000000E+000,  0.10000000000E+001
  0.17608192509E+008,  0.20574275976E+007,  0.19000000000E+002,  0.00000000000E+000,  0.10000000000E+001
  0.17608342509E+008,  0.20573143649E+007,  0.19000000000E+002,  0.00000000000E+000,  0.10000000000E+001
  0.17608492509E+008,  0.20572030583E+007,  0.19000000000E+002,  0.00000000000E+000,  0.10000000000E+001
  0.17608642509E+008,  0.20570936455E+007,  0.19000000000E+002,  0.00000000000E+000,  0.10000000000E+001
  0.17608792509E+008,  0.20569860942E+007,  0.19000000000E+002,  0.00000000000E+000,  0.10000000000E+001
  0.17608942509E+008,  0.20568803730E+007,  0.19000000000E+002,  0.00000000000E+000,  0.10000000000E+001
  0.17609092509E+008,  0.20567764510E+007,  0.19000000000E+002,  0.00000000000E+000,  0.10000000000E+001
  0.17609242509E+008,  0.20566742976E+007,  0.19000000000E+002,  0.00000000000E+000,  0.10000000000E+001
  0.17609392509E+008,  0.20565738829E+007,  0.19000000000E+002,  0.00000000000E+000,  0.10000000000E+001
  0.17609542509E+008,  0.20564751774E+007,  0.19000000000E+002,  0.00000000000E+000,  0.10000000000E+001
  0.17609692509E+008,  0.20563781520E+007,  0.19000000000E+002,  0.00000000000E+000,  0.10000000000E+001
  0.17609842509E+008,  0.20562827783E+007,  0.19000000000E+002,  0.00000000000E+000,  0.10000000000E+001
  0.17609992509E+008,  0.20561890282E+007,  0.19000000000E+002,  0.00000000000E+000,  0.10000000000E+001
  0.17610142509E+008,  0.20560968740E+007,  0.19000000000E+002,  0.00000000000E+000,  0.10000000000E+001
  0.17610292509E+008,  0.20560062888E+007,  0.19000000000E+002,  0.00000000000E+000,  0.10000000000E+001
  0.17610442509E+008,  0.20559172457E+007,  0.19000000000E+002,  0.00000000000E+000,  0.10000000000E+001
  0.17610592509E+008,  0.20558297187E+007,  0.19000000000E+002,  0.00000000000E+000,  0.10000000000E+001
  0.17610742509E+008,  0.20557436817E+007,  0.19000000000E+002,  0.00000000000E+000,  0.10000000000E+001
  0.17610892509E+008,  0.20556591096E+007,  0.19000000000E+002,  0.00000000000E+000,  0.10000000000E+001
  0.17611042509E+008,  0.20555759773E+007,  0.19000000000E+002,  0.00000000000E+000,  0.10000000000E+001
  0.17611192509E+008,  0.20554942604E+007,  0.19000000000E+002,  0.00000000000E+000,  0.10000000000E+001
  0.17611342509E+008,  0.20554139347E+007,  0.19000000000E+002,  0.00000000000E+000,  0.10000000000E+001
  0.17611492509E+008,  0.20553349765E+007,  0.19000000000E+002,  0.00000000000E+000,  0.10000000000E+001
  0.17611642509E+008,  0.20552573624E+007,  0.19000000000E+002,  0.00000000000E+000,  0.10000000000E+001
  0.17611792509E+008,  0.20551810697E+007,  0.19000000000E+002,  0.00000000000E+000,  0.10000000000E+001
  0.17611942509E+008,  0.20551060757E+007,  0.19000000000E+002,  0.00000000000E+000,  0.10000000000E+001
  0.17612092509E+008,  0.20550323583E+007,  0.19000000000E+002,  0.00000000000E+000,  0.10000000000E+001
  0.17612242509E+008,  0.20549598957E+007,  0.19000000000E+002,  0.00000000000E+000,  0.10000000000E+001
  0.17612392509E+008,  0.20548886665E+007,  0.19000000000E+002,  0.00000000000E+000,  0.10000000000E+001
  0.17612542509E+008,  0.20548186497E+007,  0.19000000000E+002,  0.00000000000E+000,  0.10000000000E+001
  0.17612692509E+008,  0.20547498245E+007,  0.19000000000E+002,  0.00000000000E+000,  0.10000000000E+001
  0.17612842509E+008,  0.20546821706E+007,  0.19000000000E+002,  0.00000000000E+000,  0.10000000000E+001
  0.17612992509E+008,  0.20546156679E+007,  0.19000000000E+002,  0.00000000000E+000,  0.10000000000E+001
  0.17613142509E+008,  0.20545502970E+007,  0.19000000000E+002,  0.00000000000E+000,  0.10000000000E+001
  0.17613292509E+008,  0.20544860383E+007,  0.19000000000E+002,  0.00000000000E+000,  0.10000000000E+001
  0.17613442509E+008,  0.20544228729E+007,  0.19000000000E+002,  0.00000000000E+000,  0.10000000000E+001
  0.17613592509E+008,  0.20543607821E+007,  0.19000000000E+002,  0.00000000000E+000,  0.10000000000E+001
  0.17613742509E+008,  0.20542997475E+007,  0.19000000000E+002,  0.00000000000E+000,  0.10000000000E+001
  0.17613892509E+008,  0.20542397512E+007,  0.19000000000E+002,  0.00000000000E+000,  0.10000000000E+001
  0.17614042509E+008,  0.20541807753E+007,  0.19000000000E+002,  0.00000000000E+000,  0.10000000000E+001
  0.17614192509E+008,  0.20541228023E+007,  0.19000000000E+002,  0.00000000000E+000,  0.10000000000E+001
  0.17614342509E+008,  0.20540658153E+007,  0.19000000000E+002,  0.00000000000E+000,  0.10000000000E+001
  0.17614492509E+008,  0.20540097971E+007,  0.19000000000E+002,  0.00000000000E+000,  0.10000000000E+001
  0.17614642509E+008,  0.20539547314E+007,  0.19000000000E+002,  0.00000000000E+000,  0.10000000000E+001
  0.17614792509E+008,  0.20539006018E+007,  0.19000000000E+002,  0.00000000000E+000,  0.10000000000E+001
  0.17614942509E+008,  0.20538473923E+007,  0.19000000000E+002,  0.00000000000E+000,  0.10000000000E+001
  0.17615092509E+008,  0.20537950872E+007,  0.19000000000E+002,  0.00000000000E+000,  0.10000000000E+001
  0.17615242509E+008,  0.20537436709E+007,  0.19000000000E+002,  0.00000000000E+000,  0.10000000000E+001
  0.17615392509E+008,  0.20536931283E+007,  0.19000000000E+002,  0.00000000000E+000,  0.10000000000E+001
  0.17615542509E+008,  0.20536434445E+007,  0.19000000000E+002,  0.00000000000E+000,  0.10000000000E+001
  0.17615692509E+008,  0.20535946046E+007,  0.19000000000E+002,  0.00000000000E+000,  0.10000000000E+001
  0.17615842509E+008,  0.20535465943E+007,  0.19000000000E+002,  0.00000000000E+000,  0.10000000000E+001
  0.17615992509E+008,  0.20534993994E+007,  0.19000000000E+002,  0.00000000000E+000,  0.10000000000E+001
  0.17616142509E+008,  0.20534530058E+007,  0.19000000000E+002,  0.00000000000E+000,  0.10000000000E+001
  0.17616292509E+008,  0.20534074000E+007,  0.19000000000E+002,  0.00000000000E+000,  0.10000000000E+001
  0.17616442509E+008,  0.20533625683E+007,  0.19000000000E+002,  0.00000000000E+000,  0.10000000000E+001
  0.17616592509E+008,  0.20533184976E+007,  0.19000000000E+002,  0.00000000000E+000,  0.10000000000E+001
  0.17616742509E+008,  0.20532751748E+007,  0.19000000000E+002,  0.00000000000E+000,  0.10000000000E+001
  0.17616892509E+008,  0.20532325870E+007,  0.19000000000E+002,  0.00000000000E+000,  0.10000000000E+001
  0.17617042509E+008,  0.20531907218E+007,  0.19000000000E+002,  0.00000000000E+000,  0.10000000000E+001
  0.17617192509E+008,  0.20531495667E+007,  0.19000000000E+002,  0.00000000000E+000,  0.10000000000E+001
  0.17617342509E+008,  0.20531091098E+007,  0.19000000000E+002,  0.00000000000E+000,  0.10000000000E+001
  0.17617492509E+008,  0.20530693386E+007,  0.19000000000E+002,  0.00000000000E+000,  0.10000000000E+001
  0.17617642509E+008,  0.20530302419E+007,  0.19000000000E+002,  0.00000000000E+000,  0.10000000000E+001
  0.17617792509E+008,  0.20529918076E+007,  0.19000000000E+002,  0.00000000000E+000,  0.10000000000E+001
  0.17617942509E+008,  0.20529540249E+007,  0.19000000000E+002,  0.00000000000E+000,  0.10000000000E+001
  0.17618092509E+008,  0.20529168820E+007,  0.19000000000E+002,  0.00000000000E+000,  0.10000000000E+001
  0.17618242509E+008,  0.20528803687E+007,  0.19000000000E+002,  0.00000000000E+000,  0.10000000000E+001
  0.17618392509E+008,  0.20528444734E+007,  0.19000000000E+002,  0.00000000000E+000,  0.10000000000E+001
  0.17618542509E+008,  0.20528091863E+007,  0.19000000000E+002,  0.00000000000E+000,  0.10000000000E+001
  0.17618692509E+008,  0.20527744963E+007,  0.19000000000E+002,  0.00000000000E+000,  0.10000000000E+001
