"           TIME(S)","              PRES","              TEMP","             SAT_G","             SAT_L"
  0.17592105000E+008,  0.20999998470E+007,  0.19000000000E+002,  0.00000000000E+000,  0.10000000000E+001
  0.17592130000E+008,  0.20998702505E+007,  0.19000000000E+002,  0.00000000000E+000,  0.10000000000E+001
  0.17592255000E+008,  0.20961968904E+007,  0.19000000000E+002,  0.00000000000E+000,  0.10000000000E+001
  0.17592405000E+008,  0.20914277000E+007,  0.19000000000E+002,  0.00000000000E+000,  0.10000000000E+001
  0.17592555000E+008,  0.20875802029E+007,  0.19000000000E+002,  0.00000000000E+000,  0.10000000000E+001
  0.17592705000E+008,  0.20846777388E+007,  0.19000000000E+002,  0.00000000000E+000,  0.10000000000E+001
  0.17592855000E+008,  0.20824770494E+007,  0.19000000000E+002,  0.00000000000E+000,  0.10000000000E+001
  0.17593005000E+008,  0.20807574342E+007,  0.19000000000E+002,  0.00000000000E+000,  0.10000000000E+001
  0.17593155000E+008,  0.20793636961E+007,  0.19000000000E+002,  0.00000000000E+000,  0.10000000000E+001
  0.17593305000E+008,  0.20781935308E+007,  0.19000000000E+002,  0.00000000000E+000,  0.10000000000E+001
  0.17593455000E+008,  0.20771802286E+007,  0.19000000000E+002,  0.00000000000E+000,  0.10000000000E+001
  0.17593605000E+008,  0.20762799508E+007,  0.19000000000E+002,  0.00000000000E+000,  0.10000000000E+001
  0.17593755000E+008,  0.20754634705E+007,  0.19000000000E+002,  0.00000000000E+000,  0.10000000000E+001
  0.17593905000E+008,  0.20747109694E+007,  0.19000000000E+002,  0.00000000000E+000,  0.10000000000E+001
  0.17594055000E+008,  0.20740087610E+007,  0.19000000000E+002,  0.00000000000E+000,  0.10000000000E+001
  0.17594205000E+008,  0.20733472085E+007,  0.19000000000E+002,  0.00000000000E+000,  0.10000000000E+001
  0.17594355000E+008,  0.20727193853E+007,  0.19000000000E+002,  0.00000000000E+000,  0.10000000000E+001
  0.17594505000E+008,  0.20721202040E+007,  0.19000000000E+002,  0.00000000000E+000,  0.10000000000E+001
  0.17594655000E+008,  0.20715458429E+007,  0.19000000000E+002,  0.00000000000E+000,  0.10000000000E+001
  0.17594805000E+008,  0.20709933648E+007,  0.19000000000E+002,  0.00000000000E+000,  0.10000000000E+001
  0.17594955000E+008,  0.20704604609E+007,  0.19000000000E+002,  0.00000000000E+000,  0.10000000000E+001
  0.17595105000E+008,  0.20699452767E+007,  0.19000000000E+002,  0.00000000000E+000,  0.10000000000E+001
  0.17595255000E+008,  0.20694462663E+007,  0.19000000000E+002,  0.00000000000E+000,  0.10000000000E+001
  0.17595330000E+008,  0.20692006253E+007,  0.19000000000E+002,  0.00000000000E+000,  0.10000000000E+001
  0.17595480000E+008,  0.20687235629E+007,  0.19000000000E+002,  0.00000000000E+000,  0.10000000000E+001
  0.17595555001E+008,  0.20684884355E+007,  0.19000000000E+002,  0.00000000000E+000,  0.10000000000E+001
  0.17595592501E+008,  0.20683717039E+007,  0.19000000000E+002,  0.00000000000E+000,  0.10000000000E+001
  0.17595742501E+008,  0.20679169610E+007,  0.19000000000E+002,  0.00000000000E+000,  0.10000000000E+001
  0.17595817502E+008,  0.20676924909E+007,  0.19000000000E+002,  0.00000000000E+000,  0.10000000000E+001
  0.17595855002E+008,  0.20675809631E+007,  0.19000000000E+002,  0.00000000000E+000,  0.10000000000E+001
  0.17596005002E+008,  0.20671449766E+007,  0.19000000000E+002,  0.00000000000E+000,  0.10000000000E+001
  0.17596080003E+008,  0.20669293544E+007,  0.19000000000E+002,  0.00000000000E+000,  0.10000000000E+001
  0.17596117503E+008,  0.20668221156E+007,  0.19000000000E+002,  0.00000000000E+000,  0.10000000000E+001
  0.17596136254E+008,  0.20667686365E+007,  0.19000000000E+002,  0.00000000000E+000,  0.10000000000E+001
  0.17596230005E+008,  0.20665044367E+007,  0.19000000000E+002,  0.00000000000E+000,  0.10000000000E+001
  0.17596276882E+008,  0.20663730947E+007,  0.19000000000E+002,  0.00000000000E+000,  0.10000000000E+001
  0.17596426882E+008,  0.20659591991E+007,  0.19000000000E+002,  0.00000000000E+000,  0.10000000000E+001
  0.17596501882E+008,  0.20657536593E+007,  0.19000000000E+002,  0.00000000000E+000,  0.10000000000E+001
  0.17596651882E+008,  0.20653467229E+007,  0.19000000000E+002,  0.00000000000E+000,  0.10000000000E+001
  0.17596801882E+008,  0.20649428736E+007,  0.19000000000E+002,  0.00000000000E+000,  0.10000000000E+001
  0.17596951882E+008,  0.20645416170E+007,  0.19000000000E+002,  0.00000000000E+000,  0.10000000000E+001
  0.17597101882E+008,  0.20641428646E+007,  0.19000000000E+002,  0.00000000000E+000,  0.10000000000E+001
  0.17597251882E+008,  0.20637467213E+007,  0.19000000000E+002,  0.00000000000E+000,  0.10000000000E+001
  0.17597401882E+008,  0.20633533314E+007,  0.19000000000E+002,  0.00000000000E+000,  0.10000000000E+001
  0.17597551882E+008,  0.20629628025E+007,  0.19000000000E+002,  0.00000000000E+000,  0.10000000000E+001
  0.17597701882E+008,  0.20625751838E+007,  0.19000000000E+002,  0.00000000000E+000,  0.10000000000E+001
  0.17597851882E+008,  0.20621904723E+007,  0.19000000000E+002,  0.00000000000E+000,  0.10000000000E+001
  0.17598001882E+008,  0.20618086278E+007,  0.19000000000E+002,  0.00000000000E+000,  0.10000000000E+001
  0.17598151882E+008,  0.20614295889E+007,  0.19000000000E+002,  0.00000000000E+000,  0.10000000000E+001
  0.17598301882E+008,  0.20610532845E+007,  0.19000000000E+002,  0.00000000000E+000,  0.10000000000E+001
  0.17598451882E+008,  0.20606796423E+007,  0.19000000000E+002,  0.00000000000E+000,  0.10000000000E+001
  0.17598601882E+008,  0.20603085936E+007,  0.19000000000E+002,  0.00000000000E+000,  0.10000000000E+001
  0.17598751882E+008,  0.20599400754E+007,  0.19000000000E+002,  0.00000000000E+000,  0.10000000000E+001
  0.17598901882E+008,  0.20595740318E+007,  0.19000000000E+002,  0.00000000000E+000,  0.10000000000E+001
  0.17599051882E+008,  0.20592104133E+007,  0.19000000000E+002,  0.00000000000E+000,  0.10000000000E+001
  0.17599201882E+008,  0.20588491768E+007,  0.19000000000E+002,  0.00000000000E+000,  0.10000000000E+001
  0.17599351882E+008,  0.20584902844E+007,  0.19000000000E+002,  0.00000000000E+000,  0.10000000000E+001
  0.17599501882E+008,  0.20581337027E+007,  0.19000000000E+002,  0.00000000000E+000,  0.10000000000E+001
  0.17599651882E+008,  0.20577794021E+007,  0.19000000000E+002,  0.00000000000E+000,  0.10000000000E+001
  0.17599801882E+008,  0.20574273561E+007,  0.19000000000E+002,  0.00000000000E+000,  0.10000000000E+001
  0.17599951882E+008,  0.20570775407E+007,  0.19000000000E+002,  0.00000000000E+000,  0.10000000000E+001
  0.17600101882E+008,  0.20567299340E+007,  0.19000000000E+002,  0.00000000000E+000,  0.10000000000E+001
  0.17600251882E+008,  0.20563845154E+007,  0.19000000000E+002,  0.00000000000E+000,  0.10000000000E+001
  0.17600401882E+008,  0.20560412659E+007,  0.19000000000E+002,  0.00000000000E+000,  0.10000000000E+001
  0.17600551882E+008,  0.20557001676E+007,  0.19000000000E+002,  0.00000000000E+000,  0.10000000000E+001
  0.17600701882E+008,  0.20553612032E+007,  0.19000000000E+002,  0.00000000000E+000,  0.10000000000E+001
  0.17600851882E+008,  0.20550243564E+007,  0.19000000000E+002,  0.00000000000E+000,  0.10000000000E+001
  0.17601001882E+008,  0.20546896112E+007,  0.19000000000E+002,  0.00000000000E+000,  0.10000000000E+001
  0.17601151882E+008,  0.20543569525E+007,  0.19000000000E+002,  0.00000000000E+000,  0.10000000000E+001
  0.17601301882E+008,  0.20540263652E+007,  0.19000000000E+002,  0.00000000000E+000,  0.10000000000E+001
  0.17601451882E+008,  0.20536978349E+007,  0.19000000000E+002,  0.00000000000E+000,  0.10000000000E+001
  0.17601601882E+008,  0.20533713472E+007,  0.19000000000E+002,  0.00000000000E+000,  0.10000000000E+001
  0.17601751882E+008,  0.20530468883E+007,  0.19000000000E+002,  0.00000000000E+000,  0.10000000000E+001
  0.17601901882E+008,  0.20527244445E+007,  0.19000000000E+002,  0.00000000000E+000,  0.10000000000E+001
  0.17602051882E+008,  0.20524040023E+007,  0.19000000000E+002,  0.00000000000E+000,  0.10000000000E+001
  0.17602201882E+008,  0.20520855484E+007,  0.19000000000E+002,  0.00000000000E+000,  0.10000000000E+001
  0.17602351882E+008,  0.20517690698E+007,  0.19000000000E+002,  0.00000000000E+000,  0.10000000000E+001
  0.17602501882E+008,  0.20514545535E+007,  0.19000000000E+002,  0.00000000000E+000,  0.10000000000E+001
  0.17602651882E+008,  0.20511419868E+007,  0.19000000000E+002,  0.00000000000E+000,  0.10000000000E+001
  0.17602801882E+008,  0.20508313571E+007,  0.19000000000E+002,  0.00000000000E+000,  0.10000000000E+001
  0.17602951882E+008,  0.20505226519E+007,  0.19000000000E+002,  0.00000000000E+000,  0.10000000000E+001
  0.17603101882E+008,  0.20502158589E+007,  0.19000000000E+002,  0.00000000000E+000,  0.10000000000E+001
  0.17603251882E+008,  0.20499109660E+007,  0.19000000000E+002,  0.00000000000E+000,  0.10000000000E+001
  0.17603401882E+008,  0.20496079609E+007,  0.19000000000E+002,  0.00000000000E+000,  0.10000000000E+001
  0.17603551882E+008,  0.20493068318E+007,  0.19000000000E+002,  0.00000000000E+000,  0.10000000000E+001
  0.17603701882E+008,  0.20490075668E+007,  0.19000000000E+002,  0.00000000000E+000,  0.10000000000E+001
  0.17603851882E+008,  0.20487101541E+007,  0.19000000000E+002,  0.00000000000E+000,  0.10000000000E+001
  0.17604001882E+008,  0.20484145820E+007,  0.19000000000E+002,  0.00000000000E+000,  0.10000000000E+001
  0.17604151882E+008,  0.20481208390E+007,  0.19000000000E+002,  0.00000000000E+000,  0.10000000000E+001
  0.17604301882E+008,  0.20478289136E+007,  0.19000000000E+002,  0.00000000000E+000,  0.10000000000E+001
  0.17604451882E+008,  0.20475387944E+007,  0.19000000000E+002,  0.00000000000E+000,  0.10000000000E+001
  0.17604601882E+008,  0.20472504701E+007,  0.19000000000E+002,  0.00000000000E+000,  0.10000000000E+001
  0.17604751882E+008,  0.20469639296E+007,  0.19000000000E+002,  0.00000000000E+000,  0.10000000000E+001
  0.17604901882E+008,  0.20466791616E+007,  0.19000000000E+002,  0.00000000000E+000,  0.10000000000E+001
  0.17605051882E+008,  0.20463961551E+007,  0.19000000000E+002,  0.00000000000E+000,  0.10000000000E+001
  0.17605201882E+008,  0.20461148992E+007,  0.19000000000E+002,  0.00000000000E+000,  0.10000000000E+001
  0.17605351882E+008,  0.20458353830E+007,  0.19000000000E+002,  0.00000000000E+000,  0.10000000000E+001
  0.17605501882E+008,  0.20455575956E+007,  0.19000000000E+002,  0.00000000000E+000,  0.10000000000E+001
  0.17605651882E+008,  0.20452815264E+007,  0.19000000000E+002,  0.00000000000E+000,  0.10000000000E+001
  0.17605801882E+008,  0.20450071645E+007,  0.19000000000E+002,  0.00000000000E+000,  0.10000000000E+001
  0.17605951882E+008,  0.20447344995E+007,  0.19000000000E+002,  0.00000000000E+000,  0.10000000000E+001
  0.17606101882E+008,  0.20444635209E+007,  0.19000000000E+002,  0.00000000000E+000,  0.10000000000E+001
  0.17606251882E+008,  0.20441942181E+007,  0.19000000000E+002,  0.00000000000E+000,  0.10000000000E+001
  0.17606401882E+008,  0.20439265808E+007,  0.19000000000E+002,  0.00000000000E+000,  0.10000000000E+001
  0.17606551882E+008,  0.20436605986E+007,  0.19000000000E+002,  0.00000000000E+000,  0.10000000000E+001
  0.17606701882E+008,  0.20433962613E+007,  0.19000000000E+002,  0.00000000000E+000,  0.10000000000E+001
  0.17606851882E+008,  0.20431335588E+007,  0.19000000000E+002,  0.00000000000E+000,  0.10000000000E+001
  0.17607001882E+008,  0.20428724809E+007,  0.19000000000E+002,  0.00000000000E+000,  0.10000000000E+001
  0.17607151882E+008,  0.20426130175E+007,  0.19000000000E+002,  0.00000000000E+000,  0.10000000000E+001
  0.17607301882E+008,  0.20423551586E+007,  0.19000000000E+002,  0.00000000000E+000,  0.10000000000E+001
  0.17607451882E+008,  0.20420988944E+007,  0.19000000000E+002,  0.00000000000E+000,  0.10000000000E+001
  0.17607601882E+008,  0.20418442149E+007,  0.19000000000E+002,  0.00000000000E+000,  0.10000000000E+001
  0.17607751882E+008,  0.20415911104E+007,  0.19000000000E+002,  0.00000000000E+000,  0.10000000000E+001
  0.17607901882E+008,  0.20413395712E+007,  0.19000000000E+002,  0.00000000000E+000,  0.10000000000E+001
  0.17608051882E+008,  0.20410895874E+007,  0.19000000000E+002,  0.00000000000E+000,  0.10000000000E+001
  0.17608201882E+008,  0.20408411496E+007,  0.19000000000E+002,  0.00000000000E+000,  0.10000000000E+001
  0.17608351882E+008,  0.20405942482E+007,  0.19000000000E+002,  0.00000000000E+000,  0.10000000000E+001
  0.17608501882E+008,  0.20403488736E+007,  0.19000000000E+002,  0.00000000000E+000,  0.10000000000E+001
  0.17608651882E+008,  0.20401050164E+007,  0.19000000000E+002,  0.00000000000E+000,  0.10000000000E+001
  0.17608801882E+008,  0.20398626673E+007,  0.19000000000E+002,  0.00000000000E+000,  0.10000000000E+001
  0.17608951882E+008,  0.20396218169E+007,  0.19000000000E+002,  0.00000000000E+000,  0.10000000000E+001
  0.17609101882E+008,  0.20393824559E+007,  0.19000000000E+002,  0.00000000000E+000,  0.10000000000E+001
  0.17609251882E+008,  0.20391445752E+007,  0.19000000000E+002,  0.00000000000E+000,  0.10000000000E+001
  0.17609401882E+008,  0.20389081657E+007,  0.19000000000E+002,  0.00000000000E+000,  0.10000000000E+001
  0.17609551882E+008,  0.20386732181E+007,  0.19000000000E+002,  0.00000000000E+000,  0.10000000000E+001
  0.17609701882E+008,  0.20384397235E+007,  0.19000000000E+002,  0.00000000000E+000,  0.10000000000E+001
  0.17609851882E+008,  0.20382076729E+007,  0.19000000000E+002,  0.00000000000E+000,  0.10000000000E+001
  0.17610001882E+008,  0.20379770573E+007,  0.19000000000E+002,  0.00000000000E+000,  0.10000000000E+001
  0.17610151882E+008,  0.20377478680E+007,  0.19000000000E+002,  0.00000000000E+000,  0.10000000000E+001
  0.17610301882E+008,  0.20375200960E+007,  0.19000000000E+002,  0.00000000000E+000,  0.10000000000E+001
  0.17610451882E+008,  0.20372937327E+007,  0.19000000000E+002,  0.00000000000E+000,  0.10000000000E+001
  0.17610601882E+008,  0.20370687692E+007,  0.19000000000E+002,  0.00000000000E+000,  0.10000000000E+001
  0.17610751882E+008,  0.20368451971E+007,  0.19000000000E+002,  0.00000000000E+000,  0.10000000000E+001
  0.17610901882E+008,  0.20366230076E+007,  0.19000000000E+002,  0.00000000000E+000,  0.10000000000E+001
  0.17611051882E+008,  0.20364021922E+007,  0.19000000000E+002,  0.00000000000E+000,  0.10000000000E+001
  0.17611201882E+008,  0.20361827425E+007,  0.19000000000E+002,  0.00000000000E+000,  0.10000000000E+001
  0.17611351882E+008,  0.20359646499E+007,  0.19000000000E+002,  0.00000000000E+000,  0.10000000000E+001
  0.17611501882E+008,  0.20357479062E+007,  0.19000000000E+002,  0.00000000000E+000,  0.10000000000E+001
  0.17611651882E+008,  0.20355325029E+007,  0.19000000000E+002,  0.00000000000E+000,  0.10000000000E+001
  0.17611801882E+008,  0.20353184318E+007,  0.19000000000E+002,  0.00000000000E+000,  0.10000000000E+001
  0.17611951882E+008,  0.20351056846E+007,  0.19000000000E+002,  0.00000000000E+000,  0.10000000000E+001
  0.17612101882E+008,  0.20348942532E+007,  0.19000000000E+002,  0.00000000000E+000,  0.10000000000E+001
  0.17612251882E+008,  0.20346841294E+007,  0.19000000000E+002,  0.00000000000E+000,  0.10000000000E+001
  0.17612401882E+008,  0.20344753051E+007,  0.19000000000E+002,  0.00000000000E+000,  0.10000000000E+001
  0.17612551882E+008,  0.20342677724E+007,  0.19000000000E+002,  0.00000000000E+000,  0.10000000000E+001
  0.17612701882E+008,  0.20340615232E+007,  0.19000000000E+002,  0.00000000000E+000,  0.10000000000E+001
  0.17612851882E+008,  0.20338565496E+007,  0.19000000000E+002,  0.00000000000E+000,  0.10000000000E+001
  0.17613001882E+008,  0.20336528437E+007,  0.19000000000E+002,  0.00000000000E+000,  0.10000000000E+001
  0.17613151882E+008,  0.20334503976E+007,  0.19000000000E+002,  0.00000000000E+000,  0.10000000000E+001
  0.17613301882E+008,  0.20332492037E+007,  0.19000000000E+002,  0.00000000000E+000,  0.10000000000E+001
  0.17613451882E+008,  0.20330492541E+007,  0.19000000000E+002,  0.00000000000E+000,  0.10000000000E+001
  0.17613601882E+008,  0.20328505411E+007,  0.19000000000E+002,  0.00000000000E+000,  0.10000000000E+001
  0.17613751882E+008,  0.20326530571E+007,  0.19000000000E+002,  0.00000000000E+000,  0.10000000000E+001
  0.17613901882E+008,  0.20324567946E+007,  0.19000000000E+002,  0.00000000000E+000,  0.10000000000E+001
  0.17614051882E+008,  0.20322617459E+007,  0.19000000000E+002,  0.00000000000E+000,  0.10000000000E+001
  0.17614201882E+008,  0.20320679036E+007,  0.19000000000E+002,  0.00000000000E+000,  0.10000000000E+001
  0.17614351882E+008,  0.20318752601E+007,  0.19000000000E+002,  0.00000000000E+000,  0.10000000000E+001
  0.17614501882E+008,  0.20316838082E+007,  0.19000000000E+002,  0.00000000000E+000,  0.10000000000E+001
  0.17614651882E+008,  0.20314935403E+007,  0.19000000000E+002,  0.00000000000E+000,  0.10000000000E+001
  0.17614801882E+008,  0.20313044493E+007,  0.19000000000E+002,  0.00000000000E+000,  0.10000000000E+001
  0.17614951882E+008,  0.20311165278E+007,  0.19000000000E+002,  0.00000000000E+000,  0.10000000000E+001
  0.17615101882E+008,  0.20309297685E+007,  0.19000000000E+002,  0.00000000000E+000,  0.10000000000E+001
  0.17615251882E+008,  0.20307441644E+007,  0.19000000000E+002,  0.00000000000E+000,  0.10000000000E+001
  0.17615401882E+008,  0.20305597083E+007,  0.19000000000E+002,  0.00000000000E+000,  0.10000000000E+001
  0.17615551882E+008,  0.20303763930E+007,  0.19000000000E+002,  0.00000000000E+000,  0.10000000000E+001
  0.17615701882E+008,  0.20301942115E+007,  0.19000000000E+002,  0.00000000000E+000,  0.10000000000E+001
  0.17615851882E+008,  0.20300131568E+007,  0.19000000000E+002,  0.00000000000E+000,  0.10000000000E+001
  0.17616001882E+008,  0.20298332219E+007,  0.19000000000E+002,  0.00000000000E+000,  0.10000000000E+001
  0.17616151882E+008,  0.20296544000E+007,  0.19000000000E+002,  0.00000000000E+000,  0.10000000000E+001
  0.17616301882E+008,  0.20294766841E+007,  0.19000000000E+002,  0.00000000000E+000,  0.10000000000E+001
  0.17616451882E+008,  0.20293000674E+007,  0.19000000000E+002,  0.00000000000E+000,  0.10000000000E+001
  0.17616601882E+008,  0.20291245430E+007,  0.19000000000E+002,  0.00000000000E+000,  0.10000000000E+001
  0.17616751882E+008,  0.20289501044E+007,  0.19000000000E+002,  0.00000000000E+000,  0.10000000000E+001
  0.17616901882E+008,  0.20287767446E+007,  0.19000000000E+002,  0.00000000000E+000,  0.10000000000E+001
  0.17617051882E+008,  0.20286044571E+007,  0.19000000000E+002,  0.00000000000E+000,  0.10000000000E+001
  0.17617201882E+008,  0.20284332352E+007,  0.19000000000E+002,  0.00000000000E+000,  0.10000000000E+001
  0.17617351882E+008,  0.20282630724E+007,  0.19000000000E+002,  0.00000000000E+000,  0.10000000000E+001
  0.17617501882E+008,  0.20280939620E+007,  0.19000000000E+002,  0.00000000000E+000,  0.10000000000E+001
  0.17617651882E+008,  0.20279258977E+007,  0.19000000000E+002,  0.00000000000E+000,  0.10000000000E+001
  0.17617801882E+008,  0.20277588728E+007,  0.19000000000E+002,  0.00000000000E+000,  0.10000000000E+001
  0.17617951882E+008,  0.20275928810E+007,  0.19000000000E+002,  0.00000000000E+000,  0.10000000000E+001
  0.17618101882E+008,  0.20274279159E+007,  0.19000000000E+002,  0.00000000000E+000,  0.10000000000E+001
  0.17618251882E+008,  0.20272639712E+007,  0.19000000000E+002,  0.00000000000E+000,  0.10000000000E+001
  0.17618401882E+008,  0.20271010405E+007,  0.19000000000E+002,  0.00000000000E+000,  0.10000000000E+001
  0.17618551882E+008,  0.20269391176E+007,  0.19000000000E+002,  0.00000000000E+000,  0.10000000000E+001
  0.17618701882E+008,  0.20267781962E+007,  0.19000000000E+002,  0.00000000000E+000,  0.10000000000E+001
  0.17618851882E+008,  0.20266182702E+007,  0.19000000000E+002,  0.00000000000E+000,  0.10000000000E+001
  0.17619001882E+008,  0.20264593333E+007,  0.19000000000E+002,  0.00000000000E+000,  0.10000000000E+001
  0.17619151882E+008,  0.20263013795E+007,  0.19000000000E+002,  0.00000000000E+000,  0.10000000000E+001
