"           TIME(S)","              PRES","              TEMP","             SAT_G","             SAT_L"
  0.18228740000E+008,  0.20000083675E+007,  0.19000000000E+002,  0.00000000000E+000,  0.10000000000E+001
  0.18228890000E+008,  0.20000743976E+007,  0.19000000000E+002,  0.00000000000E+000,  0.10000000000E+001
  0.18229040000E+008,  0.20001270187E+007,  0.19000000000E+002,  0.00000000000E+000,  0.10000000000E+001
  0.18229190000E+008,  0.20001621881E+007,  0.19000000000E+002,  0.00000000000E+000,  0.10000000000E+001
  0.18229340000E+008,  0.20001852981E+007,  0.19000000000E+002,  0.00000000000E+000,  0.10000000000E+001
  0.18229490000E+008,  0.20002011054E+007,  0.19000000000E+002,  0.00000000000E+000,  0.10000000000E+001
  0.18229640000E+008,  0.20002126288E+007,  0.19000000000E+002,  0.00000000000E+000,  0.10000000000E+001
  0.18229790000E+008,  0.20002216575E+007,  0.19000000000E+002,  0.00000000000E+000,  0.10000000000E+001
  0.18229865000E+008,  0.20002257136E+007,  0.19000000000E+002,  0.00000000000E+000,  0.10000000000E+001
  0.18230015000E+008,  0.20002327763E+007,  0.19000000000E+002,  0.00000000000E+000,  0.10000000000E+001
  0.18230165000E+008,  0.20002392598E+007,  0.19000000000E+002,  0.00000000000E+000,  0.10000000000E+001
  0.18230315000E+008,  0.20002454512E+007,  0.19000000000E+002,  0.00000000000E+000,  0.10000000000E+001
  0.18230465000E+008,  0.20002515298E+007,  0.19000000000E+002,  0.00000000000E+000,  0.10000000000E+001
  0.18230615000E+008,  0.20002576097E+007,  0.19000000000E+002,  0.00000000000E+000,  0.10000000000E+001
  0.18230765000E+008,  0.20002637649E+007,  0.19000000000E+002,  0.00000000000E+000,  0.10000000000E+001
  0.18230915000E+008,  0.20002700439E+007,  0.19000000000E+002,  0.00000000000E+000,  0.10000000000E+001
  0.18231065000E+008,  0.20002764789E+007,  0.19000000000E+002,  0.00000000000E+000,  0.10000000000E+001
  0.18231215000E+008,  0.20002830906E+007,  0.19000000000E+002,  0.00000000000E+000,  0.10000000000E+001
  0.18231365000E+008,  0.20002898925E+007,  0.19000000000E+002,  0.00000000000E+000,  0.10000000000E+001
  0.18231515000E+008,  0.20002968927E+007,  0.19000000000E+002,  0.00000000000E+000,  0.10000000000E+001
  0.18231665000E+008,  0.20003040954E+007,  0.19000000000E+002,  0.00000000000E+000,  0.10000000000E+001
  0.18231815000E+008,  0.20003115024E+007,  0.19000000000E+002,  0.00000000000E+000,  0.10000000000E+001
  0.18231965000E+008,  0.20003191132E+007,  0.19000000000E+002,  0.00000000000E+000,  0.10000000000E+001
  0.18232115000E+008,  0.20003269264E+007,  0.19000000000E+002,  0.00000000000E+000,  0.10000000000E+001
  0.18232265000E+008,  0.20003349393E+007,  0.19000000000E+002,  0.00000000000E+000,  0.10000000000E+001
  0.18232415000E+008,  0.20003431488E+007,  0.19000000000E+002,  0.00000000000E+000,  0.10000000000E+001
  0.18232565000E+008,  0.20003515513E+007,  0.19000000000E+002,  0.00000000000E+000,  0.10000000000E+001
  0.18232640001E+008,  0.20003558003E+007,  0.19000000000E+002,  0.00000000000E+000,  0.10000000000E+001
  0.18232677501E+008,  0.20003579367E+007,  0.19000000000E+002,  0.00000000000E+000,  0.10000000000E+001
  0.18232827501E+008,  0.20003666664E+007,  0.19000000000E+002,  0.00000000000E+000,  0.10000000000E+001
  0.18232977501E+008,  0.20003755734E+007,  0.19000000000E+002,  0.00000000000E+000,  0.10000000000E+001
  0.18233052502E+008,  0.20003800703E+007,  0.19000000000E+002,  0.00000000000E+000,  0.10000000000E+001
  0.18233202502E+008,  0.20003892305E+007,  0.19000000000E+002,  0.00000000000E+000,  0.10000000000E+001
  0.18233352502E+008,  0.20003985503E+007,  0.19000000000E+002,  0.00000000000E+000,  0.10000000000E+001
  0.18233502502E+008,  0.20004080239E+007,  0.19000000000E+002,  0.00000000000E+000,  0.10000000000E+001
  0.18233652502E+008,  0.20004176466E+007,  0.19000000000E+002,  0.00000000000E+000,  0.10000000000E+001
  0.18233802502E+008,  0.20004274152E+007,  0.19000000000E+002,  0.00000000000E+000,  0.10000000000E+001
  0.18233952502E+008,  0.20004373267E+007,  0.19000000000E+002,  0.00000000000E+000,  0.10000000000E+001
  0.18234102502E+008,  0.20004473795E+007,  0.19000000000E+002,  0.00000000000E+000,  0.10000000000E+001
  0.18234252502E+008,  0.20004575721E+007,  0.19000000000E+002,  0.00000000000E+000,  0.10000000000E+001
  0.18234402502E+008,  0.20004679013E+007,  0.19000000000E+002,  0.00000000000E+000,  0.10000000000E+001
  0.18234552502E+008,  0.20004783656E+007,  0.19000000000E+002,  0.00000000000E+000,  0.10000000000E+001
  0.18234702502E+008,  0.20004889628E+007,  0.19000000000E+002,  0.00000000000E+000,  0.10000000000E+001
  0.18234852502E+008,  0.20004996890E+007,  0.19000000000E+002,  0.00000000000E+000,  0.10000000000E+001
  0.18235002502E+008,  0.20005105419E+007,  0.19000000000E+002,  0.00000000000E+000,  0.10000000000E+001
  0.18235152502E+008,  0.20005215187E+007,  0.19000000000E+002,  0.00000000000E+000,  0.10000000000E+001
  0.18235302502E+008,  0.20005326150E+007,  0.19000000000E+002,  0.00000000000E+000,  0.10000000000E+001
  0.18235452502E+008,  0.20005438284E+007,  0.19000000000E+002,  0.00000000000E+000,  0.10000000000E+001
  0.18235602502E+008,  0.20005551557E+007,  0.19000000000E+002,  0.00000000000E+000,  0.10000000000E+001
  0.18235752502E+008,  0.20005665927E+007,  0.19000000000E+002,  0.00000000000E+000,  0.10000000000E+001
  0.18235902502E+008,  0.20005781367E+007,  0.19000000000E+002,  0.00000000000E+000,  0.10000000000E+001
  0.18236052502E+008,  0.20005897850E+007,  0.19000000000E+002,  0.00000000000E+000,  0.10000000000E+001
  0.18236202502E+008,  0.20006015335E+007,  0.19000000000E+002,  0.00000000000E+000,  0.10000000000E+001
  0.18236352502E+008,  0.20006133795E+007,  0.19000000000E+002,  0.00000000000E+000,  0.10000000000E+001
  0.18236502502E+008,  0.20006253206E+007,  0.19000000000E+002,  0.00000000000E+000,  0.10000000000E+001
  0.18236652502E+008,  0.20006373528E+007,  0.19000000000E+002,  0.00000000000E+000,  0.10000000000E+001
  0.18236802502E+008,  0.20006494743E+007,  0.19000000000E+002,  0.00000000000E+000,  0.10000000000E+001
  0.18236877502E+008,  0.20006555569E+007,  0.19000000000E+002,  0.00000000000E+000,  0.10000000000E+001
  0.18236915003E+008,  0.20006586036E+007,  0.19000000000E+002,  0.00000000000E+000,  0.10000000000E+001
  0.18236933753E+008,  0.20006601283E+007,  0.19000000000E+002,  0.00000000000E+000,  0.10000000000E+001
  0.18237027505E+008,  0.20006677849E+007,  0.19000000000E+002,  0.00000000000E+000,  0.10000000000E+001
  0.18237074381E+008,  0.20006716213E+007,  0.19000000000E+002,  0.00000000000E+000,  0.10000000000E+001
  0.18237097819E+008,  0.20006735416E+007,  0.19000000000E+002,  0.00000000000E+000,  0.10000000000E+001
  0.18237215011E+008,  0.20006831914E+007,  0.19000000000E+002,  0.00000000000E+000,  0.10000000000E+001
  0.18237365011E+008,  0.20006956169E+007,  0.19000000000E+002,  0.00000000000E+000,  0.10000000000E+001
  0.18237440011E+008,  0.20007018475E+007,  0.19000000000E+002,  0.00000000000E+000,  0.10000000000E+001
  0.18237477511E+008,  0.20007049672E+007,  0.19000000000E+002,  0.00000000000E+000,  0.10000000000E+001
  0.18237627511E+008,  0.20007175102E+007,  0.19000000000E+002,  0.00000000000E+000,  0.10000000000E+001
  0.18237777511E+008,  0.20007301129E+007,  0.19000000000E+002,  0.00000000000E+000,  0.10000000000E+001
  0.18237852512E+008,  0.20007364288E+007,  0.19000000000E+002,  0.00000000000E+000,  0.10000000000E+001
  0.18237890012E+008,  0.20007395902E+007,  0.19000000000E+002,  0.00000000000E+000,  0.10000000000E+001
  0.18238040012E+008,  0.20007522899E+007,  0.19000000000E+002,  0.00000000000E+000,  0.10000000000E+001
  0.18238115013E+008,  0.20007586530E+007,  0.19000000000E+002,  0.00000000000E+000,  0.10000000000E+001
  0.18238152513E+008,  0.20007618377E+007,  0.19000000000E+002,  0.00000000000E+000,  0.10000000000E+001
  0.18238302513E+008,  0.20007746270E+007,  0.19000000000E+002,  0.00000000000E+000,  0.10000000000E+001
  0.18238452513E+008,  0.20007874658E+007,  0.19000000000E+002,  0.00000000000E+000,  0.10000000000E+001
  0.18238602513E+008,  0.20008003542E+007,  0.19000000000E+002,  0.00000000000E+000,  0.10000000000E+001
  0.18238677514E+008,  0.20008068109E+007,  0.19000000000E+002,  0.00000000000E+000,  0.10000000000E+001
  0.18238715014E+008,  0.20008100423E+007,  0.19000000000E+002,  0.00000000000E+000,  0.10000000000E+001
  0.18238733765E+008,  0.20008116588E+007,  0.19000000000E+002,  0.00000000000E+000,  0.10000000000E+001
  0.18238827516E+008,  0.20008197611E+007,  0.19000000000E+002,  0.00000000000E+000,  0.10000000000E+001
  0.18238977516E+008,  0.20008327757E+007,  0.19000000000E+002,  0.00000000000E+000,  0.10000000000E+001
  0.18239052517E+008,  0.20008392960E+007,  0.19000000000E+002,  0.00000000000E+000,  0.10000000000E+001
  0.18239090017E+008,  0.20008425594E+007,  0.19000000000E+002,  0.00000000000E+000,  0.10000000000E+001
  0.18239240017E+008,  0.20008556661E+007,  0.19000000000E+002,  0.00000000000E+000,  0.10000000000E+001
  0.18239390017E+008,  0.20008688261E+007,  0.19000000000E+002,  0.00000000000E+000,  0.10000000000E+001
  0.18239540017E+008,  0.20008820404E+007,  0.19000000000E+002,  0.00000000000E+000,  0.10000000000E+001
  0.18239690017E+008,  0.20008953093E+007,  0.19000000000E+002,  0.00000000000E+000,  0.10000000000E+001
  0.18239840017E+008,  0.20009086317E+007,  0.19000000000E+002,  0.00000000000E+000,  0.10000000000E+001
  0.18239915018E+008,  0.20009153062E+007,  0.19000000000E+002,  0.00000000000E+000,  0.10000000000E+001
  0.18239952518E+008,  0.20009186468E+007,  0.19000000000E+002,  0.00000000000E+000,  0.10000000000E+001
  0.18240102518E+008,  0.20009320592E+007,  0.19000000000E+002,  0.00000000000E+000,  0.10000000000E+001
  0.18240252518E+008,  0.20009455177E+007,  0.19000000000E+002,  0.00000000000E+000,  0.10000000000E+001
  0.18240402518E+008,  0.20009590362E+007,  0.19000000000E+002,  0.00000000000E+000,  0.10000000000E+001
  0.18240477519E+008,  0.20009658276E+007,  0.19000000000E+002,  0.00000000000E+000,  0.10000000000E+001
  0.18240515019E+008,  0.20009692337E+007,  0.19000000000E+002,  0.00000000000E+000,  0.10000000000E+001
  0.18240665019E+008,  0.20009831819E+007,  0.19000000000E+002,  0.00000000000E+000,  0.10000000000E+001
  0.18240740020E+008,  0.20009902535E+007,  0.19000000000E+002,  0.00000000000E+000,  0.10000000000E+001
  0.18240777520E+008,  0.20009938152E+007,  0.19000000000E+002,  0.00000000000E+000,  0.10000000000E+001
  0.18240927520E+008,  0.20010084456E+007,  0.19000000000E+002,  0.00000000000E+000,  0.10000000000E+001
  0.18241002521E+008,  0.20010158483E+007,  0.19000000000E+002,  0.00000000000E+000,  0.10000000000E+001
  0.18241040021E+008,  0.20010195703E+007,  0.19000000000E+002,  0.00000000000E+000,  0.10000000000E+001
  0.18241058771E+008,  0.20010214363E+007,  0.19000000000E+002,  0.00000000000E+000,  0.10000000000E+001
  0.18241152523E+008,  0.20010308729E+007,  0.19000000000E+002,  0.00000000000E+000,  0.10000000000E+001
  0.18241302523E+008,  0.20010461820E+007,  0.19000000000E+002,  0.00000000000E+000,  0.10000000000E+001
  0.18241377524E+008,  0.20010538826E+007,  0.19000000000E+002,  0.00000000000E+000,  0.10000000000E+001
  0.18241527524E+008,  0.20010694259E+007,  0.19000000000E+002,  0.00000000000E+000,  0.10000000000E+001
  0.18241602524E+008,  0.20010772287E+007,  0.19000000000E+002,  0.00000000000E+000,  0.10000000000E+001
  0.18241752524E+008,  0.20010929295E+007,  0.19000000000E+002,  0.00000000000E+000,  0.10000000000E+001
  0.18241902524E+008,  0.20011087031E+007,  0.19000000000E+002,  0.00000000000E+000,  0.10000000000E+001
  0.18241977525E+008,  0.20011166058E+007,  0.19000000000E+002,  0.00000000000E+000,  0.10000000000E+001
  0.18242127525E+008,  0.20011324588E+007,  0.19000000000E+002,  0.00000000000E+000,  0.10000000000E+001
  0.18242277525E+008,  0.20011483481E+007,  0.19000000000E+002,  0.00000000000E+000,  0.10000000000E+001
  0.18242427525E+008,  0.20011642656E+007,  0.19000000000E+002,  0.00000000000E+000,  0.10000000000E+001
  0.18242577525E+008,  0.20011802061E+007,  0.19000000000E+002,  0.00000000000E+000,  0.10000000000E+001
  0.18242652525E+008,  0.20011881816E+007,  0.19000000000E+002,  0.00000000000E+000,  0.10000000000E+001
  0.18242690026E+008,  0.20011921706E+007,  0.19000000000E+002,  0.00000000000E+000,  0.10000000000E+001
  0.18242840026E+008,  0.20012081434E+007,  0.19000000000E+002,  0.00000000000E+000,  0.10000000000E+001
  0.18242915026E+008,  0.20012161337E+007,  0.19000000000E+002,  0.00000000000E+000,  0.10000000000E+001
  0.18243065026E+008,  0.20012321260E+007,  0.19000000000E+002,  0.00000000000E+000,  0.10000000000E+001
  0.18243140026E+008,  0.20012401246E+007,  0.19000000000E+002,  0.00000000000E+000,  0.10000000000E+001
  0.18243290026E+008,  0.20012561257E+007,  0.19000000000E+002,  0.00000000000E+000,  0.10000000000E+001
  0.18243440026E+008,  0.20012721242E+007,  0.19000000000E+002,  0.00000000000E+000,  0.10000000000E+001
  0.18243515027E+008,  0.20012801219E+007,  0.19000000000E+002,  0.00000000000E+000,  0.10000000000E+001
  0.18243665027E+008,  0.20012961026E+007,  0.19000000000E+002,  0.00000000000E+000,  0.10000000000E+001
  0.18243815027E+008,  0.20013120605E+007,  0.19000000000E+002,  0.00000000000E+000,  0.10000000000E+001
  0.18243890027E+008,  0.20013200328E+007,  0.19000000000E+002,  0.00000000000E+000,  0.10000000000E+001
  0.18244040027E+008,  0.20013359437E+007,  0.19000000000E+002,  0.00000000000E+000,  0.10000000000E+001
  0.18244190027E+008,  0.20013518157E+007,  0.19000000000E+002,  0.00000000000E+000,  0.10000000000E+001
  0.18244265028E+008,  0.20013597413E+007,  0.19000000000E+002,  0.00000000000E+000,  0.10000000000E+001
  0.18244415028E+008,  0.20013755473E+007,  0.19000000000E+002,  0.00000000000E+000,  0.10000000000E+001
  0.18244490028E+008,  0.20013834385E+007,  0.19000000000E+002,  0.00000000000E+000,  0.10000000000E+001
  0.18244640028E+008,  0.20013991698E+007,  0.19000000000E+002,  0.00000000000E+000,  0.10000000000E+001
  0.18244790028E+008,  0.20014148469E+007,  0.19000000000E+002,  0.00000000000E+000,  0.10000000000E+001
  0.18244940028E+008,  0.20014304673E+007,  0.19000000000E+002,  0.00000000000E+000,  0.10000000000E+001
  0.18245090028E+008,  0.20014460302E+007,  0.19000000000E+002,  0.00000000000E+000,  0.10000000000E+001
  0.18245240028E+008,  0.20014615357E+007,  0.19000000000E+002,  0.00000000000E+000,  0.10000000000E+001
  0.18245390028E+008,  0.20014769852E+007,  0.19000000000E+002,  0.00000000000E+000,  0.10000000000E+001
  0.18245540028E+008,  0.20014923821E+007,  0.19000000000E+002,  0.00000000000E+000,  0.10000000000E+001
  0.18245690028E+008,  0.20015077292E+007,  0.19000000000E+002,  0.00000000000E+000,  0.10000000000E+001
  0.18245840028E+008,  0.20015230306E+007,  0.19000000000E+002,  0.00000000000E+000,  0.10000000000E+001
  0.18245990028E+008,  0.20015382907E+007,  0.19000000000E+002,  0.00000000000E+000,  0.10000000000E+001
  0.18246140028E+008,  0.20015535142E+007,  0.19000000000E+002,  0.00000000000E+000,  0.10000000000E+001
  0.18246290028E+008,  0.20015687062E+007,  0.19000000000E+002,  0.00000000000E+000,  0.10000000000E+001
  0.18246440028E+008,  0.20015838716E+007,  0.19000000000E+002,  0.00000000000E+000,  0.10000000000E+001
  0.18246590028E+008,  0.20015990154E+007,  0.19000000000E+002,  0.00000000000E+000,  0.10000000000E+001
  0.18246740028E+008,  0.20016141425E+007,  0.19000000000E+002,  0.00000000000E+000,  0.10000000000E+001
  0.18246890028E+008,  0.20016292577E+007,  0.19000000000E+002,  0.00000000000E+000,  0.10000000000E+001
  0.18247040028E+008,  0.20016443658E+007,  0.19000000000E+002,  0.00000000000E+000,  0.10000000000E+001
  0.18247190028E+008,  0.20016594708E+007,  0.19000000000E+002,  0.00000000000E+000,  0.10000000000E+001
  0.18247340028E+008,  0.20016745780E+007,  0.19000000000E+002,  0.00000000000E+000,  0.10000000000E+001
  0.18247490028E+008,  0.20016896907E+007,  0.19000000000E+002,  0.00000000000E+000,  0.10000000000E+001
  0.18247640028E+008,  0.20017048133E+007,  0.19000000000E+002,  0.00000000000E+000,  0.10000000000E+001
  0.18247790028E+008,  0.20017199499E+007,  0.19000000000E+002,  0.00000000000E+000,  0.10000000000E+001
  0.18247940028E+008,  0.20017351031E+007,  0.19000000000E+002,  0.00000000000E+000,  0.10000000000E+001
  0.18248090028E+008,  0.20017502769E+007,  0.19000000000E+002,  0.00000000000E+000,  0.10000000000E+001
  0.18248240028E+008,  0.20017654747E+007,  0.19000000000E+002,  0.00000000000E+000,  0.10000000000E+001
  0.18248390028E+008,  0.20017806985E+007,  0.19000000000E+002,  0.00000000000E+000,  0.10000000000E+001
  0.18248540028E+008,  0.20017959516E+007,  0.19000000000E+002,  0.00000000000E+000,  0.10000000000E+001
  0.18248690028E+008,  0.20018112365E+007,  0.19000000000E+002,  0.00000000000E+000,  0.10000000000E+001
  0.18248840028E+008,  0.20018265559E+007,  0.19000000000E+002,  0.00000000000E+000,  0.10000000000E+001
  0.18248990028E+008,  0.20018419111E+007,  0.19000000000E+002,  0.00000000000E+000,  0.10000000000E+001
  0.18249140028E+008,  0.20018573046E+007,  0.19000000000E+002,  0.00000000000E+000,  0.10000000000E+001
  0.18249290028E+008,  0.20018727383E+007,  0.19000000000E+002,  0.00000000000E+000,  0.10000000000E+001
  0.18249440028E+008,  0.20018882140E+007,  0.19000000000E+002,  0.00000000000E+000,  0.10000000000E+001
  0.18249590028E+008,  0.20019037323E+007,  0.19000000000E+002,  0.00000000000E+000,  0.10000000000E+001
  0.18249740028E+008,  0.20019192952E+007,  0.19000000000E+002,  0.00000000000E+000,  0.10000000000E+001
  0.18249890028E+008,  0.20019349038E+007,  0.19000000000E+002,  0.00000000000E+000,  0.10000000000E+001
  0.18250040028E+008,  0.20019505595E+007,  0.19000000000E+002,  0.00000000000E+000,  0.10000000000E+001
  0.18250190028E+008,  0.20019662623E+007,  0.19000000000E+002,  0.00000000000E+000,  0.10000000000E+001
  0.18250340028E+008,  0.20019820137E+007,  0.19000000000E+002,  0.00000000000E+000,  0.10000000000E+001
  0.18250490028E+008,  0.20019978142E+007,  0.19000000000E+002,  0.00000000000E+000,  0.10000000000E+001
  0.18250640028E+008,  0.20020136649E+007,  0.19000000000E+002,  0.00000000000E+000,  0.10000000000E+001
  0.18250790028E+008,  0.20020295652E+007,  0.19000000000E+002,  0.00000000000E+000,  0.10000000000E+001
  0.18250940028E+008,  0.20020455162E+007,  0.19000000000E+002,  0.00000000000E+000,  0.10000000000E+001
  0.18251090028E+008,  0.20020615181E+007,  0.19000000000E+002,  0.00000000000E+000,  0.10000000000E+001
  0.18251240028E+008,  0.20020775715E+007,  0.19000000000E+002,  0.00000000000E+000,  0.10000000000E+001
  0.18251390028E+008,  0.20020936757E+007,  0.19000000000E+002,  0.00000000000E+000,  0.10000000000E+001
  0.18251540028E+008,  0.20021098313E+007,  0.19000000000E+002,  0.00000000000E+000,  0.10000000000E+001
  0.18251690028E+008,  0.20021260382E+007,  0.19000000000E+002,  0.00000000000E+000,  0.10000000000E+001
  0.18251840028E+008,  0.20021422969E+007,  0.19000000000E+002,  0.00000000000E+000,  0.10000000000E+001
  0.18251990028E+008,  0.20021586063E+007,  0.19000000000E+002,  0.00000000000E+000,  0.10000000000E+001
  0.18252140028E+008,  0.20021749667E+007,  0.19000000000E+002,  0.00000000000E+000,  0.10000000000E+001
  0.18252290028E+008,  0.20021913781E+007,  0.19000000000E+002,  0.00000000000E+000,  0.10000000000E+001
  0.18252440028E+008,  0.20022078405E+007,  0.19000000000E+002,  0.00000000000E+000,  0.10000000000E+001
  0.18252590028E+008,  0.20022243527E+007,  0.19000000000E+002,  0.00000000000E+000,  0.10000000000E+001
  0.18252740028E+008,  0.20022409150E+007,  0.19000000000E+002,  0.00000000000E+000,  0.10000000000E+001
  0.18252890028E+008,  0.20022575270E+007,  0.19000000000E+002,  0.00000000000E+000,  0.10000000000E+001
  0.18253040028E+008,  0.20022741889E+007,  0.19000000000E+002,  0.00000000000E+000,  0.10000000000E+001
