"           TIME(S)","              PRES","              TEMP","             SAT_G","             SAT_L"
  0.17963400000E+008,  0.20995850485E+007,  0.19000000000E+002,  0.00000000000E+000,  0.10000000000E+001
  0.17964900000E+008,  0.20965889410E+007,  0.19000000000E+002,  0.00000000000E+000,  0.10000000000E+001
  0.17966400000E+008,  0.20933583043E+007,  0.19000000000E+002,  0.00000000000E+000,  0.10000000000E+001
  0.17967900000E+008,  0.20901459247E+007,  0.19000000000E+002,  0.00000000000E+000,  0.10000000000E+001
  0.17969400000E+008,  0.20869291152E+007,  0.19000000000E+002,  0.00000000000E+000,  0.10000000000E+001
  0.17970900000E+008,  0.20836947647E+007,  0.19000000000E+002,  0.00000000000E+000,  0.10000000000E+001
  0.17972400000E+008,  0.20804480415E+007,  0.19000000000E+002,  0.00000000000E+000,  0.10000000000E+001
  0.17973900000E+008,  0.20772083515E+007,  0.19000000000E+002,  0.00000000000E+000,  0.10000000000E+001
  0.17975400000E+008,  0.20740006762E+007,  0.19000000000E+002,  0.00000000000E+000,  0.10000000000E+001
  0.17976900000E+008,  0.20708490084E+007,  0.19000000000E+002,  0.00000000000E+000,  0.10000000000E+001
  0.17978400000E+008,  0.20677730702E+007,  0.19000000000E+002,  0.00000000000E+000,  0.10000000000E+001
  0.17979900000E+008,  0.20647874114E+007,  0.19000000000E+002,  0.00000000000E+000,  0.10000000000E+001
  0.17981400000E+008,  0.20619288097E+007,  0.19000000000E+002,  0.00000000000E+000,  0.10000000000E+001
  0.17982900000E+008,  0.20595710614E+007,  0.19000000000E+002,  0.00000000000E+000,  0.10000000000E+001
  0.17984400000E+008,  0.20575618364E+007,  0.19000000000E+002,  0.00000000000E+000,  0.10000000000E+001
  0.17985900000E+008,  0.20557367032E+007,  0.19000000000E+002,  0.00000000000E+000,  0.10000000000E+001
  0.17987400000E+008,  0.20540480047E+007,  0.19000000000E+002,  0.00000000000E+000,  0.10000000000E+001
  0.17988900000E+008,  0.20524750291E+007,  0.19000000000E+002,  0.00000000000E+000,  0.10000000000E+001
  0.17990400000E+008,  0.20510042144E+007,  0.19000000000E+002,  0.00000000000E+000,  0.10000000000E+001
  0.17991900000E+008,  0.20496249896E+007,  0.19000000000E+002,  0.00000000000E+000,  0.10000000000E+001
  0.17993400000E+008,  0.20483285610E+007,  0.19000000000E+002,  0.00000000000E+000,  0.10000000000E+001
  0.17994900000E+008,  0.20471074027E+007,  0.19000000000E+002,  0.00000000000E+000,  0.10000000000E+001
  0.17996400000E+008,  0.20459549776E+007,  0.19000000000E+002,  0.00000000000E+000,  0.10000000000E+001
  0.17997900000E+008,  0.20448655548E+007,  0.19000000000E+002,  0.00000000000E+000,  0.10000000000E+001
  0.17999400000E+008,  0.20438340778E+007,  0.19000000000E+002,  0.00000000000E+000,  0.10000000000E+001
  0.18000900000E+008,  0.20428560616E+007,  0.19000000000E+002,  0.00000000000E+000,  0.10000000000E+001
  0.18002400000E+008,  0.20419275102E+007,  0.19000000000E+002,  0.00000000000E+000,  0.10000000000E+001
  0.18003900000E+008,  0.20410448484E+007,  0.19000000000E+002,  0.00000000000E+000,  0.10000000000E+001
  0.18005400000E+008,  0.20402048654E+007,  0.19000000000E+002,  0.00000000000E+000,  0.10000000000E+001
  0.18006900000E+008,  0.20394046671E+007,  0.19000000000E+002,  0.00000000000E+000,  0.10000000000E+001
  0.18008400000E+008,  0.20386416356E+007,  0.19000000000E+002,  0.00000000000E+000,  0.10000000000E+001
  0.18009900000E+008,  0.20379133958E+007,  0.19000000000E+002,  0.00000000000E+000,  0.10000000000E+001
  0.18011400000E+008,  0.20372177852E+007,  0.19000000000E+002,  0.00000000000E+000,  0.10000000000E+001
  0.18012900000E+008,  0.20365528303E+007,  0.19000000000E+002,  0.00000000000E+000,  0.10000000000E+001
  0.18014400000E+008,  0.20359167240E+007,  0.19000000000E+002,  0.00000000000E+000,  0.10000000000E+001
  0.18015900000E+008,  0.20353078082E+007,  0.19000000000E+002,  0.00000000000E+000,  0.10000000000E+001
  0.18017400000E+008,  0.20347264538E+007,  0.19000000000E+002,  0.00000000000E+000,  0.10000000000E+001
  0.18018900000E+008,  0.20341699789E+007,  0.19000000000E+002,  0.00000000000E+000,  0.10000000000E+001
  0.18020400000E+008,  0.20336367872E+007,  0.19000000000E+002,  0.00000000000E+000,  0.10000000000E+001
  0.18021900000E+008,  0.20331255596E+007,  0.19000000000E+002,  0.00000000000E+000,  0.10000000000E+001
  0.18023400000E+008,  0.20326351121E+007,  0.19000000000E+002,  0.00000000000E+000,  0.10000000000E+001
  0.18024900000E+008,  0.20321643607E+007,  0.19000000000E+002,  0.00000000000E+000,  0.10000000000E+001
  0.18026400000E+008,  0.20317123056E+007,  0.19000000000E+002,  0.00000000000E+000,  0.10000000000E+001
  0.18027900000E+008,  0.20312780201E+007,  0.19000000000E+002,  0.00000000000E+000,  0.10000000000E+001
  0.18029400000E+008,  0.20308606422E+007,  0.19000000000E+002,  0.00000000000E+000,  0.10000000000E+001
  0.18030900000E+008,  0.20304593684E+007,  0.19000000000E+002,  0.00000000000E+000,  0.10000000000E+001
  0.18032400000E+008,  0.20300734481E+007,  0.19000000000E+002,  0.00000000000E+000,  0.10000000000E+001
  0.18033900000E+008,  0.20297021787E+007,  0.19000000000E+002,  0.00000000000E+000,  0.10000000000E+001
  0.18035400000E+008,  0.20293449013E+007,  0.19000000000E+002,  0.00000000000E+000,  0.10000000000E+001
  0.18036900000E+008,  0.20290009974E+007,  0.19000000000E+002,  0.00000000000E+000,  0.10000000000E+001
  0.18038400000E+008,  0.20286698850E+007,  0.19000000000E+002,  0.00000000000E+000,  0.10000000000E+001
  0.18039900000E+008,  0.20283510163E+007,  0.19000000000E+002,  0.00000000000E+000,  0.10000000000E+001
  0.18041400000E+008,  0.20280438748E+007,  0.19000000000E+002,  0.00000000000E+000,  0.10000000000E+001
  0.18042900000E+008,  0.20277479728E+007,  0.19000000000E+002,  0.00000000000E+000,  0.10000000000E+001
  0.18044400000E+008,  0.20274628494E+007,  0.19000000000E+002,  0.00000000000E+000,  0.10000000000E+001
  0.18045900000E+008,  0.20271880687E+007,  0.19000000000E+002,  0.00000000000E+000,  0.10000000000E+001
  0.18047400000E+008,  0.20269232177E+007,  0.19000000000E+002,  0.00000000000E+000,  0.10000000000E+001
  0.18048900000E+008,  0.20266679051E+007,  0.19000000000E+002,  0.00000000000E+000,  0.10000000000E+001
  0.18050400000E+008,  0.20264217596E+007,  0.19000000000E+002,  0.00000000000E+000,  0.10000000000E+001
  0.18051900000E+008,  0.20261844284E+007,  0.19000000000E+002,  0.00000000000E+000,  0.10000000000E+001
  0.18053400000E+008,  0.20259555765E+007,  0.19000000000E+002,  0.00000000000E+000,  0.10000000000E+001
  0.18054900000E+008,  0.20257348851E+007,  0.19000000000E+002,  0.00000000000E+000,  0.10000000000E+001
  0.18056400000E+008,  0.20255220508E+007,  0.19000000000E+002,  0.00000000000E+000,  0.10000000000E+001
  0.18057900000E+008,  0.20253167847E+007,  0.19000000000E+002,  0.00000000000E+000,  0.10000000000E+001
  0.18059400000E+008,  0.20251188112E+007,  0.19000000000E+002,  0.00000000000E+000,  0.10000000000E+001
  0.18060900000E+008,  0.20249278676E+007,  0.19000000000E+002,  0.00000000000E+000,  0.10000000000E+001
  0.18062400000E+008,  0.20247437032E+007,  0.19000000000E+002,  0.00000000000E+000,  0.10000000000E+001
  0.18063900000E+008,  0.20245660783E+007,  0.19000000000E+002,  0.00000000000E+000,  0.10000000000E+001
  0.18065400000E+008,  0.20243947642E+007,  0.19000000000E+002,  0.00000000000E+000,  0.10000000000E+001
  0.18066900000E+008,  0.20242295419E+007,  0.19000000000E+002,  0.00000000000E+000,  0.10000000000E+001
  0.18068400000E+008,  0.20240702022E+007,  0.19000000000E+002,  0.00000000000E+000,  0.10000000000E+001
  0.18069900000E+008,  0.20239711552E+007,  0.19000000000E+002,  0.00000000000E+000,  0.10000000000E+001
  0.18071400000E+008,  0.20239240172E+007,  0.19000000000E+002,  0.00000000000E+000,  0.10000000000E+001
  0.18072900000E+008,  0.20239023515E+007,  0.19000000000E+002,  0.00000000000E+000,  0.10000000000E+001
  0.18074400000E+008,  0.20238982900E+007,  0.19000000000E+002,  0.00000000000E+000,  0.10000000000E+001
  0.18075900000E+008,  0.20239078775E+007,  0.19000000000E+002,  0.00000000000E+000,  0.10000000000E+001
  0.18077400000E+008,  0.20239284749E+007,  0.19000000000E+002,  0.00000000000E+000,  0.10000000000E+001
  0.18078900000E+008,  0.20239581372E+007,  0.19000000000E+002,  0.00000000000E+000,  0.10000000000E+001
  0.18080400000E+008,  0.20239953606E+007,  0.19000000000E+002,  0.00000000000E+000,  0.10000000000E+001
  0.18081900000E+008,  0.20240389510E+007,  0.19000000000E+002,  0.00000000000E+000,  0.10000000000E+001
  0.18083400000E+008,  0.20240879456E+007,  0.19000000000E+002,  0.00000000000E+000,  0.10000000000E+001
  0.18084900000E+008,  0.20241415602E+007,  0.19000000000E+002,  0.00000000000E+000,  0.10000000000E+001
  0.18086400000E+008,  0.20241991520E+007,  0.19000000000E+002,  0.00000000000E+000,  0.10000000000E+001
  0.18087900000E+008,  0.20242601911E+007,  0.19000000000E+002,  0.00000000000E+000,  0.10000000000E+001
  0.18089400000E+008,  0.20243242388E+007,  0.19000000000E+002,  0.00000000000E+000,  0.10000000000E+001
  0.18090900000E+008,  0.20243909306E+007,  0.19000000000E+002,  0.00000000000E+000,  0.10000000000E+001
  0.18092400000E+008,  0.20244599617E+007,  0.19000000000E+002,  0.00000000000E+000,  0.10000000000E+001
  0.18093900000E+008,  0.20245310767E+007,  0.19000000000E+002,  0.00000000000E+000,  0.10000000000E+001
  0.18095400000E+008,  0.20246040604E+007,  0.19000000000E+002,  0.00000000000E+000,  0.10000000000E+001
  0.18096900000E+008,  0.20246787304E+007,  0.19000000000E+002,  0.00000000000E+000,  0.10000000000E+001
  0.18098400000E+008,  0.20247549314E+007,  0.19000000000E+002,  0.00000000000E+000,  0.10000000000E+001
  0.18099900000E+008,  0.20248325305E+007,  0.19000000000E+002,  0.00000000000E+000,  0.10000000000E+001
  0.18101400000E+008,  0.20249114132E+007,  0.19000000000E+002,  0.00000000000E+000,  0.10000000000E+001
  0.18102900000E+008,  0.20249914803E+007,  0.19000000000E+002,  0.00000000000E+000,  0.10000000000E+001
  0.18104400000E+008,  0.20250726452E+007,  0.19000000000E+002,  0.00000000000E+000,  0.10000000000E+001
  0.18105900000E+008,  0.20251548320E+007,  0.19000000000E+002,  0.00000000000E+000,  0.10000000000E+001
  0.18107400000E+008,  0.20252379738E+007,  0.19000000000E+002,  0.00000000000E+000,  0.10000000000E+001
  0.18108900000E+008,  0.20253220108E+007,  0.19000000000E+002,  0.00000000000E+000,  0.10000000000E+001
  0.18110400000E+008,  0.20254068897E+007,  0.19000000000E+002,  0.00000000000E+000,  0.10000000000E+001
  0.18111900000E+008,  0.20254925625E+007,  0.19000000000E+002,  0.00000000000E+000,  0.10000000000E+001
  0.18113400000E+008,  0.20255789857E+007,  0.19000000000E+002,  0.00000000000E+000,  0.10000000000E+001
  0.18114900000E+008,  0.20256661197E+007,  0.19000000000E+002,  0.00000000000E+000,  0.10000000000E+001
  0.18116400000E+008,  0.20257539280E+007,  0.19000000000E+002,  0.00000000000E+000,  0.10000000000E+001
  0.18117900000E+008,  0.20258423771E+007,  0.19000000000E+002,  0.00000000000E+000,  0.10000000000E+001
  0.18119400000E+008,  0.20259314362E+007,  0.19000000000E+002,  0.00000000000E+000,  0.10000000000E+001
  0.18120900000E+008,  0.20260210762E+007,  0.19000000000E+002,  0.00000000000E+000,  0.10000000000E+001
  0.18122400000E+008,  0.20261484024E+007,  0.19000000000E+002,  0.00000000000E+000,  0.10000000000E+001
  0.18123900000E+008,  0.20263640045E+007,  0.19000000000E+002,  0.00000000000E+000,  0.10000000000E+001
  0.18125400000E+008,  0.20266149052E+007,  0.19000000000E+002,  0.00000000000E+000,  0.10000000000E+001
  0.18126900000E+008,  0.20268871737E+007,  0.19000000000E+002,  0.00000000000E+000,  0.10000000000E+001
  0.18128400000E+008,  0.20271746360E+007,  0.19000000000E+002,  0.00000000000E+000,  0.10000000000E+001
  0.18129900000E+008,  0.20274733665E+007,  0.19000000000E+002,  0.00000000000E+000,  0.10000000000E+001
  0.18131400000E+008,  0.20277805355E+007,  0.19000000000E+002,  0.00000000000E+000,  0.10000000000E+001
  0.18132900000E+008,  0.20280939870E+007,  0.19000000000E+002,  0.00000000000E+000,  0.10000000000E+001
  0.18134400000E+008,  0.20284120294E+007,  0.19000000000E+002,  0.00000000000E+000,  0.10000000000E+001
  0.18135900000E+008,  0.20287333155E+007,  0.19000000000E+002,  0.00000000000E+000,  0.10000000000E+001
  0.18137400000E+008,  0.20290567640E+007,  0.19000000000E+002,  0.00000000000E+000,  0.10000000000E+001
  0.18138900000E+008,  0.20293815040E+007,  0.19000000000E+002,  0.00000000000E+000,  0.10000000000E+001
  0.18140400000E+008,  0.20297068334E+007,  0.19000000000E+002,  0.00000000000E+000,  0.10000000000E+001
  0.18141900000E+008,  0.20300321869E+007,  0.19000000000E+002,  0.00000000000E+000,  0.10000000000E+001
  0.18143400000E+008,  0.20303571105E+007,  0.19000000000E+002,  0.00000000000E+000,  0.10000000000E+001
  0.18144900000E+008,  0.20306812407E+007,  0.19000000000E+002,  0.00000000000E+000,  0.10000000000E+001
  0.18146400000E+008,  0.20310042876E+007,  0.19000000000E+002,  0.00000000000E+000,  0.10000000000E+001
  0.18147900000E+008,  0.20313260220E+007,  0.19000000000E+002,  0.00000000000E+000,  0.10000000000E+001
  0.18149400000E+008,  0.20316462638E+007,  0.19000000000E+002,  0.00000000000E+000,  0.10000000000E+001
  0.18150900000E+008,  0.20319648732E+007,  0.19000000000E+002,  0.00000000000E+000,  0.10000000000E+001
  0.18152400000E+008,  0.20322817433E+007,  0.19000000000E+002,  0.00000000000E+000,  0.10000000000E+001
  0.18153900000E+008,  0.20325967940E+007,  0.19000000000E+002,  0.00000000000E+000,  0.10000000000E+001
  0.18155400000E+008,  0.20329099671E+007,  0.19000000000E+002,  0.00000000000E+000,  0.10000000000E+001
  0.18156900000E+008,  0.20332212220E+007,  0.19000000000E+002,  0.00000000000E+000,  0.10000000000E+001
  0.18158400000E+008,  0.20335305329E+007,  0.19000000000E+002,  0.00000000000E+000,  0.10000000000E+001
  0.18159900000E+008,  0.20338378855E+007,  0.19000000000E+002,  0.00000000000E+000,  0.10000000000E+001
  0.18161400000E+008,  0.20341432749E+007,  0.19000000000E+002,  0.00000000000E+000,  0.10000000000E+001
  0.18162900000E+008,  0.20344467041E+007,  0.19000000000E+002,  0.00000000000E+000,  0.10000000000E+001
  0.18164400000E+008,  0.20347481819E+007,  0.19000000000E+002,  0.00000000000E+000,  0.10000000000E+001
  0.18165900000E+008,  0.20350477223E+007,  0.19000000000E+002,  0.00000000000E+000,  0.10000000000E+001
  0.18167400000E+008,  0.20353453430E+007,  0.19000000000E+002,  0.00000000000E+000,  0.10000000000E+001
  0.18168900000E+008,  0.20356410645E+007,  0.19000000000E+002,  0.00000000000E+000,  0.10000000000E+001
  0.18170400000E+008,  0.20359349100E+007,  0.19000000000E+002,  0.00000000000E+000,  0.10000000000E+001
  0.18171900000E+008,  0.20362269041E+007,  0.19000000000E+002,  0.00000000000E+000,  0.10000000000E+001
  0.18173400000E+008,  0.20365170730E+007,  0.19000000000E+002,  0.00000000000E+000,  0.10000000000E+001
  0.18174900000E+008,  0.20368057383E+007,  0.19000000000E+002,  0.00000000000E+000,  0.10000000000E+001
  0.18176400000E+008,  0.20370968670E+007,  0.19000000000E+002,  0.00000000000E+000,  0.10000000000E+001
  0.18177900000E+008,  0.20373878735E+007,  0.19000000000E+002,  0.00000000000E+000,  0.10000000000E+001
  0.18179400000E+008,  0.20376781264E+007,  0.19000000000E+002,  0.00000000000E+000,  0.10000000000E+001
  0.18180900000E+008,  0.20379673788E+007,  0.19000000000E+002,  0.00000000000E+000,  0.10000000000E+001
  0.18182400000E+008,  0.20382554876E+007,  0.19000000000E+002,  0.00000000000E+000,  0.10000000000E+001
  0.18183900000E+008,  0.20385423571E+007,  0.19000000000E+002,  0.00000000000E+000,  0.10000000000E+001
  0.18185400000E+008,  0.20388279206E+007,  0.19000000000E+002,  0.00000000000E+000,  0.10000000000E+001
  0.18186900000E+008,  0.20391121303E+007,  0.19000000000E+002,  0.00000000000E+000,  0.10000000000E+001
  0.18188400000E+008,  0.20393949527E+007,  0.19000000000E+002,  0.00000000000E+000,  0.10000000000E+001
  0.18189900000E+008,  0.20396763652E+007,  0.19000000000E+002,  0.00000000000E+000,  0.10000000000E+001
  0.18191400000E+008,  0.20399563536E+007,  0.19000000000E+002,  0.00000000000E+000,  0.10000000000E+001
  0.18192900000E+008,  0.20402349104E+007,  0.19000000000E+002,  0.00000000000E+000,  0.10000000000E+001
  0.18194400000E+008,  0.20405120336E+007,  0.19000000000E+002,  0.00000000000E+000,  0.10000000000E+001
  0.18195900000E+008,  0.20407877255E+007,  0.19000000000E+002,  0.00000000000E+000,  0.10000000000E+001
  0.18197400000E+008,  0.20410619918E+007,  0.19000000000E+002,  0.00000000000E+000,  0.10000000000E+001
  0.18198900000E+008,  0.20413348409E+007,  0.19000000000E+002,  0.00000000000E+000,  0.10000000000E+001
  0.18200400000E+008,  0.20416062836E+007,  0.19000000000E+002,  0.00000000000E+000,  0.10000000000E+001
  0.18201900000E+008,  0.20418763320E+007,  0.19000000000E+002,  0.00000000000E+000,  0.10000000000E+001
  0.18203400000E+008,  0.20421449999E+007,  0.19000000000E+002,  0.00000000000E+000,  0.10000000000E+001
  0.18204900000E+008,  0.20424123018E+007,  0.19000000000E+002,  0.00000000000E+000,  0.10000000000E+001
  0.18206400000E+008,  0.20426782531E+007,  0.19000000000E+002,  0.00000000000E+000,  0.10000000000E+001
  0.18207900000E+008,  0.20429428695E+007,  0.19000000000E+002,  0.00000000000E+000,  0.10000000000E+001
  0.18209400000E+008,  0.20432061672E+007,  0.19000000000E+002,  0.00000000000E+000,  0.10000000000E+001
  0.18210900000E+008,  0.20434681626E+007,  0.19000000000E+002,  0.00000000000E+000,  0.10000000000E+001
  0.18212400000E+008,  0.20437288722E+007,  0.19000000000E+002,  0.00000000000E+000,  0.10000000000E+001
  0.18213900000E+008,  0.20439883122E+007,  0.19000000000E+002,  0.00000000000E+000,  0.10000000000E+001
  0.18215400000E+008,  0.20442464991E+007,  0.19000000000E+002,  0.00000000000E+000,  0.10000000000E+001
  0.18216900000E+008,  0.20445034489E+007,  0.19000000000E+002,  0.00000000000E+000,  0.10000000000E+001
  0.18218400000E+008,  0.20447591778E+007,  0.19000000000E+002,  0.00000000000E+000,  0.10000000000E+001
  0.18219900000E+008,  0.20450137014E+007,  0.19000000000E+002,  0.00000000000E+000,  0.10000000000E+001
  0.18221400000E+008,  0.20452670352E+007,  0.19000000000E+002,  0.00000000000E+000,  0.10000000000E+001
  0.18222900000E+008,  0.20455191944E+007,  0.19000000000E+002,  0.00000000000E+000,  0.10000000000E+001
  0.18224400000E+008,  0.20457701939E+007,  0.19000000000E+002,  0.00000000000E+000,  0.10000000000E+001
  0.18225900000E+008,  0.20460200482E+007,  0.19000000000E+002,  0.00000000000E+000,  0.10000000000E+001
  0.18227400000E+008,  0.20462687717E+007,  0.19000000000E+002,  0.00000000000E+000,  0.10000000000E+001
  0.18228900000E+008,  0.20465205925E+007,  0.19000000000E+002,  0.00000000000E+000,  0.10000000000E+001
  0.18230400000E+008,  0.20467744792E+007,  0.19000000000E+002,  0.00000000000E+000,  0.10000000000E+001
  0.18231900000E+008,  0.20470288550E+007,  0.19000000000E+002,  0.00000000000E+000,  0.10000000000E+001
  0.18233400000E+008,  0.20472832243E+007,  0.19000000000E+002,  0.00000000000E+000,  0.10000000000E+001
  0.18234900000E+008,  0.20475373328E+007,  0.19000000000E+002,  0.00000000000E+000,  0.10000000000E+001
  0.18236400000E+008,  0.20477910092E+007,  0.19000000000E+002,  0.00000000000E+000,  0.10000000000E+001
  0.18237900000E+008,  0.20480441266E+007,  0.19000000000E+002,  0.00000000000E+000,  0.10000000000E+001
  0.18239400000E+008,  0.20482965867E+007,  0.19000000000E+002,  0.00000000000E+000,  0.10000000000E+001
  0.18240900000E+008,  0.20485483123E+007,  0.19000000000E+002,  0.00000000000E+000,  0.10000000000E+001
  0.18242400000E+008,  0.20487992416E+007,  0.19000000000E+002,  0.00000000000E+000,  0.10000000000E+001
  0.18243900000E+008,  0.20490493258E+007,  0.19000000000E+002,  0.00000000000E+000,  0.10000000000E+001
  0.18245400000E+008,  0.20492985260E+007,  0.19000000000E+002,  0.00000000000E+000,  0.10000000000E+001
