"           TIME(S)","              PRES","              TEMP","             SAT_G","             SAT_L"
  0.17964400000E+008,  0.20975871994E+007,  0.19000000000E+002,  0.00000000000E+000,  0.10000000000E+001
  0.17971900000E+008,  0.20787784039E+007,  0.19000000000E+002,  0.00000000000E+000,  0.10000000000E+001
  0.17986900000E+008,  0.20502552081E+007,  0.19000000000E+002,  0.00000000000E+000,  0.10000000000E+001
  0.18001900000E+008,  0.20320472298E+007,  0.19000000000E+002,  0.00000000000E+000,  0.10000000000E+001
  0.18016900000E+008,  0.20206201888E+007,  0.19000000000E+002,  0.00000000000E+000,  0.10000000000E+001
  0.18031900000E+008,  0.20134677565E+007,  0.19000000000E+002,  0.00000000000E+000,  0.10000000000E+001
  0.18046900000E+008,  0.20089934701E+007,  0.19000000000E+002,  0.00000000000E+000,  0.10000000000E+001
  0.18061900000E+008,  0.20061957869E+007,  0.19000000000E+002,  0.00000000000E+000,  0.10000000000E+001
  0.18076900000E+008,  0.20044858211E+007,  0.19000000000E+002,  0.00000000000E+000,  0.10000000000E+001
  0.18091900000E+008,  0.20034441273E+007,  0.19000000000E+002,  0.00000000000E+000,  0.10000000000E+001
  0.18106900000E+008,  0.20027857392E+007,  0.19000000000E+002,  0.00000000000E+000,  0.10000000000E+001
  0.18121900000E+008,  0.20023706443E+007,  0.19000000000E+002,  0.00000000000E+000,  0.10000000000E+001
  0.18136900000E+008,  0.20021982942E+007,  0.19000000000E+002,  0.00000000000E+000,  0.10000000000E+001
  0.18151900000E+008,  0.20020734769E+007,  0.19000000000E+002,  0.00000000000E+000,  0.10000000000E+001
  0.18166900000E+008,  0.20019879479E+007,  0.19000000000E+002,  0.00000000000E+000,  0.10000000000E+001
  0.18181900000E+008,  0.20019298155E+007,  0.19000000000E+002,  0.00000000000E+000,  0.10000000000E+001
  0.18196900000E+008,  0.20018892433E+007,  0.19000000000E+002,  0.00000000000E+000,  0.10000000000E+001
  0.18211900000E+008,  0.20018582888E+007,  0.19000000000E+002,  0.00000000000E+000,  0.10000000000E+001
  0.18226900000E+008,  0.20018339312E+007,  0.19000000000E+002,  0.00000000000E+000,  0.10000000000E+001
  0.18241900000E+008,  0.20018178567E+007,  0.19000000000E+002,  0.00000000000E+000,  0.10000000000E+001
  0.18256900000E+008,  0.20018031485E+007,  0.19000000000E+002,  0.00000000000E+000,  0.10000000000E+001
  0.18271900000E+008,  0.20017897022E+007,  0.19000000000E+002,  0.00000000000E+000,  0.10000000000E+001
  0.18286900000E+008,  0.20017796710E+007,  0.19000000000E+002,  0.00000000000E+000,  0.10000000000E+001
  0.18301900000E+008,  0.20017726694E+007,  0.19000000000E+002,  0.00000000000E+000,  0.10000000000E+001
  0.18316900000E+008,  0.20017662113E+007,  0.19000000000E+002,  0.00000000000E+000,  0.10000000000E+001
  0.18331900000E+008,  0.20022045187E+007,  0.19000000000E+002,  0.00000000000E+000,  0.10000000000E+001
  0.18346900000E+008,  0.20025037009E+007,  0.19000000000E+002,  0.00000000000E+000,  0.10000000000E+001
  0.18361900000E+008,  0.20027110408E+007,  0.19000000000E+002,  0.00000000000E+000,  0.10000000000E+001
  0.18376900000E+008,  0.20028641639E+007,  0.19000000000E+002,  0.00000000000E+000,  0.10000000000E+001
  0.18391900000E+008,  0.20029909846E+007,  0.19000000000E+002,  0.00000000000E+000,  0.10000000000E+001
  0.18406900000E+008,  0.20031080508E+007,  0.19000000000E+002,  0.00000000000E+000,  0.10000000000E+001
  0.18421900000E+008,  0.20032048341E+007,  0.19000000000E+002,  0.00000000000E+000,  0.10000000000E+001
  0.18436900000E+008,  0.20032895020E+007,  0.19000000000E+002,  0.00000000000E+000,  0.10000000000E+001
  0.18451900000E+008,  0.20033800466E+007,  0.19000000000E+002,  0.00000000000E+000,  0.10000000000E+001
  0.18466900000E+008,  0.20034637280E+007,  0.19000000000E+002,  0.00000000000E+000,  0.10000000000E+001
  0.18481900000E+008,  0.20035404052E+007,  0.19000000000E+002,  0.00000000000E+000,  0.10000000000E+001
  0.18496900000E+008,  0.20036178909E+007,  0.19000000000E+002,  0.00000000000E+000,  0.10000000000E+001
  0.18511900000E+008,  0.20037041273E+007,  0.19000000000E+002,  0.00000000000E+000,  0.10000000000E+001
  0.18526900000E+008,  0.20037824511E+007,  0.19000000000E+002,  0.00000000000E+000,  0.10000000000E+001
  0.18541900000E+008,  0.20038562693E+007,  0.19000000000E+002,  0.00000000000E+000,  0.10000000000E+001
  0.18556900000E+008,  0.20039458567E+007,  0.19000000000E+002,  0.00000000000E+000,  0.10000000000E+001
  0.18571900000E+008,  0.20040330641E+007,  0.19000000000E+002,  0.00000000000E+000,  0.10000000000E+001
  0.18586900000E+008,  0.20041129167E+007,  0.19000000000E+002,  0.00000000000E+000,  0.10000000000E+001
  0.18601900000E+008,  0.20041910658E+007,  0.19000000000E+002,  0.00000000000E+000,  0.10000000000E+001
  0.18616900000E+008,  0.20042751643E+007,  0.19000000000E+002,  0.00000000000E+000,  0.10000000000E+001
  0.18631900000E+008,  0.20043531643E+007,  0.19000000000E+002,  0.00000000000E+000,  0.10000000000E+001
  0.18646900000E+008,  0.20044275222E+007,  0.19000000000E+002,  0.00000000000E+000,  0.10000000000E+001
  0.18661900000E+008,  0.20045271469E+007,  0.19000000000E+002,  0.00000000000E+000,  0.10000000000E+001
  0.18676900000E+008,  0.20046279581E+007,  0.19000000000E+002,  0.00000000000E+000,  0.10000000000E+001
  0.18691900000E+008,  0.20047174737E+007,  0.19000000000E+002,  0.00000000000E+000,  0.10000000000E+001
  0.18698900000E+008,  0.20047615773E+007,  0.19000000000E+002,  0.00000000000E+000,  0.10000000000E+001
  0.18713900000E+008,  0.20048530113E+007,  0.19000000000E+002,  0.00000000000E+000,  0.10000000000E+001
  0.18728900000E+008,  0.20049450873E+007,  0.19000000000E+002,  0.00000000000E+000,  0.10000000000E+001
  0.18743900000E+008,  0.20050342086E+007,  0.19000000000E+002,  0.00000000000E+000,  0.10000000000E+001
  0.18758900000E+008,  0.20051244415E+007,  0.19000000000E+002,  0.00000000000E+000,  0.10000000000E+001
  0.18773900000E+008,  0.20052308172E+007,  0.19000000000E+002,  0.00000000000E+000,  0.10000000000E+001
  0.18788900000E+008,  0.20053250191E+007,  0.19000000000E+002,  0.00000000000E+000,  0.10000000000E+001
  0.18803900000E+008,  0.20054118466E+007,  0.19000000000E+002,  0.00000000000E+000,  0.10000000000E+001
  0.18818900000E+008,  0.20055111140E+007,  0.19000000000E+002,  0.00000000000E+000,  0.10000000000E+001
  0.18833900000E+008,  0.20056148969E+007,  0.19000000000E+002,  0.00000000000E+000,  0.10000000000E+001
  0.18848900000E+008,  0.20057082033E+007,  0.19000000000E+002,  0.00000000000E+000,  0.10000000000E+001
  0.18863900000E+008,  0.20057960566E+007,  0.19000000000E+002,  0.00000000000E+000,  0.10000000000E+001
  0.18878900000E+008,  0.20059182590E+007,  0.19000000000E+002,  0.00000000000E+000,  0.10000000000E+001
  0.18893900000E+008,  0.20060239605E+007,  0.19000000000E+002,  0.00000000000E+000,  0.10000000000E+001
  0.18908900000E+008,  0.20061194684E+007,  0.19000000000E+002,  0.00000000000E+000,  0.10000000000E+001
  0.18923900000E+008,  0.20062294078E+007,  0.19000000000E+002,  0.00000000000E+000,  0.10000000000E+001
  0.18938900000E+008,  0.20063496973E+007,  0.19000000000E+002,  0.00000000000E+000,  0.10000000000E+001
  0.18953900000E+008,  0.20064552870E+007,  0.19000000000E+002,  0.00000000000E+000,  0.10000000000E+001
  0.18968900000E+008,  0.20065515365E+007,  0.19000000000E+002,  0.00000000000E+000,  0.10000000000E+001
  0.18983900000E+008,  0.20066928544E+007,  0.19000000000E+002,  0.00000000000E+000,  0.10000000000E+001
  0.18998900000E+008,  0.20068151599E+007,  0.19000000000E+002,  0.00000000000E+000,  0.10000000000E+001
  0.19013900000E+008,  0.20069232264E+007,  0.19000000000E+002,  0.00000000000E+000,  0.10000000000E+001
  0.19028900000E+008,  0.20070360549E+007,  0.19000000000E+002,  0.00000000000E+000,  0.10000000000E+001
  0.19043900000E+008,  0.20071566207E+007,  0.19000000000E+002,  0.00000000000E+000,  0.10000000000E+001
  0.19058900000E+008,  0.20072640839E+007,  0.19000000000E+002,  0.00000000000E+000,  0.10000000000E+001
  0.19073900000E+008,  0.20073629464E+007,  0.19000000000E+002,  0.00000000000E+000,  0.10000000000E+001
  0.19088900000E+008,  0.20075099845E+007,  0.19000000000E+002,  0.00000000000E+000,  0.10000000000E+001
  0.19103900000E+008,  0.20076417694E+007,  0.19000000000E+002,  0.00000000000E+000,  0.10000000000E+001
  0.19118900000E+008,  0.20077575123E+007,  0.19000000000E+002,  0.00000000000E+000,  0.10000000000E+001
  0.19133900000E+008,  0.20078794239E+007,  0.19000000000E+002,  0.00000000000E+000,  0.10000000000E+001
  0.19148900000E+008,  0.20080180764E+007,  0.19000000000E+002,  0.00000000000E+000,  0.10000000000E+001
  0.19163900000E+008,  0.20081392129E+007,  0.19000000000E+002,  0.00000000000E+000,  0.10000000000E+001
  0.19178900000E+008,  0.20082486146E+007,  0.19000000000E+002,  0.00000000000E+000,  0.10000000000E+001
  0.19193900000E+008,  0.20084059502E+007,  0.19000000000E+002,  0.00000000000E+000,  0.10000000000E+001
  0.19208900000E+008,  0.20085518066E+007,  0.19000000000E+002,  0.00000000000E+000,  0.10000000000E+001
  0.19223900000E+008,  0.20086786156E+007,  0.19000000000E+002,  0.00000000000E+000,  0.10000000000E+001
  0.19238900000E+008,  0.20088054033E+007,  0.19000000000E+002,  0.00000000000E+000,  0.10000000000E+001
  0.19253900000E+008,  0.20089486618E+007,  0.19000000000E+002,  0.00000000000E+000,  0.10000000000E+001
  0.19268900000E+008,  0.20090745712E+007,  0.19000000000E+002,  0.00000000000E+000,  0.10000000000E+001
  0.19283900000E+008,  0.20091885263E+007,  0.19000000000E+002,  0.00000000000E+000,  0.10000000000E+001
  0.19298900000E+008,  0.20093595774E+007,  0.19000000000E+002,  0.00000000000E+000,  0.10000000000E+001
  0.19313900000E+008,  0.20095246919E+007,  0.19000000000E+002,  0.00000000000E+000,  0.10000000000E+001
  0.19328900000E+008,  0.20096661923E+007,  0.19000000000E+002,  0.00000000000E+000,  0.10000000000E+001
  0.19343900000E+008,  0.20098103454E+007,  0.19000000000E+002,  0.00000000000E+000,  0.10000000000E+001
  0.19358900000E+008,  0.20099978060E+007,  0.19000000000E+002,  0.00000000000E+000,  0.10000000000E+001
  0.19373900000E+008,  0.20101562185E+007,  0.19000000000E+002,  0.00000000000E+000,  0.10000000000E+001
  0.19388900000E+008,  0.20102940233E+007,  0.19000000000E+002,  0.00000000000E+000,  0.10000000000E+001
  0.19403900000E+008,  0.20083315636E+007,  0.19000000000E+002,  0.00000000000E+000,  0.10000000000E+001
  0.19418900000E+008,  0.20061121544E+007,  0.19000000000E+002,  0.00000000000E+000,  0.10000000000E+001
  0.19433900000E+008,  0.20046095825E+007,  0.19000000000E+002,  0.00000000000E+000,  0.10000000000E+001
  0.19448900000E+008,  0.20035880897E+007,  0.19000000000E+002,  0.00000000000E+000,  0.10000000000E+001
  0.19463900000E+008,  0.20028244405E+007,  0.19000000000E+002,  0.00000000000E+000,  0.10000000000E+001
  0.19478900000E+008,  0.20023117565E+007,  0.19000000000E+002,  0.00000000000E+000,  0.10000000000E+001
  0.19493900000E+008,  0.20019688092E+007,  0.19000000000E+002,  0.00000000000E+000,  0.10000000000E+001
  0.19508900000E+008,  0.20017957552E+007,  0.19000000000E+002,  0.00000000000E+000,  0.10000000000E+001
  0.19523900000E+008,  0.20017121229E+007,  0.19000000000E+002,  0.00000000000E+000,  0.10000000000E+001
  0.19538900000E+008,  0.20016568935E+007,  0.19000000000E+002,  0.00000000000E+000,  0.10000000000E+001
  0.19553900000E+008,  0.20016100528E+007,  0.19000000000E+002,  0.00000000000E+000,  0.10000000000E+001
  0.19568900000E+008,  0.20015011329E+007,  0.19000000000E+002,  0.00000000000E+000,  0.10000000000E+001
  0.19583900000E+008,  0.20014264285E+007,  0.19000000000E+002,  0.00000000000E+000,  0.10000000000E+001
  0.19598900000E+008,  0.20013764792E+007,  0.19000000000E+002,  0.00000000000E+000,  0.10000000000E+001
  0.19613900000E+008,  0.20013557350E+007,  0.19000000000E+002,  0.00000000000E+000,  0.10000000000E+001
  0.19628900000E+008,  0.20013513252E+007,  0.19000000000E+002,  0.00000000000E+000,  0.10000000000E+001
  0.19643900000E+008,  0.20013485877E+007,  0.19000000000E+002,  0.00000000000E+000,  0.10000000000E+001
  0.19658900000E+008,  0.20013525721E+007,  0.19000000000E+002,  0.00000000000E+000,  0.10000000000E+001
  0.19673900000E+008,  0.20014587308E+007,  0.19000000000E+002,  0.00000000000E+000,  0.10000000000E+001
  0.19688900000E+008,  0.20015322553E+007,  0.19000000000E+002,  0.00000000000E+000,  0.10000000000E+001
  0.19703900000E+008,  0.20015814602E+007,  0.19000000000E+002,  0.00000000000E+000,  0.10000000000E+001
  0.19718900000E+008,  0.20015462288E+007,  0.19000000000E+002,  0.00000000000E+000,  0.10000000000E+001
  0.19733900000E+008,  0.20014580953E+007,  0.19000000000E+002,  0.00000000000E+000,  0.10000000000E+001
  0.19748900000E+008,  0.20013976424E+007,  0.19000000000E+002,  0.00000000000E+000,  0.10000000000E+001
  0.19763900000E+008,  0.20013572296E+007,  0.19000000000E+002,  0.00000000000E+000,  0.10000000000E+001
  0.19778900000E+008,  0.20013409909E+007,  0.19000000000E+002,  0.00000000000E+000,  0.10000000000E+001
  0.19793900000E+008,  0.20013305309E+007,  0.19000000000E+002,  0.00000000000E+000,  0.10000000000E+001
  0.19805800000E+008,  0.20013245706E+007,  0.19000000000E+002,  0.00000000000E+000,  0.10000000000E+001
  0.19820800000E+008,  0.20013168428E+007,  0.19000000000E+002,  0.00000000000E+000,  0.10000000000E+001
  0.19835800000E+008,  0.20013033693E+007,  0.19000000000E+002,  0.00000000000E+000,  0.10000000000E+001
  0.19850800000E+008,  0.20012941567E+007,  0.19000000000E+002,  0.00000000000E+000,  0.10000000000E+001
  0.19865800000E+008,  0.20012879954E+007,  0.19000000000E+002,  0.00000000000E+000,  0.10000000000E+001
  0.19880800000E+008,  0.20013547732E+007,  0.19000000000E+002,  0.00000000000E+000,  0.10000000000E+001
  0.19895800000E+008,  0.20014287473E+007,  0.19000000000E+002,  0.00000000000E+000,  0.10000000000E+001
  0.19910800000E+008,  0.20014789115E+007,  0.19000000000E+002,  0.00000000000E+000,  0.10000000000E+001
  0.19925800000E+008,  0.20015145328E+007,  0.19000000000E+002,  0.00000000000E+000,  0.10000000000E+001
  0.19940800000E+008,  0.20015473718E+007,  0.19000000000E+002,  0.00000000000E+000,  0.10000000000E+001
  0.19955800000E+008,  0.20015696084E+007,  0.19000000000E+002,  0.00000000000E+000,  0.10000000000E+001
  0.19970800000E+008,  0.20015845267E+007,  0.19000000000E+002,  0.00000000000E+000,  0.10000000000E+001
  0.19985800000E+008,  0.20015229293E+007,  0.19000000000E+002,  0.00000000000E+000,  0.10000000000E+001
  0.20000800000E+008,  0.20014419752E+007,  0.19000000000E+002,  0.00000000000E+000,  0.10000000000E+001
  0.20015800000E+008,  0.20013868969E+007,  0.19000000000E+002,  0.00000000000E+000,  0.10000000000E+001
  0.20030800000E+008,  0.20013500611E+007,  0.19000000000E+002,  0.00000000000E+000,  0.10000000000E+001
  0.20045800000E+008,  0.20013254176E+007,  0.19000000000E+002,  0.00000000000E+000,  0.10000000000E+001
  0.20060800000E+008,  0.20013089249E+007,  0.19000000000E+002,  0.00000000000E+000,  0.10000000000E+001
  0.20075800000E+008,  0.20012978856E+007,  0.19000000000E+002,  0.00000000000E+000,  0.10000000000E+001
  0.20090800000E+008,  0.20013425642E+007,  0.19000000000E+002,  0.00000000000E+000,  0.10000000000E+001
  0.20105800000E+008,  0.20014094293E+007,  0.19000000000E+002,  0.00000000000E+000,  0.10000000000E+001
  0.20120800000E+008,  0.20014550528E+007,  0.19000000000E+002,  0.00000000000E+000,  0.10000000000E+001
  0.20135800000E+008,  0.20014803219E+007,  0.19000000000E+002,  0.00000000000E+000,  0.10000000000E+001
  0.20150800000E+008,  0.20014145726E+007,  0.19000000000E+002,  0.00000000000E+000,  0.10000000000E+001
  0.20165800000E+008,  0.20013685551E+007,  0.19000000000E+002,  0.00000000000E+000,  0.10000000000E+001
  0.20180800000E+008,  0.20013377795E+007,  0.19000000000E+002,  0.00000000000E+000,  0.10000000000E+001
  0.20195800000E+008,  0.20013171980E+007,  0.19000000000E+002,  0.00000000000E+000,  0.10000000000E+001
  0.20210800000E+008,  0.20013034247E+007,  0.19000000000E+002,  0.00000000000E+000,  0.10000000000E+001
  0.20225800000E+008,  0.20012942054E+007,  0.19000000000E+002,  0.00000000000E+000,  0.10000000000E+001
  0.20240800000E+008,  0.20012880340E+007,  0.19000000000E+002,  0.00000000000E+000,  0.10000000000E+001
  0.20255800000E+008,  0.20012839028E+007,  0.19000000000E+002,  0.00000000000E+000,  0.10000000000E+001
  0.20270800000E+008,  0.20012811372E+007,  0.19000000000E+002,  0.00000000000E+000,  0.10000000000E+001
  0.20285800000E+008,  0.20012792860E+007,  0.19000000000E+002,  0.00000000000E+000,  0.10000000000E+001
  0.20300800000E+008,  0.20013139469E+007,  0.19000000000E+002,  0.00000000000E+000,  0.10000000000E+001
  0.20315800000E+008,  0.20013790596E+007,  0.19000000000E+002,  0.00000000000E+000,  0.10000000000E+001
  0.20330800000E+008,  0.20014236487E+007,  0.19000000000E+002,  0.00000000000E+000,  0.10000000000E+001
  0.20345800000E+008,  0.20014534934E+007,  0.19000000000E+002,  0.00000000000E+000,  0.10000000000E+001
  0.20360800000E+008,  0.20014016351E+007,  0.19000000000E+002,  0.00000000000E+000,  0.10000000000E+001
  0.20375800000E+008,  0.20013600324E+007,  0.19000000000E+002,  0.00000000000E+000,  0.10000000000E+001
  0.20390800000E+008,  0.20013320788E+007,  0.19000000000E+002,  0.00000000000E+000,  0.10000000000E+001
  0.20405800000E+008,  0.20013617897E+007,  0.19000000000E+002,  0.00000000000E+000,  0.10000000000E+001
  0.20420800000E+008,  0.20014554966E+007,  0.19000000000E+002,  0.00000000000E+000,  0.10000000000E+001
  0.20435800000E+008,  0.20015200292E+007,  0.19000000000E+002,  0.00000000000E+000,  0.10000000000E+001
  0.20450800000E+008,  0.20015632429E+007,  0.19000000000E+002,  0.00000000000E+000,  0.10000000000E+001
  0.20465800000E+008,  0.20015826816E+007,  0.19000000000E+002,  0.00000000000E+000,  0.10000000000E+001
  0.20480800000E+008,  0.20015940345E+007,  0.19000000000E+002,  0.00000000000E+000,  0.10000000000E+001
  0.20495800000E+008,  0.20016016416E+007,  0.19000000000E+002,  0.00000000000E+000,  0.10000000000E+001
  0.20510800000E+008,  0.20016968087E+007,  0.19000000000E+002,  0.00000000000E+000,  0.10000000000E+001
  0.20525800000E+008,  0.20019377491E+007,  0.19000000000E+002,  0.00000000000E+000,  0.10000000000E+001
  0.20540800000E+008,  0.20021037842E+007,  0.19000000000E+002,  0.00000000000E+000,  0.10000000000E+001
  0.20555800000E+008,  0.20022153377E+007,  0.19000000000E+002,  0.00000000000E+000,  0.10000000000E+001
  0.20570800000E+008,  0.20022819671E+007,  0.19000000000E+002,  0.00000000000E+000,  0.10000000000E+001
  0.20585800000E+008,  0.20023247716E+007,  0.19000000000E+002,  0.00000000000E+000,  0.10000000000E+001
  0.20600800000E+008,  0.20023538257E+007,  0.19000000000E+002,  0.00000000000E+000,  0.10000000000E+001
  0.20615800000E+008,  0.20023799626E+007,  0.19000000000E+002,  0.00000000000E+000,  0.10000000000E+001
  0.20630800000E+008,  0.20024146755E+007,  0.19000000000E+002,  0.00000000000E+000,  0.10000000000E+001
  0.20645800000E+008,  0.20024388494E+007,  0.19000000000E+002,  0.00000000000E+000,  0.10000000000E+001
  0.20660800000E+008,  0.20024555386E+007,  0.19000000000E+002,  0.00000000000E+000,  0.10000000000E+001
  0.20675800000E+008,  0.20024593797E+007,  0.19000000000E+002,  0.00000000000E+000,  0.10000000000E+001
  0.20690800000E+008,  0.20024594714E+007,  0.19000000000E+002,  0.00000000000E+000,  0.10000000000E+001
  0.20705800000E+008,  0.20024599312E+007,  0.19000000000E+002,  0.00000000000E+000,  0.10000000000E+001
  0.20720800000E+008,  0.20024632305E+007,  0.19000000000E+002,  0.00000000000E+000,  0.10000000000E+001
  0.20735800000E+008,  0.20024752824E+007,  0.19000000000E+002,  0.00000000000E+000,  0.10000000000E+001
  0.20750800000E+008,  0.20024841075E+007,  0.19000000000E+002,  0.00000000000E+000,  0.10000000000E+001
  0.20765800000E+008,  0.20024905221E+007,  0.19000000000E+002,  0.00000000000E+000,  0.10000000000E+001
