"           TIME(S)","              PRES","              TEMP","             SAT_G","             SAT_L"
  0.17592105000E+008,  0.21000000000E+007,  0.19000000000E+002,  0.00000000000E+000,  0.10000000000E+001
  0.17592130000E+008,  0.20999998234E+007,  0.19000000000E+002,  0.00000000000E+000,  0.10000000000E+001
  0.17592255000E+008,  0.20998617181E+007,  0.19000000000E+002,  0.00000000000E+000,  0.10000000000E+001
  0.17592405000E+008,  0.20994219137E+007,  0.19000000000E+002,  0.00000000000E+000,  0.10000000000E+001
  0.17592555000E+008,  0.20987739433E+007,  0.19000000000E+002,  0.00000000000E+000,  0.10000000000E+001
  0.17592705000E+008,  0.20980164622E+007,  0.19000000000E+002,  0.00000000000E+000,  0.10000000000E+001
  0.17592855000E+008,  0.20972248200E+007,  0.19000000000E+002,  0.00000000000E+000,  0.10000000000E+001
  0.17593005000E+008,  0.20964422713E+007,  0.19000000000E+002,  0.00000000000E+000,  0.10000000000E+001
  0.17593155000E+008,  0.20956883840E+007,  0.19000000000E+002,  0.00000000000E+000,  0.10000000000E+001
  0.17593305000E+008,  0.20949689611E+007,  0.19000000000E+002,  0.00000000000E+000,  0.10000000000E+001
  0.17593455000E+008,  0.20942830364E+007,  0.19000000000E+002,  0.00000000000E+000,  0.10000000000E+001
  0.17593605000E+008,  0.20936269239E+007,  0.19000000000E+002,  0.00000000000E+000,  0.10000000000E+001
  0.17593755000E+008,  0.20929962830E+007,  0.19000000000E+002,  0.00000000000E+000,  0.10000000000E+001
  0.17593905000E+008,  0.20923870449E+007,  0.19000000000E+002,  0.00000000000E+000,  0.10000000000E+001
  0.17594055000E+008,  0.20917957448E+007,  0.19000000000E+002,  0.00000000000E+000,  0.10000000000E+001
  0.17594205000E+008,  0.20912195734E+007,  0.19000000000E+002,  0.00000000000E+000,  0.10000000000E+001
  0.17594355000E+008,  0.20906563102E+007,  0.19000000000E+002,  0.00000000000E+000,  0.10000000000E+001
  0.17594505000E+008,  0.20901042208E+007,  0.19000000000E+002,  0.00000000000E+000,  0.10000000000E+001
  0.17594655000E+008,  0.20895619539E+007,  0.19000000000E+002,  0.00000000000E+000,  0.10000000000E+001
  0.17594805000E+008,  0.20890284520E+007,  0.19000000000E+002,  0.00000000000E+000,  0.10000000000E+001
  0.17594955000E+008,  0.20885028794E+007,  0.19000000000E+002,  0.00000000000E+000,  0.10000000000E+001
  0.17595105000E+008,  0.20879845668E+007,  0.19000000000E+002,  0.00000000000E+000,  0.10000000000E+001
  0.17595255000E+008,  0.20874729694E+007,  0.19000000000E+002,  0.00000000000E+000,  0.10000000000E+001
  0.17595405000E+008,  0.20869676359E+007,  0.19000000000E+002,  0.00000000000E+000,  0.10000000000E+001
  0.17595555000E+008,  0.20864681858E+007,  0.19000000000E+002,  0.00000000000E+000,  0.10000000000E+001
  0.17595705000E+008,  0.20859742926E+007,  0.19000000000E+002,  0.00000000000E+000,  0.10000000000E+001
  0.17595855000E+008,  0.20854856720E+007,  0.19000000000E+002,  0.00000000000E+000,  0.10000000000E+001
  0.17596005000E+008,  0.20850020727E+007,  0.19000000000E+002,  0.00000000000E+000,  0.10000000000E+001
  0.17596155000E+008,  0.20845232704E+007,  0.19000000000E+002,  0.00000000000E+000,  0.10000000000E+001
  0.17596305000E+008,  0.20840490624E+007,  0.19000000000E+002,  0.00000000000E+000,  0.10000000000E+001
  0.17596455000E+008,  0.20835792647E+007,  0.19000000000E+002,  0.00000000000E+000,  0.10000000000E+001
  0.17596605000E+008,  0.20831137089E+007,  0.19000000000E+002,  0.00000000000E+000,  0.10000000000E+001
  0.17596755000E+008,  0.20826524679E+007,  0.19000000000E+002,  0.00000000000E+000,  0.10000000000E+001
  0.17596830000E+008,  0.20824229965E+007,  0.19000000000E+002,  0.00000000000E+000,  0.10000000000E+001
  0.17596867501E+008,  0.20823085614E+007,  0.19000000000E+002,  0.00000000000E+000,  0.10000000000E+001
  0.17596886251E+008,  0.20822514209E+007,  0.19000000000E+002,  0.00000000000E+000,  0.10000000000E+001
  0.17596980003E+008,  0.20819679390E+007,  0.19000000000E+002,  0.00000000000E+000,  0.10000000000E+001
  0.17597026879E+008,  0.20818267851E+007,  0.19000000000E+002,  0.00000000000E+000,  0.10000000000E+001
  0.17597176879E+008,  0.20813814680E+007,  0.19000000000E+002,  0.00000000000E+000,  0.10000000000E+001
  0.17597326879E+008,  0.20809423752E+007,  0.19000000000E+002,  0.00000000000E+000,  0.10000000000E+001
  0.17597401880E+008,  0.20807243541E+007,  0.19000000000E+002,  0.00000000000E+000,  0.10000000000E+001
  0.17597439380E+008,  0.20806157207E+007,  0.19000000000E+002,  0.00000000000E+000,  0.10000000000E+001
  0.17597589380E+008,  0.20801871889E+007,  0.19000000000E+002,  0.00000000000E+000,  0.10000000000E+001
  0.17597664381E+008,  0.20799744258E+007,  0.19000000000E+002,  0.00000000000E+000,  0.10000000000E+001
  0.17597814381E+008,  0.20795547860E+007,  0.19000000000E+002,  0.00000000000E+000,  0.10000000000E+001
  0.17597964381E+008,  0.20791407037E+007,  0.19000000000E+002,  0.00000000000E+000,  0.10000000000E+001
  0.17598039381E+008,  0.20789350031E+007,  0.19000000000E+002,  0.00000000000E+000,  0.10000000000E+001
  0.17598076882E+008,  0.20788324825E+007,  0.19000000000E+002,  0.00000000000E+000,  0.10000000000E+001
  0.17598095632E+008,  0.20787813039E+007,  0.19000000000E+002,  0.00000000000E+000,  0.10000000000E+001
  0.17598189384E+008,  0.20785274609E+007,  0.19000000000E+002,  0.00000000000E+000,  0.10000000000E+001
  0.17598339384E+008,  0.20781267310E+007,  0.19000000000E+002,  0.00000000000E+000,  0.10000000000E+001
  0.17598414384E+008,  0.20779277334E+007,  0.19000000000E+002,  0.00000000000E+000,  0.10000000000E+001
  0.17598564384E+008,  0.20775351770E+007,  0.19000000000E+002,  0.00000000000E+000,  0.10000000000E+001
  0.17598639385E+008,  0.20773402506E+007,  0.19000000000E+002,  0.00000000000E+000,  0.10000000000E+001
  0.17598676885E+008,  0.20772431248E+007,  0.19000000000E+002,  0.00000000000E+000,  0.10000000000E+001
  0.17598695636E+008,  0.20771946461E+007,  0.19000000000E+002,  0.00000000000E+000,  0.10000000000E+001
  0.17598789387E+008,  0.20769543982E+007,  0.19000000000E+002,  0.00000000000E+000,  0.10000000000E+001
  0.17598836264E+008,  0.20768348171E+007,  0.19000000000E+002,  0.00000000000E+000,  0.10000000000E+001
  0.17598859702E+008,  0.20767751631E+007,  0.19000000000E+002,  0.00000000000E+000,  0.10000000000E+001
  0.17598871421E+008,  0.20767453703E+007,  0.19000000000E+002,  0.00000000000E+000,  0.10000000000E+001
  0.17598930017E+008,  0.20765972880E+007,  0.19000000000E+002,  0.00000000000E+000,  0.10000000000E+001
  0.17599080017E+008,  0.20762240926E+007,  0.19000000000E+002,  0.00000000000E+000,  0.10000000000E+001
  0.17599230017E+008,  0.20758565810E+007,  0.19000000000E+002,  0.00000000000E+000,  0.10000000000E+001
  0.17599380017E+008,  0.20754944058E+007,  0.19000000000E+002,  0.00000000000E+000,  0.10000000000E+001
  0.17599530017E+008,  0.20751372182E+007,  0.19000000000E+002,  0.00000000000E+000,  0.10000000000E+001
  0.17599680017E+008,  0.20747847454E+007,  0.19000000000E+002,  0.00000000000E+000,  0.10000000000E+001
  0.17599830017E+008,  0.20744368109E+007,  0.19000000000E+002,  0.00000000000E+000,  0.10000000000E+001
  0.17599980017E+008,  0.20740933233E+007,  0.19000000000E+002,  0.00000000000E+000,  0.10000000000E+001
  0.17600130017E+008,  0.20737542544E+007,  0.19000000000E+002,  0.00000000000E+000,  0.10000000000E+001
  0.17600280017E+008,  0.20734196177E+007,  0.19000000000E+002,  0.00000000000E+000,  0.10000000000E+001
  0.17600430017E+008,  0.20730894501E+007,  0.19000000000E+002,  0.00000000000E+000,  0.10000000000E+001
  0.17600580017E+008,  0.20727637984E+007,  0.19000000000E+002,  0.00000000000E+000,  0.10000000000E+001
  0.17600730017E+008,  0.20724427102E+007,  0.19000000000E+002,  0.00000000000E+000,  0.10000000000E+001
  0.17600880017E+008,  0.20721262280E+007,  0.19000000000E+002,  0.00000000000E+000,  0.10000000000E+001
  0.17601030017E+008,  0.20718143853E+007,  0.19000000000E+002,  0.00000000000E+000,  0.10000000000E+001
  0.17601180017E+008,  0.20715072052E+007,  0.19000000000E+002,  0.00000000000E+000,  0.10000000000E+001
  0.17601330017E+008,  0.20712046993E+007,  0.19000000000E+002,  0.00000000000E+000,  0.10000000000E+001
  0.17601480017E+008,  0.20709068679E+007,  0.19000000000E+002,  0.00000000000E+000,  0.10000000000E+001
  0.17601630017E+008,  0.20706137011E+007,  0.19000000000E+002,  0.00000000000E+000,  0.10000000000E+001
  0.17601780017E+008,  0.20703251791E+007,  0.19000000000E+002,  0.00000000000E+000,  0.10000000000E+001
  0.17601930017E+008,  0.20700412737E+007,  0.19000000000E+002,  0.00000000000E+000,  0.10000000000E+001
  0.17602080017E+008,  0.20697619492E+007,  0.19000000000E+002,  0.00000000000E+000,  0.10000000000E+001
  0.17602230017E+008,  0.20694871635E+007,  0.19000000000E+002,  0.00000000000E+000,  0.10000000000E+001
  0.17602380017E+008,  0.20692168693E+007,  0.19000000000E+002,  0.00000000000E+000,  0.10000000000E+001
  0.17602530017E+008,  0.20689510150E+007,  0.19000000000E+002,  0.00000000000E+000,  0.10000000000E+001
  0.17602680017E+008,  0.20686895453E+007,  0.19000000000E+002,  0.00000000000E+000,  0.10000000000E+001
  0.17602830017E+008,  0.20684324021E+007,  0.19000000000E+002,  0.00000000000E+000,  0.10000000000E+001
  0.17602980017E+008,  0.20681795255E+007,  0.19000000000E+002,  0.00000000000E+000,  0.10000000000E+001
  0.17603130017E+008,  0.20679308536E+007,  0.19000000000E+002,  0.00000000000E+000,  0.10000000000E+001
  0.17603280017E+008,  0.20676863238E+007,  0.19000000000E+002,  0.00000000000E+000,  0.10000000000E+001
  0.17603430017E+008,  0.20674458725E+007,  0.19000000000E+002,  0.00000000000E+000,  0.10000000000E+001
  0.17603580017E+008,  0.20672094360E+007,  0.19000000000E+002,  0.00000000000E+000,  0.10000000000E+001
  0.17603730017E+008,  0.20669769503E+007,  0.19000000000E+002,  0.00000000000E+000,  0.10000000000E+001
  0.17603880017E+008,  0.20667483516E+007,  0.19000000000E+002,  0.00000000000E+000,  0.10000000000E+001
  0.17604030017E+008,  0.20665235764E+007,  0.19000000000E+002,  0.00000000000E+000,  0.10000000000E+001
  0.17604180017E+008,  0.20663025618E+007,  0.19000000000E+002,  0.00000000000E+000,  0.10000000000E+001
  0.17604330017E+008,  0.20660852453E+007,  0.19000000000E+002,  0.00000000000E+000,  0.10000000000E+001
  0.17604480017E+008,  0.20658715651E+007,  0.19000000000E+002,  0.00000000000E+000,  0.10000000000E+001
  0.17604630017E+008,  0.20656614602E+007,  0.19000000000E+002,  0.00000000000E+000,  0.10000000000E+001
  0.17604780017E+008,  0.20654548703E+007,  0.19000000000E+002,  0.00000000000E+000,  0.10000000000E+001
  0.17604930017E+008,  0.20652517360E+007,  0.19000000000E+002,  0.00000000000E+000,  0.10000000000E+001
  0.17605080017E+008,  0.20650519989E+007,  0.19000000000E+002,  0.00000000000E+000,  0.10000000000E+001
  0.17605230017E+008,  0.20648556011E+007,  0.19000000000E+002,  0.00000000000E+000,  0.10000000000E+001
  0.17605380017E+008,  0.20646624859E+007,  0.19000000000E+002,  0.00000000000E+000,  0.10000000000E+001
  0.17605530017E+008,  0.20644725974E+007,  0.19000000000E+002,  0.00000000000E+000,  0.10000000000E+001
  0.17605680017E+008,  0.20642858807E+007,  0.19000000000E+002,  0.00000000000E+000,  0.10000000000E+001
  0.17605830017E+008,  0.20641022816E+007,  0.19000000000E+002,  0.00000000000E+000,  0.10000000000E+001
  0.17605980017E+008,  0.20639217468E+007,  0.19000000000E+002,  0.00000000000E+000,  0.10000000000E+001
  0.17606130017E+008,  0.20637442241E+007,  0.19000000000E+002,  0.00000000000E+000,  0.10000000000E+001
  0.17606280017E+008,  0.20635696621E+007,  0.19000000000E+002,  0.00000000000E+000,  0.10000000000E+001
  0.17606430017E+008,  0.20633980100E+007,  0.19000000000E+002,  0.00000000000E+000,  0.10000000000E+001
  0.17606580017E+008,  0.20632292182E+007,  0.19000000000E+002,  0.00000000000E+000,  0.10000000000E+001
  0.17606730017E+008,  0.20630632378E+007,  0.19000000000E+002,  0.00000000000E+000,  0.10000000000E+001
  0.17606880017E+008,  0.20629000206E+007,  0.19000000000E+002,  0.00000000000E+000,  0.10000000000E+001
  0.17607030017E+008,  0.20627395195E+007,  0.19000000000E+002,  0.00000000000E+000,  0.10000000000E+001
  0.17607180017E+008,  0.20625816878E+007,  0.19000000000E+002,  0.00000000000E+000,  0.10000000000E+001
  0.17607330017E+008,  0.20624264801E+007,  0.19000000000E+002,  0.00000000000E+000,  0.10000000000E+001
  0.17607480017E+008,  0.20622738512E+007,  0.19000000000E+002,  0.00000000000E+000,  0.10000000000E+001
  0.17607630017E+008,  0.20621237572E+007,  0.19000000000E+002,  0.00000000000E+000,  0.10000000000E+001
  0.17607780017E+008,  0.20619761545E+007,  0.19000000000E+002,  0.00000000000E+000,  0.10000000000E+001
  0.17607930017E+008,  0.20618310006E+007,  0.19000000000E+002,  0.00000000000E+000,  0.10000000000E+001
  0.17608080017E+008,  0.20616882534E+007,  0.19000000000E+002,  0.00000000000E+000,  0.10000000000E+001
  0.17608230017E+008,  0.20615478719E+007,  0.19000000000E+002,  0.00000000000E+000,  0.10000000000E+001
  0.17608380017E+008,  0.20614098154E+007,  0.19000000000E+002,  0.00000000000E+000,  0.10000000000E+001
  0.17608530017E+008,  0.20612740440E+007,  0.19000000000E+002,  0.00000000000E+000,  0.10000000000E+001
  0.17608680017E+008,  0.20611405187E+007,  0.19000000000E+002,  0.00000000000E+000,  0.10000000000E+001
  0.17608830017E+008,  0.20610092010E+007,  0.19000000000E+002,  0.00000000000E+000,  0.10000000000E+001
  0.17608980017E+008,  0.20608800529E+007,  0.19000000000E+002,  0.00000000000E+000,  0.10000000000E+001
  0.17609130017E+008,  0.20607530373E+007,  0.19000000000E+002,  0.00000000000E+000,  0.10000000000E+001
  0.17609280017E+008,  0.20606281176E+007,  0.19000000000E+002,  0.00000000000E+000,  0.10000000000E+001
  0.17609430017E+008,  0.20605052579E+007,  0.19000000000E+002,  0.00000000000E+000,  0.10000000000E+001
  0.17609580017E+008,  0.20603844227E+007,  0.19000000000E+002,  0.00000000000E+000,  0.10000000000E+001
  0.17609730017E+008,  0.20602655775E+007,  0.19000000000E+002,  0.00000000000E+000,  0.10000000000E+001
  0.17609880017E+008,  0.20601486879E+007,  0.19000000000E+002,  0.00000000000E+000,  0.10000000000E+001
  0.17610030017E+008,  0.20600337205E+007,  0.19000000000E+002,  0.00000000000E+000,  0.10000000000E+001
  0.17610180017E+008,  0.20599206422E+007,  0.19000000000E+002,  0.00000000000E+000,  0.10000000000E+001
  0.17610330017E+008,  0.20598094206E+007,  0.19000000000E+002,  0.00000000000E+000,  0.10000000000E+001
  0.17610480017E+008,  0.20597000238E+007,  0.19000000000E+002,  0.00000000000E+000,  0.10000000000E+001
  0.17610630017E+008,  0.20595924205E+007,  0.19000000000E+002,  0.00000000000E+000,  0.10000000000E+001
  0.17610780017E+008,  0.20594865798E+007,  0.19000000000E+002,  0.00000000000E+000,  0.10000000000E+001
  0.17610930017E+008,  0.20593824714E+007,  0.19000000000E+002,  0.00000000000E+000,  0.10000000000E+001
  0.17611080017E+008,  0.20592800657E+007,  0.19000000000E+002,  0.00000000000E+000,  0.10000000000E+001
  0.17611230017E+008,  0.20591793332E+007,  0.19000000000E+002,  0.00000000000E+000,  0.10000000000E+001
  0.17611380017E+008,  0.20590802453E+007,  0.19000000000E+002,  0.00000000000E+000,  0.10000000000E+001
  0.17611530017E+008,  0.20589827736E+007,  0.19000000000E+002,  0.00000000000E+000,  0.10000000000E+001
  0.17611680017E+008,  0.20588868904E+007,  0.19000000000E+002,  0.00000000000E+000,  0.10000000000E+001
  0.17611830017E+008,  0.20587925683E+007,  0.19000000000E+002,  0.00000000000E+000,  0.10000000000E+001
  0.17611980017E+008,  0.20586997804E+007,  0.19000000000E+002,  0.00000000000E+000,  0.10000000000E+001
  0.17612130017E+008,  0.20586085005E+007,  0.19000000000E+002,  0.00000000000E+000,  0.10000000000E+001
  0.17612280017E+008,  0.20585187024E+007,  0.19000000000E+002,  0.00000000000E+000,  0.10000000000E+001
  0.17612430017E+008,  0.20584303608E+007,  0.19000000000E+002,  0.00000000000E+000,  0.10000000000E+001
  0.17612580017E+008,  0.20583434506E+007,  0.19000000000E+002,  0.00000000000E+000,  0.10000000000E+001
  0.17612730017E+008,  0.20582579470E+007,  0.19000000000E+002,  0.00000000000E+000,  0.10000000000E+001
  0.17612880017E+008,  0.20581738259E+007,  0.19000000000E+002,  0.00000000000E+000,  0.10000000000E+001
  0.17613030017E+008,  0.20580910635E+007,  0.19000000000E+002,  0.00000000000E+000,  0.10000000000E+001
  0.17613180017E+008,  0.20580096363E+007,  0.19000000000E+002,  0.00000000000E+000,  0.10000000000E+001
  0.17613330017E+008,  0.20579295215E+007,  0.19000000000E+002,  0.00000000000E+000,  0.10000000000E+001
  0.17613480017E+008,  0.20578506963E+007,  0.19000000000E+002,  0.00000000000E+000,  0.10000000000E+001
  0.17613630017E+008,  0.20577731385E+007,  0.19000000000E+002,  0.00000000000E+000,  0.10000000000E+001
  0.17613780017E+008,  0.20576968263E+007,  0.19000000000E+002,  0.00000000000E+000,  0.10000000000E+001
  0.17613930017E+008,  0.20576217383E+007,  0.19000000000E+002,  0.00000000000E+000,  0.10000000000E+001
  0.17614080017E+008,  0.20575478533E+007,  0.19000000000E+002,  0.00000000000E+000,  0.10000000000E+001
  0.17614230017E+008,  0.20574751506E+007,  0.19000000000E+002,  0.00000000000E+000,  0.10000000000E+001
  0.17614380017E+008,  0.20574036099E+007,  0.19000000000E+002,  0.00000000000E+000,  0.10000000000E+001
  0.17614530017E+008,  0.20573332108E+007,  0.19000000000E+002,  0.00000000000E+000,  0.10000000000E+001
  0.17614680017E+008,  0.20572639341E+007,  0.19000000000E+002,  0.00000000000E+000,  0.10000000000E+001
  0.17614830017E+008,  0.20571957600E+007,  0.19000000000E+002,  0.00000000000E+000,  0.10000000000E+001
  0.17614980017E+008,  0.20571286701E+007,  0.19000000000E+002,  0.00000000000E+000,  0.10000000000E+001
  0.17615130017E+008,  0.20570626450E+007,  0.19000000000E+002,  0.00000000000E+000,  0.10000000000E+001
  0.17615280017E+008,  0.20569976668E+007,  0.19000000000E+002,  0.00000000000E+000,  0.10000000000E+001
  0.17615430017E+008,  0.20569337172E+007,  0.19000000000E+002,  0.00000000000E+000,  0.10000000000E+001
  0.17615580017E+008,  0.20568707787E+007,  0.19000000000E+002,  0.00000000000E+000,  0.10000000000E+001
  0.17615730017E+008,  0.20568088336E+007,  0.19000000000E+002,  0.00000000000E+000,  0.10000000000E+001
  0.17615880017E+008,  0.20567478649E+007,  0.19000000000E+002,  0.00000000000E+000,  0.10000000000E+001
  0.17616030017E+008,  0.20566878555E+007,  0.19000000000E+002,  0.00000000000E+000,  0.10000000000E+001
  0.17616180017E+008,  0.20566287893E+007,  0.19000000000E+002,  0.00000000000E+000,  0.10000000000E+001
  0.17616330017E+008,  0.20565706495E+007,  0.19000000000E+002,  0.00000000000E+000,  0.10000000000E+001
  0.17616480017E+008,  0.20565134208E+007,  0.19000000000E+002,  0.00000000000E+000,  0.10000000000E+001
  0.17616630017E+008,  0.20564570868E+007,  0.19000000000E+002,  0.00000000000E+000,  0.10000000000E+001
  0.17616780017E+008,  0.20564016325E+007,  0.19000000000E+002,  0.00000000000E+000,  0.10000000000E+001
  0.17616930017E+008,  0.20563470424E+007,  0.19000000000E+002,  0.00000000000E+000,  0.10000000000E+001
  0.17617080017E+008,  0.20562933018E+007,  0.19000000000E+002,  0.00000000000E+000,  0.10000000000E+001
  0.17617230017E+008,  0.20562403958E+007,  0.19000000000E+002,  0.00000000000E+000,  0.10000000000E+001
  0.17617380017E+008,  0.20561883104E+007,  0.19000000000E+002,  0.00000000000E+000,  0.10000000000E+001
  0.17617530017E+008,  0.20561370309E+007,  0.19000000000E+002,  0.00000000000E+000,  0.10000000000E+001
  0.17617680017E+008,  0.20560865439E+007,  0.19000000000E+002,  0.00000000000E+000,  0.10000000000E+001
  0.17617830017E+008,  0.20560368353E+007,  0.19000000000E+002,  0.00000000000E+000,  0.10000000000E+001
  0.17617980017E+008,  0.20559878920E+007,  0.19000000000E+002,  0.00000000000E+000,  0.10000000000E+001
  0.17618130017E+008,  0.20559397005E+007,  0.19000000000E+002,  0.00000000000E+000,  0.10000000000E+001
