"           TIME(S)","              PRES","              TEMP","             SAT_G","             SAT_L"
  0.17963400000E+008,  0.20800703793E+007,  0.19000000000E+002,  0.00000000000E+000,  0.10000000000E+001
  0.17964900000E+008,  0.20652329891E+007,  0.19000000000E+002,  0.00000000000E+000,  0.10000000000E+001
  0.17966400000E+008,  0.20593864901E+007,  0.19000000000E+002,  0.00000000000E+000,  0.10000000000E+001
  0.17967900000E+008,  0.20556207854E+007,  0.19000000000E+002,  0.00000000000E+000,  0.10000000000E+001
  0.17969400000E+008,  0.20526646096E+007,  0.19000000000E+002,  0.00000000000E+000,  0.10000000000E+001
  0.17970900000E+008,  0.20501479773E+007,  0.19000000000E+002,  0.00000000000E+000,  0.10000000000E+001
  0.17972400000E+008,  0.20479037175E+007,  0.19000000000E+002,  0.00000000000E+000,  0.10000000000E+001
  0.17973900000E+008,  0.20458384852E+007,  0.19000000000E+002,  0.00000000000E+000,  0.10000000000E+001
  0.17975400000E+008,  0.20438969697E+007,  0.19000000000E+002,  0.00000000000E+000,  0.10000000000E+001
  0.17976900000E+008,  0.20420466182E+007,  0.19000000000E+002,  0.00000000000E+000,  0.10000000000E+001
  0.17978400000E+008,  0.20402690188E+007,  0.19000000000E+002,  0.00000000000E+000,  0.10000000000E+001
  0.17979900000E+008,  0.20385544338E+007,  0.19000000000E+002,  0.00000000000E+000,  0.10000000000E+001
  0.17981400000E+008,  0.20369017406E+007,  0.19000000000E+002,  0.00000000000E+000,  0.10000000000E+001
  0.17982900000E+008,  0.20353538196E+007,  0.19000000000E+002,  0.00000000000E+000,  0.10000000000E+001
  0.17984400000E+008,  0.20339336795E+007,  0.19000000000E+002,  0.00000000000E+000,  0.10000000000E+001
  0.17985900000E+008,  0.20326393463E+007,  0.19000000000E+002,  0.00000000000E+000,  0.10000000000E+001
  0.17987400000E+008,  0.20314591455E+007,  0.19000000000E+002,  0.00000000000E+000,  0.10000000000E+001
  0.17988900000E+008,  0.20303794486E+007,  0.19000000000E+002,  0.00000000000E+000,  0.10000000000E+001
  0.17990400000E+008,  0.20293874479E+007,  0.19000000000E+002,  0.00000000000E+000,  0.10000000000E+001
  0.17991900000E+008,  0.20284719720E+007,  0.19000000000E+002,  0.00000000000E+000,  0.10000000000E+001
  0.17993400000E+008,  0.20276235622E+007,  0.19000000000E+002,  0.00000000000E+000,  0.10000000000E+001
  0.17994900000E+008,  0.20268342901E+007,  0.19000000000E+002,  0.00000000000E+000,  0.10000000000E+001
  0.17996400000E+008,  0.20260975126E+007,  0.19000000000E+002,  0.00000000000E+000,  0.10000000000E+001
  0.17997900000E+008,  0.20254076388E+007,  0.19000000000E+002,  0.00000000000E+000,  0.10000000000E+001
  0.17999400000E+008,  0.20247599319E+007,  0.19000000000E+002,  0.00000000000E+000,  0.10000000000E+001
  0.18000900000E+008,  0.20241503485E+007,  0.19000000000E+002,  0.00000000000E+000,  0.10000000000E+001
  0.18002400000E+008,  0.20235754110E+007,  0.19000000000E+002,  0.00000000000E+000,  0.10000000000E+001
  0.18003900000E+008,  0.20230321058E+007,  0.19000000000E+002,  0.00000000000E+000,  0.10000000000E+001
  0.18005400000E+008,  0.20225178034E+007,  0.19000000000E+002,  0.00000000000E+000,  0.10000000000E+001
  0.18006900000E+008,  0.20220301948E+007,  0.19000000000E+002,  0.00000000000E+000,  0.10000000000E+001
  0.18008400000E+008,  0.20215672394E+007,  0.19000000000E+002,  0.00000000000E+000,  0.10000000000E+001
  0.18009900000E+008,  0.20211271247E+007,  0.19000000000E+002,  0.00000000000E+000,  0.10000000000E+001
  0.18011400000E+008,  0.20207082318E+007,  0.19000000000E+002,  0.00000000000E+000,  0.10000000000E+001
  0.18012900000E+008,  0.20203091085E+007,  0.19000000000E+002,  0.00000000000E+000,  0.10000000000E+001
  0.18014400000E+008,  0.20199284459E+007,  0.19000000000E+002,  0.00000000000E+000,  0.10000000000E+001
  0.18015900000E+008,  0.20195650601E+007,  0.19000000000E+002,  0.00000000000E+000,  0.10000000000E+001
  0.18017400000E+008,  0.20192180666E+007,  0.19000000000E+002,  0.00000000000E+000,  0.10000000000E+001
  0.18018900000E+008,  0.20188865696E+007,  0.19000000000E+002,  0.00000000000E+000,  0.10000000000E+001
  0.18020400000E+008,  0.20185696755E+007,  0.19000000000E+002,  0.00000000000E+000,  0.10000000000E+001
  0.18021900000E+008,  0.20182665301E+007,  0.19000000000E+002,  0.00000000000E+000,  0.10000000000E+001
  0.18023400000E+008,  0.20179763359E+007,  0.19000000000E+002,  0.00000000000E+000,  0.10000000000E+001
  0.18024900000E+008,  0.20176983557E+007,  0.19000000000E+002,  0.00000000000E+000,  0.10000000000E+001
  0.18026400000E+008,  0.20174319109E+007,  0.19000000000E+002,  0.00000000000E+000,  0.10000000000E+001
  0.18027900000E+008,  0.20171763768E+007,  0.19000000000E+002,  0.00000000000E+000,  0.10000000000E+001
  0.18029400000E+008,  0.20169311773E+007,  0.19000000000E+002,  0.00000000000E+000,  0.10000000000E+001
  0.18030900000E+008,  0.20166957800E+007,  0.19000000000E+002,  0.00000000000E+000,  0.10000000000E+001
  0.18032400000E+008,  0.20164696918E+007,  0.19000000000E+002,  0.00000000000E+000,  0.10000000000E+001
  0.18033900000E+008,  0.20162524547E+007,  0.19000000000E+002,  0.00000000000E+000,  0.10000000000E+001
  0.18035400000E+008,  0.20160436425E+007,  0.19000000000E+002,  0.00000000000E+000,  0.10000000000E+001
  0.18036900000E+008,  0.20158428577E+007,  0.19000000000E+002,  0.00000000000E+000,  0.10000000000E+001
  0.18038400000E+008,  0.20156497288E+007,  0.19000000000E+002,  0.00000000000E+000,  0.10000000000E+001
  0.18039900000E+008,  0.20154639080E+007,  0.19000000000E+002,  0.00000000000E+000,  0.10000000000E+001
  0.18041400000E+008,  0.20152850689E+007,  0.19000000000E+002,  0.00000000000E+000,  0.10000000000E+001
  0.18042900000E+008,  0.20151129053E+007,  0.19000000000E+002,  0.00000000000E+000,  0.10000000000E+001
  0.18044400000E+008,  0.20149471290E+007,  0.19000000000E+002,  0.00000000000E+000,  0.10000000000E+001
  0.18045900000E+008,  0.20147874682E+007,  0.19000000000E+002,  0.00000000000E+000,  0.10000000000E+001
  0.18047400000E+008,  0.20146336671E+007,  0.19000000000E+002,  0.00000000000E+000,  0.10000000000E+001
  0.18048900000E+008,  0.20144854837E+007,  0.19000000000E+002,  0.00000000000E+000,  0.10000000000E+001
  0.18050400000E+008,  0.20143426895E+007,  0.19000000000E+002,  0.00000000000E+000,  0.10000000000E+001
  0.18051900000E+008,  0.20142050680E+007,  0.19000000000E+002,  0.00000000000E+000,  0.10000000000E+001
  0.18053400000E+008,  0.20140724143E+007,  0.19000000000E+002,  0.00000000000E+000,  0.10000000000E+001
  0.18054900000E+008,  0.20139445340E+007,  0.19000000000E+002,  0.00000000000E+000,  0.10000000000E+001
  0.18056400000E+008,  0.20138212426E+007,  0.19000000000E+002,  0.00000000000E+000,  0.10000000000E+001
  0.18057900000E+008,  0.20137023649E+007,  0.19000000000E+002,  0.00000000000E+000,  0.10000000000E+001
  0.18059400000E+008,  0.20135877342E+007,  0.19000000000E+002,  0.00000000000E+000,  0.10000000000E+001
  0.18060900000E+008,  0.20134771920E+007,  0.19000000000E+002,  0.00000000000E+000,  0.10000000000E+001
  0.18062400000E+008,  0.20133705874E+007,  0.19000000000E+002,  0.00000000000E+000,  0.10000000000E+001
  0.18063900000E+008,  0.20132677766E+007,  0.19000000000E+002,  0.00000000000E+000,  0.10000000000E+001
  0.18065400000E+008,  0.20131686223E+007,  0.19000000000E+002,  0.00000000000E+000,  0.10000000000E+001
  0.18066900000E+008,  0.20130729936E+007,  0.19000000000E+002,  0.00000000000E+000,  0.10000000000E+001
  0.18068400000E+008,  0.20129807658E+007,  0.19000000000E+002,  0.00000000000E+000,  0.10000000000E+001
  0.18069900000E+008,  0.20128973065E+007,  0.19000000000E+002,  0.00000000000E+000,  0.10000000000E+001
  0.18071400000E+008,  0.20128277777E+007,  0.19000000000E+002,  0.00000000000E+000,  0.10000000000E+001
  0.18072900000E+008,  0.20127735331E+007,  0.19000000000E+002,  0.00000000000E+000,  0.10000000000E+001
  0.18074400000E+008,  0.20127337193E+007,  0.19000000000E+002,  0.00000000000E+000,  0.10000000000E+001
  0.18075900000E+008,  0.20127066356E+007,  0.19000000000E+002,  0.00000000000E+000,  0.10000000000E+001
  0.18077400000E+008,  0.20126904190E+007,  0.19000000000E+002,  0.00000000000E+000,  0.10000000000E+001
  0.18078900000E+008,  0.20126833367E+007,  0.19000000000E+002,  0.00000000000E+000,  0.10000000000E+001
  0.18080400000E+008,  0.20126838851E+007,  0.19000000000E+002,  0.00000000000E+000,  0.10000000000E+001
  0.18081900000E+008,  0.20126908012E+007,  0.19000000000E+002,  0.00000000000E+000,  0.10000000000E+001
  0.18083400000E+008,  0.20127030405E+007,  0.19000000000E+002,  0.00000000000E+000,  0.10000000000E+001
  0.18084900000E+008,  0.20127197447E+007,  0.19000000000E+002,  0.00000000000E+000,  0.10000000000E+001
  0.18086400000E+008,  0.20127402106E+007,  0.19000000000E+002,  0.00000000000E+000,  0.10000000000E+001
  0.18087900000E+008,  0.20127638619E+007,  0.19000000000E+002,  0.00000000000E+000,  0.10000000000E+001
  0.18089400000E+008,  0.20127902257E+007,  0.19000000000E+002,  0.00000000000E+000,  0.10000000000E+001
  0.18090900000E+008,  0.20128189130E+007,  0.19000000000E+002,  0.00000000000E+000,  0.10000000000E+001
  0.18092400000E+008,  0.20128496029E+007,  0.19000000000E+002,  0.00000000000E+000,  0.10000000000E+001
  0.18093900000E+008,  0.20128820303E+007,  0.19000000000E+002,  0.00000000000E+000,  0.10000000000E+001
  0.18095400000E+008,  0.20129159747E+007,  0.19000000000E+002,  0.00000000000E+000,  0.10000000000E+001
  0.18096900000E+008,  0.20129512528E+007,  0.19000000000E+002,  0.00000000000E+000,  0.10000000000E+001
  0.18098400000E+008,  0.20129877111E+007,  0.19000000000E+002,  0.00000000000E+000,  0.10000000000E+001
  0.18099900000E+008,  0.20130252206E+007,  0.19000000000E+002,  0.00000000000E+000,  0.10000000000E+001
  0.18101400000E+008,  0.20130636727E+007,  0.19000000000E+002,  0.00000000000E+000,  0.10000000000E+001
  0.18102900000E+008,  0.20131029750E+007,  0.19000000000E+002,  0.00000000000E+000,  0.10000000000E+001
  0.18104400000E+008,  0.20131430491E+007,  0.19000000000E+002,  0.00000000000E+000,  0.10000000000E+001
  0.18105900000E+008,  0.20131838274E+007,  0.19000000000E+002,  0.00000000000E+000,  0.10000000000E+001
  0.18107400000E+008,  0.20132252520E+007,  0.19000000000E+002,  0.00000000000E+000,  0.10000000000E+001
  0.18108900000E+008,  0.20132672726E+007,  0.19000000000E+002,  0.00000000000E+000,  0.10000000000E+001
  0.18110400000E+008,  0.20133098451E+007,  0.19000000000E+002,  0.00000000000E+000,  0.10000000000E+001
  0.18111900000E+008,  0.20133529311E+007,  0.19000000000E+002,  0.00000000000E+000,  0.10000000000E+001
  0.18113400000E+008,  0.20133964965E+007,  0.19000000000E+002,  0.00000000000E+000,  0.10000000000E+001
  0.18114900000E+008,  0.20134405110E+007,  0.19000000000E+002,  0.00000000000E+000,  0.10000000000E+001
  0.18116400000E+008,  0.20134849475E+007,  0.19000000000E+002,  0.00000000000E+000,  0.10000000000E+001
  0.18117900000E+008,  0.20135297817E+007,  0.19000000000E+002,  0.00000000000E+000,  0.10000000000E+001
  0.18119400000E+008,  0.20135749914E+007,  0.19000000000E+002,  0.00000000000E+000,  0.10000000000E+001
  0.18120900000E+008,  0.20136205566E+007,  0.19000000000E+002,  0.00000000000E+000,  0.10000000000E+001
  0.18122400000E+008,  0.20136701891E+007,  0.19000000000E+002,  0.00000000000E+000,  0.10000000000E+001
  0.18123900000E+008,  0.20137330997E+007,  0.19000000000E+002,  0.00000000000E+000,  0.10000000000E+001
  0.18125400000E+008,  0.20138130065E+007,  0.19000000000E+002,  0.00000000000E+000,  0.10000000000E+001
  0.18126900000E+008,  0.20139097563E+007,  0.19000000000E+002,  0.00000000000E+000,  0.10000000000E+001
  0.18128400000E+008,  0.20140215178E+007,  0.19000000000E+002,  0.00000000000E+000,  0.10000000000E+001
  0.18129900000E+008,  0.20141459606E+007,  0.19000000000E+002,  0.00000000000E+000,  0.10000000000E+001
  0.18131400000E+008,  0.20142807948E+007,  0.19000000000E+002,  0.00000000000E+000,  0.10000000000E+001
  0.18132900000E+008,  0.20144239794E+007,  0.19000000000E+002,  0.00000000000E+000,  0.10000000000E+001
  0.18134400000E+008,  0.20145737758E+007,  0.19000000000E+002,  0.00000000000E+000,  0.10000000000E+001
  0.18135900000E+008,  0.20147287363E+007,  0.19000000000E+002,  0.00000000000E+000,  0.10000000000E+001
  0.18137400000E+008,  0.20148876694E+007,  0.19000000000E+002,  0.00000000000E+000,  0.10000000000E+001
  0.18138900000E+008,  0.20150496001E+007,  0.19000000000E+002,  0.00000000000E+000,  0.10000000000E+001
  0.18140400000E+008,  0.20152137336E+007,  0.19000000000E+002,  0.00000000000E+000,  0.10000000000E+001
  0.18141900000E+008,  0.20153794234E+007,  0.19000000000E+002,  0.00000000000E+000,  0.10000000000E+001
  0.18143400000E+008,  0.20155461445E+007,  0.19000000000E+002,  0.00000000000E+000,  0.10000000000E+001
  0.18144900000E+008,  0.20157134711E+007,  0.19000000000E+002,  0.00000000000E+000,  0.10000000000E+001
  0.18146400000E+008,  0.20158810589E+007,  0.19000000000E+002,  0.00000000000E+000,  0.10000000000E+001
  0.18147900000E+008,  0.20160486297E+007,  0.19000000000E+002,  0.00000000000E+000,  0.10000000000E+001
  0.18149400000E+008,  0.20162159598E+007,  0.19000000000E+002,  0.00000000000E+000,  0.10000000000E+001
  0.18150900000E+008,  0.20163828697E+007,  0.19000000000E+002,  0.00000000000E+000,  0.10000000000E+001
  0.18152400000E+008,  0.20165492164E+007,  0.19000000000E+002,  0.00000000000E+000,  0.10000000000E+001
  0.18153900000E+008,  0.20167148864E+007,  0.19000000000E+002,  0.00000000000E+000,  0.10000000000E+001
  0.18155400000E+008,  0.20168797906E+007,  0.19000000000E+002,  0.00000000000E+000,  0.10000000000E+001
  0.18156900000E+008,  0.20170438597E+007,  0.19000000000E+002,  0.00000000000E+000,  0.10000000000E+001
  0.18158400000E+008,  0.20172070407E+007,  0.19000000000E+002,  0.00000000000E+000,  0.10000000000E+001
  0.18159900000E+008,  0.20173692937E+007,  0.19000000000E+002,  0.00000000000E+000,  0.10000000000E+001
  0.18161400000E+008,  0.20175305898E+007,  0.19000000000E+002,  0.00000000000E+000,  0.10000000000E+001
  0.18162900000E+008,  0.20176909089E+007,  0.19000000000E+002,  0.00000000000E+000,  0.10000000000E+001
  0.18164400000E+008,  0.20178502380E+007,  0.19000000000E+002,  0.00000000000E+000,  0.10000000000E+001
  0.18165900000E+008,  0.20180085699E+007,  0.19000000000E+002,  0.00000000000E+000,  0.10000000000E+001
  0.18167400000E+008,  0.20181659022E+007,  0.19000000000E+002,  0.00000000000E+000,  0.10000000000E+001
  0.18168900000E+008,  0.20183222364E+007,  0.19000000000E+002,  0.00000000000E+000,  0.10000000000E+001
  0.18170400000E+008,  0.20184775767E+007,  0.19000000000E+002,  0.00000000000E+000,  0.10000000000E+001
  0.18171900000E+008,  0.20186319302E+007,  0.19000000000E+002,  0.00000000000E+000,  0.10000000000E+001
  0.18173400000E+008,  0.20187853055E+007,  0.19000000000E+002,  0.00000000000E+000,  0.10000000000E+001
  0.18174900000E+008,  0.20189377426E+007,  0.19000000000E+002,  0.00000000000E+000,  0.10000000000E+001
  0.18176400000E+008,  0.20190896816E+007,  0.19000000000E+002,  0.00000000000E+000,  0.10000000000E+001
  0.18177900000E+008,  0.20192413382E+007,  0.19000000000E+002,  0.00000000000E+000,  0.10000000000E+001
  0.18179400000E+008,  0.20193927488E+007,  0.19000000000E+002,  0.00000000000E+000,  0.10000000000E+001
  0.18180900000E+008,  0.20195438678E+007,  0.19000000000E+002,  0.00000000000E+000,  0.10000000000E+001
  0.18182400000E+008,  0.20196946214E+007,  0.19000000000E+002,  0.00000000000E+000,  0.10000000000E+001
  0.18183900000E+008,  0.20198449330E+007,  0.19000000000E+002,  0.00000000000E+000,  0.10000000000E+001
  0.18185400000E+008,  0.20199947337E+007,  0.19000000000E+002,  0.00000000000E+000,  0.10000000000E+001
  0.18186900000E+008,  0.20201439655E+007,  0.19000000000E+002,  0.00000000000E+000,  0.10000000000E+001
  0.18188400000E+008,  0.20202925818E+007,  0.19000000000E+002,  0.00000000000E+000,  0.10000000000E+001
  0.18189900000E+008,  0.20204405457E+007,  0.19000000000E+002,  0.00000000000E+000,  0.10000000000E+001
  0.18191400000E+008,  0.20205878291E+007,  0.19000000000E+002,  0.00000000000E+000,  0.10000000000E+001
  0.18192900000E+008,  0.20207344108E+007,  0.19000000000E+002,  0.00000000000E+000,  0.10000000000E+001
  0.18194400000E+008,  0.20208802758E+007,  0.19000000000E+002,  0.00000000000E+000,  0.10000000000E+001
  0.18195900000E+008,  0.20210254137E+007,  0.19000000000E+002,  0.00000000000E+000,  0.10000000000E+001
  0.18197400000E+008,  0.20211698183E+007,  0.19000000000E+002,  0.00000000000E+000,  0.10000000000E+001
  0.18198900000E+008,  0.20213134863E+007,  0.19000000000E+002,  0.00000000000E+000,  0.10000000000E+001
  0.18200400000E+008,  0.20214564171E+007,  0.19000000000E+002,  0.00000000000E+000,  0.10000000000E+001
  0.18201900000E+008,  0.20215986123E+007,  0.19000000000E+002,  0.00000000000E+000,  0.10000000000E+001
  0.18203400000E+008,  0.20217400751E+007,  0.19000000000E+002,  0.00000000000E+000,  0.10000000000E+001
  0.18204900000E+008,  0.20218808098E+007,  0.19000000000E+002,  0.00000000000E+000,  0.10000000000E+001
  0.18206400000E+008,  0.20220208222E+007,  0.19000000000E+002,  0.00000000000E+000,  0.10000000000E+001
  0.18207900000E+008,  0.20221601185E+007,  0.19000000000E+002,  0.00000000000E+000,  0.10000000000E+001
  0.18209400000E+008,  0.20222987057E+007,  0.19000000000E+002,  0.00000000000E+000,  0.10000000000E+001
  0.18210900000E+008,  0.20224365913E+007,  0.19000000000E+002,  0.00000000000E+000,  0.10000000000E+001
  0.18212400000E+008,  0.20225737830E+007,  0.19000000000E+002,  0.00000000000E+000,  0.10000000000E+001
  0.18213900000E+008,  0.20227102889E+007,  0.19000000000E+002,  0.00000000000E+000,  0.10000000000E+001
  0.18215400000E+008,  0.20228461173E+007,  0.19000000000E+002,  0.00000000000E+000,  0.10000000000E+001
  0.18216900000E+008,  0.20229812763E+007,  0.19000000000E+002,  0.00000000000E+000,  0.10000000000E+001
  0.18218400000E+008,  0.20231157743E+007,  0.19000000000E+002,  0.00000000000E+000,  0.10000000000E+001
  0.18219900000E+008,  0.20232496196E+007,  0.19000000000E+002,  0.00000000000E+000,  0.10000000000E+001
  0.18221400000E+008,  0.20233828205E+007,  0.19000000000E+002,  0.00000000000E+000,  0.10000000000E+001
  0.18222900000E+008,  0.20235153851E+007,  0.19000000000E+002,  0.00000000000E+000,  0.10000000000E+001
  0.18224400000E+008,  0.20236473216E+007,  0.19000000000E+002,  0.00000000000E+000,  0.10000000000E+001
  0.18225900000E+008,  0.20237786378E+007,  0.19000000000E+002,  0.00000000000E+000,  0.10000000000E+001
  0.18227400000E+008,  0.20239093415E+007,  0.19000000000E+002,  0.00000000000E+000,  0.10000000000E+001
  0.18228900000E+008,  0.20240398641E+007,  0.19000000000E+002,  0.00000000000E+000,  0.10000000000E+001
  0.18230400000E+008,  0.20241705767E+007,  0.19000000000E+002,  0.00000000000E+000,  0.10000000000E+001
  0.18231900000E+008,  0.20243015960E+007,  0.19000000000E+002,  0.00000000000E+000,  0.10000000000E+001
  0.18233400000E+008,  0.20244328917E+007,  0.19000000000E+002,  0.00000000000E+000,  0.10000000000E+001
  0.18234900000E+008,  0.20245643725E+007,  0.19000000000E+002,  0.00000000000E+000,  0.10000000000E+001
  0.18236400000E+008,  0.20246959314E+007,  0.19000000000E+002,  0.00000000000E+000,  0.10000000000E+001
  0.18237900000E+008,  0.20248274651E+007,  0.19000000000E+002,  0.00000000000E+000,  0.10000000000E+001
  0.18239400000E+008,  0.20249588823E+007,  0.19000000000E+002,  0.00000000000E+000,  0.10000000000E+001
  0.18240900000E+008,  0.20250901047E+007,  0.19000000000E+002,  0.00000000000E+000,  0.10000000000E+001
  0.18242400000E+008,  0.20252210672E+007,  0.19000000000E+002,  0.00000000000E+000,  0.10000000000E+001
  0.18243900000E+008,  0.20253517158E+007,  0.19000000000E+002,  0.00000000000E+000,  0.10000000000E+001
  0.18245400000E+008,  0.20254820066E+007,  0.19000000000E+002,  0.00000000000E+000,  0.10000000000E+001
