"           TIME(S)","              PRES","              TEMP","             SAT_G","             SAT_L"
  0.18228740000E+008,  0.20000000611E+007,  0.19000000000E+002,  0.00000000000E+000,  0.10000000000E+001
  0.18228890000E+008,  0.20000032444E+007,  0.19000000000E+002,  0.00000000000E+000,  0.10000000000E+001
  0.18229040000E+008,  0.20000094041E+007,  0.19000000000E+002,  0.00000000000E+000,  0.10000000000E+001
  0.18229190000E+008,  0.20000177663E+007,  0.19000000000E+002,  0.00000000000E+000,  0.10000000000E+001
  0.18229340000E+008,  0.20000274798E+007,  0.19000000000E+002,  0.00000000000E+000,  0.10000000000E+001
  0.18229490000E+008,  0.20000378677E+007,  0.19000000000E+002,  0.00000000000E+000,  0.10000000000E+001
  0.18229640000E+008,  0.20000484685E+007,  0.19000000000E+002,  0.00000000000E+000,  0.10000000000E+001
  0.18229790000E+008,  0.20000590003E+007,  0.19000000000E+002,  0.00000000000E+000,  0.10000000000E+001
  0.18229940000E+008,  0.20000693095E+007,  0.19000000000E+002,  0.00000000000E+000,  0.10000000000E+001
  0.18230090000E+008,  0.20000793253E+007,  0.19000000000E+002,  0.00000000000E+000,  0.10000000000E+001
  0.18230240000E+008,  0.20000889507E+007,  0.19000000000E+002,  0.00000000000E+000,  0.10000000000E+001
  0.18230315000E+008,  0.20000935632E+007,  0.19000000000E+002,  0.00000000000E+000,  0.10000000000E+001
  0.18230465000E+008,  0.20001018268E+007,  0.19000000000E+002,  0.00000000000E+000,  0.10000000000E+001
  0.18230615000E+008,  0.20001095542E+007,  0.19000000000E+002,  0.00000000000E+000,  0.10000000000E+001
  0.18230765000E+008,  0.20001170630E+007,  0.19000000000E+002,  0.00000000000E+000,  0.10000000000E+001
  0.18230915000E+008,  0.20001245145E+007,  0.19000000000E+002,  0.00000000000E+000,  0.10000000000E+001
  0.18231065000E+008,  0.20001319699E+007,  0.19000000000E+002,  0.00000000000E+000,  0.10000000000E+001
  0.18231215000E+008,  0.20001394343E+007,  0.19000000000E+002,  0.00000000000E+000,  0.10000000000E+001
  0.18231365000E+008,  0.20001468935E+007,  0.19000000000E+002,  0.00000000000E+000,  0.10000000000E+001
  0.18231515000E+008,  0.20001543276E+007,  0.19000000000E+002,  0.00000000000E+000,  0.10000000000E+001
  0.18231665000E+008,  0.20001617182E+007,  0.19000000000E+002,  0.00000000000E+000,  0.10000000000E+001
  0.18231815000E+008,  0.20001690513E+007,  0.19000000000E+002,  0.00000000000E+000,  0.10000000000E+001
  0.18231965000E+008,  0.20001763175E+007,  0.19000000000E+002,  0.00000000000E+000,  0.10000000000E+001
  0.18232115000E+008,  0.20001835114E+007,  0.19000000000E+002,  0.00000000000E+000,  0.10000000000E+001
  0.18232265000E+008,  0.20001906309E+007,  0.19000000000E+002,  0.00000000000E+000,  0.10000000000E+001
  0.18232415000E+008,  0.20001976758E+007,  0.19000000000E+002,  0.00000000000E+000,  0.10000000000E+001
  0.18232565000E+008,  0.20002046471E+007,  0.19000000000E+002,  0.00000000000E+000,  0.10000000000E+001
  0.18232715000E+008,  0.20002115471E+007,  0.19000000000E+002,  0.00000000000E+000,  0.10000000000E+001
  0.18232865000E+008,  0.20002183784E+007,  0.19000000000E+002,  0.00000000000E+000,  0.10000000000E+001
  0.18233015000E+008,  0.20002251436E+007,  0.19000000000E+002,  0.00000000000E+000,  0.10000000000E+001
  0.18233165000E+008,  0.20002318457E+007,  0.19000000000E+002,  0.00000000000E+000,  0.10000000000E+001
  0.18233315000E+008,  0.20002384875E+007,  0.19000000000E+002,  0.00000000000E+000,  0.10000000000E+001
  0.18233465000E+008,  0.20002450717E+007,  0.19000000000E+002,  0.00000000000E+000,  0.10000000000E+001
  0.18233615000E+008,  0.20002516011E+007,  0.19000000000E+002,  0.00000000000E+000,  0.10000000000E+001
  0.18233765000E+008,  0.20002580781E+007,  0.19000000000E+002,  0.00000000000E+000,  0.10000000000E+001
  0.18233915000E+008,  0.20002645050E+007,  0.19000000000E+002,  0.00000000000E+000,  0.10000000000E+001
  0.18234065000E+008,  0.20002708841E+007,  0.19000000000E+002,  0.00000000000E+000,  0.10000000000E+001
  0.18234215000E+008,  0.20002772175E+007,  0.19000000000E+002,  0.00000000000E+000,  0.10000000000E+001
  0.18234365000E+008,  0.20002834763E+007,  0.19000000000E+002,  0.00000000000E+000,  0.10000000000E+001
  0.18234440001E+008,  0.20002865677E+007,  0.19000000000E+002,  0.00000000000E+000,  0.10000000000E+001
  0.18234477501E+008,  0.20002880989E+007,  0.19000000000E+002,  0.00000000000E+000,  0.10000000000E+001
  0.18234627501E+008,  0.20002938021E+007,  0.19000000000E+002,  0.00000000000E+000,  0.10000000000E+001
  0.18234777501E+008,  0.20002992101E+007,  0.19000000000E+002,  0.00000000000E+000,  0.10000000000E+001
  0.18234927501E+008,  0.20003044767E+007,  0.19000000000E+002,  0.00000000000E+000,  0.10000000000E+001
  0.18235077501E+008,  0.20003096944E+007,  0.19000000000E+002,  0.00000000000E+000,  0.10000000000E+001
  0.18235152502E+008,  0.20003122955E+007,  0.19000000000E+002,  0.00000000000E+000,  0.10000000000E+001
  0.18235302502E+008,  0.20003173508E+007,  0.19000000000E+002,  0.00000000000E+000,  0.10000000000E+001
  0.18235452502E+008,  0.20003222951E+007,  0.19000000000E+002,  0.00000000000E+000,  0.10000000000E+001
  0.18235602502E+008,  0.20003271973E+007,  0.19000000000E+002,  0.00000000000E+000,  0.10000000000E+001
  0.18235752502E+008,  0.20003321102E+007,  0.19000000000E+002,  0.00000000000E+000,  0.10000000000E+001
  0.18235902502E+008,  0.20003370670E+007,  0.19000000000E+002,  0.00000000000E+000,  0.10000000000E+001
  0.18236052502E+008,  0.20003420872E+007,  0.19000000000E+002,  0.00000000000E+000,  0.10000000000E+001
  0.18236202502E+008,  0.20003471747E+007,  0.19000000000E+002,  0.00000000000E+000,  0.10000000000E+001
  0.18236352502E+008,  0.20003523278E+007,  0.19000000000E+002,  0.00000000000E+000,  0.10000000000E+001
  0.18236502502E+008,  0.20003575410E+007,  0.19000000000E+002,  0.00000000000E+000,  0.10000000000E+001
  0.18236652502E+008,  0.20003628059E+007,  0.19000000000E+002,  0.00000000000E+000,  0.10000000000E+001
  0.18236802502E+008,  0.20003681133E+007,  0.19000000000E+002,  0.00000000000E+000,  0.10000000000E+001
  0.18236952502E+008,  0.20003734542E+007,  0.19000000000E+002,  0.00000000000E+000,  0.10000000000E+001
  0.18237102502E+008,  0.20003788202E+007,  0.19000000000E+002,  0.00000000000E+000,  0.10000000000E+001
  0.18237252502E+008,  0.20003842043E+007,  0.19000000000E+002,  0.00000000000E+000,  0.10000000000E+001
  0.18237402502E+008,  0.20003896003E+007,  0.19000000000E+002,  0.00000000000E+000,  0.10000000000E+001
  0.18237552502E+008,  0.20003950033E+007,  0.19000000000E+002,  0.00000000000E+000,  0.10000000000E+001
  0.18237702502E+008,  0.20004004091E+007,  0.19000000000E+002,  0.00000000000E+000,  0.10000000000E+001
  0.18237852502E+008,  0.20004058146E+007,  0.19000000000E+002,  0.00000000000E+000,  0.10000000000E+001
  0.18238002502E+008,  0.20004112172E+007,  0.19000000000E+002,  0.00000000000E+000,  0.10000000000E+001
  0.18238152502E+008,  0.20004166149E+007,  0.19000000000E+002,  0.00000000000E+000,  0.10000000000E+001
  0.18238302502E+008,  0.20004220062E+007,  0.19000000000E+002,  0.00000000000E+000,  0.10000000000E+001
  0.18238452502E+008,  0.20004273899E+007,  0.19000000000E+002,  0.00000000000E+000,  0.10000000000E+001
  0.18238602502E+008,  0.20004327652E+007,  0.19000000000E+002,  0.00000000000E+000,  0.10000000000E+001
  0.18238752502E+008,  0.20004381314E+007,  0.19000000000E+002,  0.00000000000E+000,  0.10000000000E+001
  0.18238902502E+008,  0.20004434881E+007,  0.19000000000E+002,  0.00000000000E+000,  0.10000000000E+001
  0.18239052502E+008,  0.20004488351E+007,  0.19000000000E+002,  0.00000000000E+000,  0.10000000000E+001
  0.18239202502E+008,  0.20004541720E+007,  0.19000000000E+002,  0.00000000000E+000,  0.10000000000E+001
  0.18239352502E+008,  0.20004594990E+007,  0.19000000000E+002,  0.00000000000E+000,  0.10000000000E+001
  0.18239502502E+008,  0.20004648158E+007,  0.19000000000E+002,  0.00000000000E+000,  0.10000000000E+001
  0.18239652502E+008,  0.20004701227E+007,  0.19000000000E+002,  0.00000000000E+000,  0.10000000000E+001
  0.18239802502E+008,  0.20004754196E+007,  0.19000000000E+002,  0.00000000000E+000,  0.10000000000E+001
  0.18239952502E+008,  0.20004807066E+007,  0.19000000000E+002,  0.00000000000E+000,  0.10000000000E+001
  0.18240102502E+008,  0.20004859839E+007,  0.19000000000E+002,  0.00000000000E+000,  0.10000000000E+001
  0.18240252502E+008,  0.20004912516E+007,  0.19000000000E+002,  0.00000000000E+000,  0.10000000000E+001
  0.18240402502E+008,  0.20004965099E+007,  0.19000000000E+002,  0.00000000000E+000,  0.10000000000E+001
  0.18240552502E+008,  0.20005017590E+007,  0.19000000000E+002,  0.00000000000E+000,  0.10000000000E+001
  0.18240702502E+008,  0.20005069990E+007,  0.19000000000E+002,  0.00000000000E+000,  0.10000000000E+001
  0.18240852502E+008,  0.20005122300E+007,  0.19000000000E+002,  0.00000000000E+000,  0.10000000000E+001
  0.18241002502E+008,  0.20005174524E+007,  0.19000000000E+002,  0.00000000000E+000,  0.10000000000E+001
  0.18241152502E+008,  0.20005226662E+007,  0.19000000000E+002,  0.00000000000E+000,  0.10000000000E+001
  0.18241302502E+008,  0.20005278716E+007,  0.19000000000E+002,  0.00000000000E+000,  0.10000000000E+001
  0.18241452502E+008,  0.20005330689E+007,  0.19000000000E+002,  0.00000000000E+000,  0.10000000000E+001
  0.18241602502E+008,  0.20005382581E+007,  0.19000000000E+002,  0.00000000000E+000,  0.10000000000E+001
  0.18241752502E+008,  0.20005434395E+007,  0.19000000000E+002,  0.00000000000E+000,  0.10000000000E+001
  0.18241902502E+008,  0.20005486132E+007,  0.19000000000E+002,  0.00000000000E+000,  0.10000000000E+001
  0.18242052502E+008,  0.20005537794E+007,  0.19000000000E+002,  0.00000000000E+000,  0.10000000000E+001
  0.18242202502E+008,  0.20005589383E+007,  0.19000000000E+002,  0.00000000000E+000,  0.10000000000E+001
  0.18242352502E+008,  0.20005640900E+007,  0.19000000000E+002,  0.00000000000E+000,  0.10000000000E+001
  0.18242502502E+008,  0.20005692347E+007,  0.19000000000E+002,  0.00000000000E+000,  0.10000000000E+001
  0.18242652502E+008,  0.20005743725E+007,  0.19000000000E+002,  0.00000000000E+000,  0.10000000000E+001
  0.18242802502E+008,  0.20005795036E+007,  0.19000000000E+002,  0.00000000000E+000,  0.10000000000E+001
  0.18242952502E+008,  0.20005846281E+007,  0.19000000000E+002,  0.00000000000E+000,  0.10000000000E+001
  0.18243102502E+008,  0.20005897463E+007,  0.19000000000E+002,  0.00000000000E+000,  0.10000000000E+001
  0.18243252502E+008,  0.20005948581E+007,  0.19000000000E+002,  0.00000000000E+000,  0.10000000000E+001
  0.18243402502E+008,  0.20005999639E+007,  0.19000000000E+002,  0.00000000000E+000,  0.10000000000E+001
  0.18243552502E+008,  0.20006050636E+007,  0.19000000000E+002,  0.00000000000E+000,  0.10000000000E+001
  0.18243702502E+008,  0.20006101532E+007,  0.19000000000E+002,  0.00000000000E+000,  0.10000000000E+001
  0.18243777502E+008,  0.20006126927E+007,  0.19000000000E+002,  0.00000000000E+000,  0.10000000000E+001
  0.18243927502E+008,  0.20006177192E+007,  0.19000000000E+002,  0.00000000000E+000,  0.10000000000E+001
  0.18244077502E+008,  0.20006226901E+007,  0.19000000000E+002,  0.00000000000E+000,  0.10000000000E+001
  0.18244152503E+008,  0.20006251639E+007,  0.19000000000E+002,  0.00000000000E+000,  0.10000000000E+001
  0.18244302503E+008,  0.20006299803E+007,  0.19000000000E+002,  0.00000000000E+000,  0.10000000000E+001
  0.18244377503E+008,  0.20006323450E+007,  0.19000000000E+002,  0.00000000000E+000,  0.10000000000E+001
  0.18244527503E+008,  0.20006368863E+007,  0.19000000000E+002,  0.00000000000E+000,  0.10000000000E+001
  0.18244677503E+008,  0.20006412783E+007,  0.19000000000E+002,  0.00000000000E+000,  0.10000000000E+001
  0.18244827503E+008,  0.20006455666E+007,  0.19000000000E+002,  0.00000000000E+000,  0.10000000000E+001
  0.18244977503E+008,  0.20006497946E+007,  0.19000000000E+002,  0.00000000000E+000,  0.10000000000E+001
  0.18245127503E+008,  0.20006540017E+007,  0.19000000000E+002,  0.00000000000E+000,  0.10000000000E+001
  0.18245202504E+008,  0.20006561009E+007,  0.19000000000E+002,  0.00000000000E+000,  0.10000000000E+001
  0.18245352504E+008,  0.20006602808E+007,  0.19000000000E+002,  0.00000000000E+000,  0.10000000000E+001
  0.18245502504E+008,  0.20006644484E+007,  0.19000000000E+002,  0.00000000000E+000,  0.10000000000E+001
  0.18245652504E+008,  0.20006686234E+007,  0.19000000000E+002,  0.00000000000E+000,  0.10000000000E+001
  0.18245802504E+008,  0.20006728260E+007,  0.19000000000E+002,  0.00000000000E+000,  0.10000000000E+001
  0.18245952504E+008,  0.20006770638E+007,  0.19000000000E+002,  0.00000000000E+000,  0.10000000000E+001
  0.18246102504E+008,  0.20006813415E+007,  0.19000000000E+002,  0.00000000000E+000,  0.10000000000E+001
  0.18246252504E+008,  0.20006856650E+007,  0.19000000000E+002,  0.00000000000E+000,  0.10000000000E+001
  0.18246402504E+008,  0.20006900289E+007,  0.19000000000E+002,  0.00000000000E+000,  0.10000000000E+001
  0.18246477504E+008,  0.20006922158E+007,  0.19000000000E+002,  0.00000000000E+000,  0.10000000000E+001
  0.18246627504E+008,  0.20006965640E+007,  0.19000000000E+002,  0.00000000000E+000,  0.10000000000E+001
  0.18246777504E+008,  0.20007008838E+007,  0.19000000000E+002,  0.00000000000E+000,  0.10000000000E+001
  0.18246927504E+008,  0.20007051958E+007,  0.19000000000E+002,  0.00000000000E+000,  0.10000000000E+001
  0.18247077504E+008,  0.20007095174E+007,  0.19000000000E+002,  0.00000000000E+000,  0.10000000000E+001
  0.18247227504E+008,  0.20007138558E+007,  0.19000000000E+002,  0.00000000000E+000,  0.10000000000E+001
  0.18247377504E+008,  0.20007182170E+007,  0.19000000000E+002,  0.00000000000E+000,  0.10000000000E+001
  0.18247527504E+008,  0.20007226055E+007,  0.19000000000E+002,  0.00000000000E+000,  0.10000000000E+001
  0.18247677504E+008,  0.20007270237E+007,  0.19000000000E+002,  0.00000000000E+000,  0.10000000000E+001
  0.18247827504E+008,  0.20007314726E+007,  0.19000000000E+002,  0.00000000000E+000,  0.10000000000E+001
  0.18247977504E+008,  0.20007359519E+007,  0.19000000000E+002,  0.00000000000E+000,  0.10000000000E+001
  0.18248127504E+008,  0.20007404608E+007,  0.19000000000E+002,  0.00000000000E+000,  0.10000000000E+001
  0.18248277504E+008,  0.20007449988E+007,  0.19000000000E+002,  0.00000000000E+000,  0.10000000000E+001
  0.18248427504E+008,  0.20007495649E+007,  0.19000000000E+002,  0.00000000000E+000,  0.10000000000E+001
  0.18248577504E+008,  0.20007541591E+007,  0.19000000000E+002,  0.00000000000E+000,  0.10000000000E+001
  0.18248727504E+008,  0.20007587802E+007,  0.19000000000E+002,  0.00000000000E+000,  0.10000000000E+001
  0.18248877504E+008,  0.20007634266E+007,  0.19000000000E+002,  0.00000000000E+000,  0.10000000000E+001
  0.18249027504E+008,  0.20007680960E+007,  0.19000000000E+002,  0.00000000000E+000,  0.10000000000E+001
  0.18249177504E+008,  0.20007727863E+007,  0.19000000000E+002,  0.00000000000E+000,  0.10000000000E+001
  0.18249327504E+008,  0.20007774960E+007,  0.19000000000E+002,  0.00000000000E+000,  0.10000000000E+001
  0.18249477504E+008,  0.20007822231E+007,  0.19000000000E+002,  0.00000000000E+000,  0.10000000000E+001
  0.18249627504E+008,  0.20007869659E+007,  0.19000000000E+002,  0.00000000000E+000,  0.10000000000E+001
  0.18249777504E+008,  0.20007917230E+007,  0.19000000000E+002,  0.00000000000E+000,  0.10000000000E+001
  0.18249927504E+008,  0.20007964927E+007,  0.19000000000E+002,  0.00000000000E+000,  0.10000000000E+001
  0.18250077504E+008,  0.20008012740E+007,  0.19000000000E+002,  0.00000000000E+000,  0.10000000000E+001
  0.18250227504E+008,  0.20008060657E+007,  0.19000000000E+002,  0.00000000000E+000,  0.10000000000E+001
  0.18250377504E+008,  0.20008108668E+007,  0.19000000000E+002,  0.00000000000E+000,  0.10000000000E+001
  0.18250527504E+008,  0.20008156766E+007,  0.19000000000E+002,  0.00000000000E+000,  0.10000000000E+001
  0.18250677504E+008,  0.20008204944E+007,  0.19000000000E+002,  0.00000000000E+000,  0.10000000000E+001
  0.18250827504E+008,  0.20008253194E+007,  0.19000000000E+002,  0.00000000000E+000,  0.10000000000E+001
  0.18250977504E+008,  0.20008301510E+007,  0.19000000000E+002,  0.00000000000E+000,  0.10000000000E+001
  0.18251127504E+008,  0.20008349889E+007,  0.19000000000E+002,  0.00000000000E+000,  0.10000000000E+001
  0.18251277504E+008,  0.20008398325E+007,  0.19000000000E+002,  0.00000000000E+000,  0.10000000000E+001
  0.18251427504E+008,  0.20008446814E+007,  0.19000000000E+002,  0.00000000000E+000,  0.10000000000E+001
  0.18251577504E+008,  0.20008495353E+007,  0.19000000000E+002,  0.00000000000E+000,  0.10000000000E+001
  0.18251727504E+008,  0.20008543939E+007,  0.19000000000E+002,  0.00000000000E+000,  0.10000000000E+001
  0.18251877504E+008,  0.20008592568E+007,  0.19000000000E+002,  0.00000000000E+000,  0.10000000000E+001
  0.18252027504E+008,  0.20008641238E+007,  0.19000000000E+002,  0.00000000000E+000,  0.10000000000E+001
  0.18252177504E+008,  0.20008689946E+007,  0.19000000000E+002,  0.00000000000E+000,  0.10000000000E+001
  0.18252327504E+008,  0.20008738691E+007,  0.19000000000E+002,  0.00000000000E+000,  0.10000000000E+001
  0.18252477504E+008,  0.20008787470E+007,  0.19000000000E+002,  0.00000000000E+000,  0.10000000000E+001
  0.18252627504E+008,  0.20008836281E+007,  0.19000000000E+002,  0.00000000000E+000,  0.10000000000E+001
  0.18252777504E+008,  0.20008885123E+007,  0.19000000000E+002,  0.00000000000E+000,  0.10000000000E+001
  0.18252927504E+008,  0.20008933995E+007,  0.19000000000E+002,  0.00000000000E+000,  0.10000000000E+001
  0.18253077504E+008,  0.20008982899E+007,  0.19000000000E+002,  0.00000000000E+000,  0.10000000000E+001
  0.18253227504E+008,  0.20009031838E+007,  0.19000000000E+002,  0.00000000000E+000,  0.10000000000E+001
  0.18253377504E+008,  0.20009080820E+007,  0.19000000000E+002,  0.00000000000E+000,  0.10000000000E+001
  0.18253527504E+008,  0.20009129849E+007,  0.19000000000E+002,  0.00000000000E+000,  0.10000000000E+001
  0.18253677504E+008,  0.20009178917E+007,  0.19000000000E+002,  0.00000000000E+000,  0.10000000000E+001
  0.18253752505E+008,  0.20009203447E+007,  0.19000000000E+002,  0.00000000000E+000,  0.10000000000E+001
  0.18253902505E+008,  0.20009252150E+007,  0.19000000000E+002,  0.00000000000E+000,  0.10000000000E+001
  0.18254052505E+008,  0.20009300373E+007,  0.19000000000E+002,  0.00000000000E+000,  0.10000000000E+001
  0.18254202505E+008,  0.20009348182E+007,  0.19000000000E+002,  0.00000000000E+000,  0.10000000000E+001
  0.18254352505E+008,  0.20009395749E+007,  0.19000000000E+002,  0.00000000000E+000,  0.10000000000E+001
  0.18254502505E+008,  0.20009443182E+007,  0.19000000000E+002,  0.00000000000E+000,  0.10000000000E+001
  0.18254652505E+008,  0.20009490561E+007,  0.19000000000E+002,  0.00000000000E+000,  0.10000000000E+001
  0.18254802505E+008,  0.20009537950E+007,  0.19000000000E+002,  0.00000000000E+000,  0.10000000000E+001
  0.18254952505E+008,  0.20009585394E+007,  0.19000000000E+002,  0.00000000000E+000,  0.10000000000E+001
  0.18255102505E+008,  0.20009632925E+007,  0.19000000000E+002,  0.00000000000E+000,  0.10000000000E+001
  0.18255252505E+008,  0.20009680566E+007,  0.19000000000E+002,  0.00000000000E+000,  0.10000000000E+001
  0.18255402505E+008,  0.20009728327E+007,  0.19000000000E+002,  0.00000000000E+000,  0.10000000000E+001
  0.18255552505E+008,  0.20009776216E+007,  0.19000000000E+002,  0.00000000000E+000,  0.10000000000E+001
  0.18255702505E+008,  0.20009824233E+007,  0.19000000000E+002,  0.00000000000E+000,  0.10000000000E+001
  0.18255852505E+008,  0.20009872378E+007,  0.19000000000E+002,  0.00000000000E+000,  0.10000000000E+001
  0.18256002505E+008,  0.20009920645E+007,  0.19000000000E+002,  0.00000000000E+000,  0.10000000000E+001
  0.18256152505E+008,  0.20009969031E+007,  0.19000000000E+002,  0.00000000000E+000,  0.10000000000E+001
