"           TIME(S)","              PRES","              TEMP","             SAT_G","             SAT_L"
  0.17592105000E+008,  0.21000000000E+007,  0.19000000000E+002,  0.00000000000E+000,  0.10000000000E+001
  0.17592130000E+008,  0.20999999734E+007,  0.19000000000E+002,  0.00000000000E+000,  0.10000000000E+001
  0.17592255000E+008,  0.20999456951E+007,  0.19000000000E+002,  0.00000000000E+000,  0.10000000000E+001
  0.17592405000E+008,  0.20997366992E+007,  0.19000000000E+002,  0.00000000000E+000,  0.10000000000E+001
  0.17592555000E+008,  0.20993847638E+007,  0.19000000000E+002,  0.00000000000E+000,  0.10000000000E+001
  0.17592705000E+008,  0.20989277568E+007,  0.19000000000E+002,  0.00000000000E+000,  0.10000000000E+001
  0.17592855000E+008,  0.20984084531E+007,  0.19000000000E+002,  0.00000000000E+000,  0.10000000000E+001
  0.17593005000E+008,  0.20978598631E+007,  0.19000000000E+002,  0.00000000000E+000,  0.10000000000E+001
  0.17593155000E+008,  0.20973030058E+007,  0.19000000000E+002,  0.00000000000E+000,  0.10000000000E+001
  0.17593305000E+008,  0.20967495101E+007,  0.19000000000E+002,  0.00000000000E+000,  0.10000000000E+001
  0.17593455000E+008,  0.20962049188E+007,  0.19000000000E+002,  0.00000000000E+000,  0.10000000000E+001
  0.17593605000E+008,  0.20956712970E+007,  0.19000000000E+002,  0.00000000000E+000,  0.10000000000E+001
  0.17593755000E+008,  0.20951489423E+007,  0.19000000000E+002,  0.00000000000E+000,  0.10000000000E+001
  0.17593905000E+008,  0.20946373837E+007,  0.19000000000E+002,  0.00000000000E+000,  0.10000000000E+001
  0.17594055000E+008,  0.20941359128E+007,  0.19000000000E+002,  0.00000000000E+000,  0.10000000000E+001
  0.17594205000E+008,  0.20936438350E+007,  0.19000000000E+002,  0.00000000000E+000,  0.10000000000E+001
  0.17594355000E+008,  0.20931605692E+007,  0.19000000000E+002,  0.00000000000E+000,  0.10000000000E+001
  0.17594505000E+008,  0.20926856701E+007,  0.19000000000E+002,  0.00000000000E+000,  0.10000000000E+001
  0.17594655000E+008,  0.20922188162E+007,  0.19000000000E+002,  0.00000000000E+000,  0.10000000000E+001
  0.17594805000E+008,  0.20917597850E+007,  0.19000000000E+002,  0.00000000000E+000,  0.10000000000E+001
  0.17594955000E+008,  0.20913084268E+007,  0.19000000000E+002,  0.00000000000E+000,  0.10000000000E+001
  0.17595105000E+008,  0.20908646418E+007,  0.19000000000E+002,  0.00000000000E+000,  0.10000000000E+001
  0.17595255000E+008,  0.20904283617E+007,  0.19000000000E+002,  0.00000000000E+000,  0.10000000000E+001
  0.17595405000E+008,  0.20899995353E+007,  0.19000000000E+002,  0.00000000000E+000,  0.10000000000E+001
  0.17595555000E+008,  0.20895782701E+007,  0.19000000000E+002,  0.00000000000E+000,  0.10000000000E+001
  0.17595564375E+008,  0.20895519707E+007,  0.19000000000E+002,  0.00000000000E+000,  0.10000000000E+001
  0.17595611250E+008,  0.20894212165E+007,  0.19000000000E+002,  0.00000000000E+000,  0.10000000000E+001
  0.17595761250E+008,  0.20890104203E+007,  0.19000000000E+002,  0.00000000000E+000,  0.10000000000E+001
  0.17595836251E+008,  0.20888069023E+007,  0.19000000000E+002,  0.00000000000E+000,  0.10000000000E+001
  0.17595986251E+008,  0.20884070781E+007,  0.19000000000E+002,  0.00000000000E+000,  0.10000000000E+001
  0.17596061251E+008,  0.20882089079E+007,  0.19000000000E+002,  0.00000000000E+000,  0.10000000000E+001
  0.17596098752E+008,  0.20881102486E+007,  0.19000000000E+002,  0.00000000000E+000,  0.10000000000E+001
  0.17596248752E+008,  0.20877216927E+007,  0.19000000000E+002,  0.00000000000E+000,  0.10000000000E+001
  0.17596398752E+008,  0.20873387715E+007,  0.19000000000E+002,  0.00000000000E+000,  0.10000000000E+001
  0.17596473752E+008,  0.20871486703E+007,  0.19000000000E+002,  0.00000000000E+000,  0.10000000000E+001
  0.17596511253E+008,  0.20870539525E+007,  0.19000000000E+002,  0.00000000000E+000,  0.10000000000E+001
  0.17596661253E+008,  0.20866797718E+007,  0.19000000000E+002,  0.00000000000E+000,  0.10000000000E+001
  0.17596736253E+008,  0.20864937408E+007,  0.19000000000E+002,  0.00000000000E+000,  0.10000000000E+001
  0.17596773754E+008,  0.20864009741E+007,  0.19000000000E+002,  0.00000000000E+000,  0.10000000000E+001
  0.17596923754E+008,  0.20860330706E+007,  0.19000000000E+002,  0.00000000000E+000,  0.10000000000E+001
  0.17596998754E+008,  0.20858497738E+007,  0.19000000000E+002,  0.00000000000E+000,  0.10000000000E+001
  0.17597036254E+008,  0.20857582675E+007,  0.19000000000E+002,  0.00000000000E+000,  0.10000000000E+001
  0.17597055005E+008,  0.20857125468E+007,  0.19000000000E+002,  0.00000000000E+000,  0.10000000000E+001
  0.17597148757E+008,  0.20854843823E+007,  0.19000000000E+002,  0.00000000000E+000,  0.10000000000E+001
  0.17597298757E+008,  0.20851198045E+007,  0.19000000000E+002,  0.00000000000E+000,  0.10000000000E+001
  0.17597448757E+008,  0.20847556161E+007,  0.19000000000E+002,  0.00000000000E+000,  0.10000000000E+001
  0.17597598757E+008,  0.20843920585E+007,  0.19000000000E+002,  0.00000000000E+000,  0.10000000000E+001
  0.17597748757E+008,  0.20840295814E+007,  0.19000000000E+002,  0.00000000000E+000,  0.10000000000E+001
  0.17597898757E+008,  0.20836687504E+007,  0.19000000000E+002,  0.00000000000E+000,  0.10000000000E+001
  0.17598048757E+008,  0.20833101707E+007,  0.19000000000E+002,  0.00000000000E+000,  0.10000000000E+001
  0.17598198757E+008,  0.20829544312E+007,  0.19000000000E+002,  0.00000000000E+000,  0.10000000000E+001
  0.17598348757E+008,  0.20826020701E+007,  0.19000000000E+002,  0.00000000000E+000,  0.10000000000E+001
  0.17598498757E+008,  0.20822535568E+007,  0.19000000000E+002,  0.00000000000E+000,  0.10000000000E+001
  0.17598648757E+008,  0.20819092853E+007,  0.19000000000E+002,  0.00000000000E+000,  0.10000000000E+001
  0.17598798757E+008,  0.20815695752E+007,  0.19000000000E+002,  0.00000000000E+000,  0.10000000000E+001
  0.17598948757E+008,  0.20812346767E+007,  0.19000000000E+002,  0.00000000000E+000,  0.10000000000E+001
  0.17599098757E+008,  0.20809047774E+007,  0.19000000000E+002,  0.00000000000E+000,  0.10000000000E+001
  0.17599248757E+008,  0.20805800107E+007,  0.19000000000E+002,  0.00000000000E+000,  0.10000000000E+001
  0.17599398757E+008,  0.20802604634E+007,  0.19000000000E+002,  0.00000000000E+000,  0.10000000000E+001
  0.17599548757E+008,  0.20799461835E+007,  0.19000000000E+002,  0.00000000000E+000,  0.10000000000E+001
  0.17599698757E+008,  0.20796371870E+007,  0.19000000000E+002,  0.00000000000E+000,  0.10000000000E+001
  0.17599848757E+008,  0.20793334635E+007,  0.19000000000E+002,  0.00000000000E+000,  0.10000000000E+001
  0.17599998757E+008,  0.20790349822E+007,  0.19000000000E+002,  0.00000000000E+000,  0.10000000000E+001
  0.17600148757E+008,  0.20787416959E+007,  0.19000000000E+002,  0.00000000000E+000,  0.10000000000E+001
  0.17600298757E+008,  0.20784535448E+007,  0.19000000000E+002,  0.00000000000E+000,  0.10000000000E+001
  0.17600448757E+008,  0.20781704596E+007,  0.19000000000E+002,  0.00000000000E+000,  0.10000000000E+001
  0.17600598757E+008,  0.20778923644E+007,  0.19000000000E+002,  0.00000000000E+000,  0.10000000000E+001
  0.17600748757E+008,  0.20776191780E+007,  0.19000000000E+002,  0.00000000000E+000,  0.10000000000E+001
  0.17600898757E+008,  0.20773508165E+007,  0.19000000000E+002,  0.00000000000E+000,  0.10000000000E+001
  0.17601048757E+008,  0.20770871938E+007,  0.19000000000E+002,  0.00000000000E+000,  0.10000000000E+001
  0.17601198757E+008,  0.20768282232E+007,  0.19000000000E+002,  0.00000000000E+000,  0.10000000000E+001
  0.17601348757E+008,  0.20765738176E+007,  0.19000000000E+002,  0.00000000000E+000,  0.10000000000E+001
  0.17601498757E+008,  0.20763238908E+007,  0.19000000000E+002,  0.00000000000E+000,  0.10000000000E+001
  0.17601648757E+008,  0.20760783572E+007,  0.19000000000E+002,  0.00000000000E+000,  0.10000000000E+001
  0.17601798757E+008,  0.20758371329E+007,  0.19000000000E+002,  0.00000000000E+000,  0.10000000000E+001
  0.17601948757E+008,  0.20756001352E+007,  0.19000000000E+002,  0.00000000000E+000,  0.10000000000E+001
  0.17602098757E+008,  0.20753672832E+007,  0.19000000000E+002,  0.00000000000E+000,  0.10000000000E+001
  0.17602248757E+008,  0.20751384977E+007,  0.19000000000E+002,  0.00000000000E+000,  0.10000000000E+001
  0.17602398757E+008,  0.20749137014E+007,  0.19000000000E+002,  0.00000000000E+000,  0.10000000000E+001
  0.17602548757E+008,  0.20746928188E+007,  0.19000000000E+002,  0.00000000000E+000,  0.10000000000E+001
  0.17602698757E+008,  0.20744757761E+007,  0.19000000000E+002,  0.00000000000E+000,  0.10000000000E+001
  0.17602848757E+008,  0.20742625015E+007,  0.19000000000E+002,  0.00000000000E+000,  0.10000000000E+001
  0.17602998757E+008,  0.20740529247E+007,  0.19000000000E+002,  0.00000000000E+000,  0.10000000000E+001
  0.17603148757E+008,  0.20738469774E+007,  0.19000000000E+002,  0.00000000000E+000,  0.10000000000E+001
  0.17603298757E+008,  0.20736445926E+007,  0.19000000000E+002,  0.00000000000E+000,  0.10000000000E+001
  0.17603448757E+008,  0.20734457051E+007,  0.19000000000E+002,  0.00000000000E+000,  0.10000000000E+001
  0.17603598757E+008,  0.20732502513E+007,  0.19000000000E+002,  0.00000000000E+000,  0.10000000000E+001
  0.17603748757E+008,  0.20730581689E+007,  0.19000000000E+002,  0.00000000000E+000,  0.10000000000E+001
  0.17603898757E+008,  0.20728693972E+007,  0.19000000000E+002,  0.00000000000E+000,  0.10000000000E+001
  0.17604048757E+008,  0.20726838766E+007,  0.19000000000E+002,  0.00000000000E+000,  0.10000000000E+001
  0.17604198757E+008,  0.20725015491E+007,  0.19000000000E+002,  0.00000000000E+000,  0.10000000000E+001
  0.17604348757E+008,  0.20723223577E+007,  0.19000000000E+002,  0.00000000000E+000,  0.10000000000E+001
  0.17604498757E+008,  0.20721462469E+007,  0.19000000000E+002,  0.00000000000E+000,  0.10000000000E+001
  0.17604648757E+008,  0.20719731622E+007,  0.19000000000E+002,  0.00000000000E+000,  0.10000000000E+001
  0.17604798757E+008,  0.20718030501E+007,  0.19000000000E+002,  0.00000000000E+000,  0.10000000000E+001
  0.17604948757E+008,  0.20716358585E+007,  0.19000000000E+002,  0.00000000000E+000,  0.10000000000E+001
  0.17605098757E+008,  0.20714715362E+007,  0.19000000000E+002,  0.00000000000E+000,  0.10000000000E+001
  0.17605248757E+008,  0.20713100329E+007,  0.19000000000E+002,  0.00000000000E+000,  0.10000000000E+001
  0.17605398757E+008,  0.20711512995E+007,  0.19000000000E+002,  0.00000000000E+000,  0.10000000000E+001
  0.17605548757E+008,  0.20709952877E+007,  0.19000000000E+002,  0.00000000000E+000,  0.10000000000E+001
  0.17605698757E+008,  0.20708419502E+007,  0.19000000000E+002,  0.00000000000E+000,  0.10000000000E+001
  0.17605848757E+008,  0.20706912406E+007,  0.19000000000E+002,  0.00000000000E+000,  0.10000000000E+001
  0.17605998757E+008,  0.20705431133E+007,  0.19000000000E+002,  0.00000000000E+000,  0.10000000000E+001
  0.17606148757E+008,  0.20703975236E+007,  0.19000000000E+002,  0.00000000000E+000,  0.10000000000E+001
  0.17606298757E+008,  0.20702544277E+007,  0.19000000000E+002,  0.00000000000E+000,  0.10000000000E+001
  0.17606448757E+008,  0.20701137824E+007,  0.19000000000E+002,  0.00000000000E+000,  0.10000000000E+001
  0.17606598757E+008,  0.20699755456E+007,  0.19000000000E+002,  0.00000000000E+000,  0.10000000000E+001
  0.17606748757E+008,  0.20698396757E+007,  0.19000000000E+002,  0.00000000000E+000,  0.10000000000E+001
  0.17606898757E+008,  0.20697061320E+007,  0.19000000000E+002,  0.00000000000E+000,  0.10000000000E+001
  0.17607048757E+008,  0.20695748743E+007,  0.19000000000E+002,  0.00000000000E+000,  0.10000000000E+001
  0.17607198757E+008,  0.20694458635E+007,  0.19000000000E+002,  0.00000000000E+000,  0.10000000000E+001
  0.17607348757E+008,  0.20693190608E+007,  0.19000000000E+002,  0.00000000000E+000,  0.10000000000E+001
  0.17607498757E+008,  0.20691944284E+007,  0.19000000000E+002,  0.00000000000E+000,  0.10000000000E+001
  0.17607648757E+008,  0.20690719289E+007,  0.19000000000E+002,  0.00000000000E+000,  0.10000000000E+001
  0.17607798757E+008,  0.20689515258E+007,  0.19000000000E+002,  0.00000000000E+000,  0.10000000000E+001
  0.17607948757E+008,  0.20688331831E+007,  0.19000000000E+002,  0.00000000000E+000,  0.10000000000E+001
  0.17608098757E+008,  0.20687168655E+007,  0.19000000000E+002,  0.00000000000E+000,  0.10000000000E+001
  0.17608248757E+008,  0.20686025382E+007,  0.19000000000E+002,  0.00000000000E+000,  0.10000000000E+001
  0.17608398757E+008,  0.20684901671E+007,  0.19000000000E+002,  0.00000000000E+000,  0.10000000000E+001
  0.17608548757E+008,  0.20683797187E+007,  0.19000000000E+002,  0.00000000000E+000,  0.10000000000E+001
  0.17608698757E+008,  0.20682711600E+007,  0.19000000000E+002,  0.00000000000E+000,  0.10000000000E+001
  0.17608848757E+008,  0.20681644587E+007,  0.19000000000E+002,  0.00000000000E+000,  0.10000000000E+001
  0.17608998757E+008,  0.20680595829E+007,  0.19000000000E+002,  0.00000000000E+000,  0.10000000000E+001
  0.17609148757E+008,  0.20679565014E+007,  0.19000000000E+002,  0.00000000000E+000,  0.10000000000E+001
  0.17609298757E+008,  0.20678551835E+007,  0.19000000000E+002,  0.00000000000E+000,  0.10000000000E+001
  0.17609448757E+008,  0.20677555989E+007,  0.19000000000E+002,  0.00000000000E+000,  0.10000000000E+001
  0.17609598757E+008,  0.20676577180E+007,  0.19000000000E+002,  0.00000000000E+000,  0.10000000000E+001
  0.17609748757E+008,  0.20675615116E+007,  0.19000000000E+002,  0.00000000000E+000,  0.10000000000E+001
  0.17609898757E+008,  0.20674669510E+007,  0.19000000000E+002,  0.00000000000E+000,  0.10000000000E+001
  0.17610048757E+008,  0.20673740080E+007,  0.19000000000E+002,  0.00000000000E+000,  0.10000000000E+001
  0.17610198757E+008,  0.20672826551E+007,  0.19000000000E+002,  0.00000000000E+000,  0.10000000000E+001
  0.17610348757E+008,  0.20671928648E+007,  0.19000000000E+002,  0.00000000000E+000,  0.10000000000E+001
  0.17610498757E+008,  0.20671046106E+007,  0.19000000000E+002,  0.00000000000E+000,  0.10000000000E+001
  0.17610648757E+008,  0.20670178660E+007,  0.19000000000E+002,  0.00000000000E+000,  0.10000000000E+001
  0.17610798757E+008,  0.20669326053E+007,  0.19000000000E+002,  0.00000000000E+000,  0.10000000000E+001
  0.17610948757E+008,  0.20668488030E+007,  0.19000000000E+002,  0.00000000000E+000,  0.10000000000E+001
  0.17611098757E+008,  0.20667664342E+007,  0.19000000000E+002,  0.00000000000E+000,  0.10000000000E+001
  0.17611248757E+008,  0.20666854743E+007,  0.19000000000E+002,  0.00000000000E+000,  0.10000000000E+001
  0.17611398757E+008,  0.20666058993E+007,  0.19000000000E+002,  0.00000000000E+000,  0.10000000000E+001
  0.17611548757E+008,  0.20665276853E+007,  0.19000000000E+002,  0.00000000000E+000,  0.10000000000E+001
  0.17611698757E+008,  0.20664508092E+007,  0.19000000000E+002,  0.00000000000E+000,  0.10000000000E+001
  0.17611848757E+008,  0.20663752479E+007,  0.19000000000E+002,  0.00000000000E+000,  0.10000000000E+001
  0.17611998757E+008,  0.20663009791E+007,  0.19000000000E+002,  0.00000000000E+000,  0.10000000000E+001
  0.17612148757E+008,  0.20662279804E+007,  0.19000000000E+002,  0.00000000000E+000,  0.10000000000E+001
  0.17612298757E+008,  0.20661562303E+007,  0.19000000000E+002,  0.00000000000E+000,  0.10000000000E+001
  0.17612448757E+008,  0.20660857073E+007,  0.19000000000E+002,  0.00000000000E+000,  0.10000000000E+001
  0.17612598757E+008,  0.20660163905E+007,  0.19000000000E+002,  0.00000000000E+000,  0.10000000000E+001
  0.17612748757E+008,  0.20659482590E+007,  0.19000000000E+002,  0.00000000000E+000,  0.10000000000E+001
  0.17612898757E+008,  0.20658812927E+007,  0.19000000000E+002,  0.00000000000E+000,  0.10000000000E+001
  0.17613048757E+008,  0.20658154717E+007,  0.19000000000E+002,  0.00000000000E+000,  0.10000000000E+001
  0.17613198757E+008,  0.20657507762E+007,  0.19000000000E+002,  0.00000000000E+000,  0.10000000000E+001
  0.17613348757E+008,  0.20656871870E+007,  0.19000000000E+002,  0.00000000000E+000,  0.10000000000E+001
  0.17613498757E+008,  0.20656246852E+007,  0.19000000000E+002,  0.00000000000E+000,  0.10000000000E+001
  0.17613648757E+008,  0.20655632520E+007,  0.19000000000E+002,  0.00000000000E+000,  0.10000000000E+001
  0.17613798757E+008,  0.20655028694E+007,  0.19000000000E+002,  0.00000000000E+000,  0.10000000000E+001
  0.17613948757E+008,  0.20654435191E+007,  0.19000000000E+002,  0.00000000000E+000,  0.10000000000E+001
  0.17614098757E+008,  0.20653851836E+007,  0.19000000000E+002,  0.00000000000E+000,  0.10000000000E+001
  0.17614248757E+008,  0.20653278454E+007,  0.19000000000E+002,  0.00000000000E+000,  0.10000000000E+001
  0.17614398757E+008,  0.20652714875E+007,  0.19000000000E+002,  0.00000000000E+000,  0.10000000000E+001
  0.17614548757E+008,  0.20652160931E+007,  0.19000000000E+002,  0.00000000000E+000,  0.10000000000E+001
  0.17614698757E+008,  0.20651616457E+007,  0.19000000000E+002,  0.00000000000E+000,  0.10000000000E+001
  0.17614848757E+008,  0.20651081290E+007,  0.19000000000E+002,  0.00000000000E+000,  0.10000000000E+001
  0.17614998757E+008,  0.20650555270E+007,  0.19000000000E+002,  0.00000000000E+000,  0.10000000000E+001
  0.17615148757E+008,  0.20650038242E+007,  0.19000000000E+002,  0.00000000000E+000,  0.10000000000E+001
  0.17615298757E+008,  0.20649530051E+007,  0.19000000000E+002,  0.00000000000E+000,  0.10000000000E+001
  0.17615448757E+008,  0.20649030545E+007,  0.19000000000E+002,  0.00000000000E+000,  0.10000000000E+001
  0.17615598757E+008,  0.20648539577E+007,  0.19000000000E+002,  0.00000000000E+000,  0.10000000000E+001
  0.17615748757E+008,  0.20648056998E+007,  0.19000000000E+002,  0.00000000000E+000,  0.10000000000E+001
  0.17615898757E+008,  0.20647582666E+007,  0.19000000000E+002,  0.00000000000E+000,  0.10000000000E+001
  0.17616048757E+008,  0.20647116440E+007,  0.19000000000E+002,  0.00000000000E+000,  0.10000000000E+001
  0.17616198757E+008,  0.20646658180E+007,  0.19000000000E+002,  0.00000000000E+000,  0.10000000000E+001
  0.17616348757E+008,  0.20646207749E+007,  0.19000000000E+002,  0.00000000000E+000,  0.10000000000E+001
  0.17616498757E+008,  0.20645765014E+007,  0.19000000000E+002,  0.00000000000E+000,  0.10000000000E+001
  0.17616648757E+008,  0.20645329843E+007,  0.19000000000E+002,  0.00000000000E+000,  0.10000000000E+001
  0.17616798757E+008,  0.20644902106E+007,  0.19000000000E+002,  0.00000000000E+000,  0.10000000000E+001
  0.17616948757E+008,  0.20644481675E+007,  0.19000000000E+002,  0.00000000000E+000,  0.10000000000E+001
  0.17617098757E+008,  0.20644068426E+007,  0.19000000000E+002,  0.00000000000E+000,  0.10000000000E+001
  0.17617248757E+008,  0.20643662235E+007,  0.19000000000E+002,  0.00000000000E+000,  0.10000000000E+001
  0.17617398757E+008,  0.20643262982E+007,  0.19000000000E+002,  0.00000000000E+000,  0.10000000000E+001
  0.17617548757E+008,  0.20642870546E+007,  0.19000000000E+002,  0.00000000000E+000,  0.10000000000E+001
  0.17617698757E+008,  0.20642484810E+007,  0.19000000000E+002,  0.00000000000E+000,  0.10000000000E+001
  0.17617848757E+008,  0.20642105662E+007,  0.19000000000E+002,  0.00000000000E+000,  0.10000000000E+001
  0.17617998757E+008,  0.20641732986E+007,  0.19000000000E+002,  0.00000000000E+000,  0.10000000000E+001
  0.17618148757E+008,  0.20641366673E+007,  0.19000000000E+002,  0.00000000000E+000,  0.10000000000E+001
  0.17618298757E+008,  0.20641006614E+007,  0.19000000000E+002,  0.00000000000E+000,  0.10000000000E+001
  0.17618448757E+008,  0.20640652700E+007,  0.19000000000E+002,  0.00000000000E+000,  0.10000000000E+001
  0.17618598757E+008,  0.20640304827E+007,  0.19000000000E+002,  0.00000000000E+000,  0.10000000000E+001
  0.17618748757E+008,  0.20639962890E+007,  0.19000000000E+002,  0.00000000000E+000,  0.10000000000E+001
  0.17618898757E+008,  0.20639626789E+007,  0.19000000000E+002,  0.00000000000E+000,  0.10000000000E+001
