"           TIME(S)","              PRES","              TEMP","             SAT_G","             SAT_L"
  0.17592105000E+008,  0.20999999994E+007,  0.19000000000E+002,  0.00000000000E+000,  0.10000000000E+001
  0.17592130000E+008,  0.20999923038E+007,  0.19000000000E+002,  0.00000000000E+000,  0.10000000000E+001
  0.17592255000E+008,  0.20990898979E+007,  0.19000000000E+002,  0.00000000000E+000,  0.10000000000E+001
  0.17592405000E+008,  0.20972665283E+007,  0.19000000000E+002,  0.00000000000E+000,  0.10000000000E+001
  0.17592555000E+008,  0.20953023192E+007,  0.19000000000E+002,  0.00000000000E+000,  0.10000000000E+001
  0.17592705000E+008,  0.20934889284E+007,  0.19000000000E+002,  0.00000000000E+000,  0.10000000000E+001
  0.17592855000E+008,  0.20919053727E+007,  0.19000000000E+002,  0.00000000000E+000,  0.10000000000E+001
  0.17593005000E+008,  0.20905397998E+007,  0.19000000000E+002,  0.00000000000E+000,  0.10000000000E+001
  0.17593155000E+008,  0.20893539311E+007,  0.19000000000E+002,  0.00000000000E+000,  0.10000000000E+001
  0.17593305000E+008,  0.20883084995E+007,  0.19000000000E+002,  0.00000000000E+000,  0.10000000000E+001
  0.17593455000E+008,  0.20873709058E+007,  0.19000000000E+002,  0.00000000000E+000,  0.10000000000E+001
  0.17593605000E+008,  0.20865161726E+007,  0.19000000000E+002,  0.00000000000E+000,  0.10000000000E+001
  0.17593755000E+008,  0.20857258230E+007,  0.19000000000E+002,  0.00000000000E+000,  0.10000000000E+001
  0.17593905000E+008,  0.20849863882E+007,  0.19000000000E+002,  0.00000000000E+000,  0.10000000000E+001
  0.17594055000E+008,  0.20842880855E+007,  0.19000000000E+002,  0.00000000000E+000,  0.10000000000E+001
  0.17594205000E+008,  0.20836237853E+007,  0.19000000000E+002,  0.00000000000E+000,  0.10000000000E+001
  0.17594355000E+008,  0.20829882483E+007,  0.19000000000E+002,  0.00000000000E+000,  0.10000000000E+001
  0.17594505000E+008,  0.20823775760E+007,  0.19000000000E+002,  0.00000000000E+000,  0.10000000000E+001
  0.17594655000E+008,  0.20817888231E+007,  0.19000000000E+002,  0.00000000000E+000,  0.10000000000E+001
  0.17594805000E+008,  0.20812197238E+007,  0.19000000000E+002,  0.00000000000E+000,  0.10000000000E+001
  0.17594955000E+008,  0.20806685008E+007,  0.19000000000E+002,  0.00000000000E+000,  0.10000000000E+001
  0.17595105000E+008,  0.20801337307E+007,  0.19000000000E+002,  0.00000000000E+000,  0.10000000000E+001
  0.17595255000E+008,  0.20796142503E+007,  0.19000000000E+002,  0.00000000000E+000,  0.10000000000E+001
  0.17595405000E+008,  0.20791090899E+007,  0.19000000000E+002,  0.00000000000E+000,  0.10000000000E+001
  0.17595555000E+008,  0.20786174396E+007,  0.19000000000E+002,  0.00000000000E+000,  0.10000000000E+001
  0.17595564375E+008,  0.20785867640E+007,  0.19000000000E+002,  0.00000000000E+000,  0.10000000000E+001
  0.17595611250E+008,  0.20784346768E+007,  0.19000000000E+002,  0.00000000000E+000,  0.10000000000E+001
  0.17595761250E+008,  0.20779605766E+007,  0.19000000000E+002,  0.00000000000E+000,  0.10000000000E+001
  0.17595836251E+008,  0.20777265928E+007,  0.19000000000E+002,  0.00000000000E+000,  0.10000000000E+001
  0.17595986251E+008,  0.20772703262E+007,  0.19000000000E+002,  0.00000000000E+000,  0.10000000000E+001
  0.17596061251E+008,  0.20770450460E+007,  0.19000000000E+002,  0.00000000000E+000,  0.10000000000E+001
  0.17596098752E+008,  0.20769331101E+007,  0.19000000000E+002,  0.00000000000E+000,  0.10000000000E+001
  0.17596248752E+008,  0.20764960816E+007,  0.19000000000E+002,  0.00000000000E+000,  0.10000000000E+001
  0.17596398752E+008,  0.20760692129E+007,  0.19000000000E+002,  0.00000000000E+000,  0.10000000000E+001
  0.17596473752E+008,  0.20758582504E+007,  0.19000000000E+002,  0.00000000000E+000,  0.10000000000E+001
  0.17596511253E+008,  0.20757533786E+007,  0.19000000000E+002,  0.00000000000E+000,  0.10000000000E+001
  0.17596661253E+008,  0.20753431383E+007,  0.19000000000E+002,  0.00000000000E+000,  0.10000000000E+001
  0.17596736253E+008,  0.20751402623E+007,  0.19000000000E+002,  0.00000000000E+000,  0.10000000000E+001
  0.17596773754E+008,  0.20750393767E+007,  0.19000000000E+002,  0.00000000000E+000,  0.10000000000E+001
  0.17596923754E+008,  0.20746441503E+007,  0.19000000000E+002,  0.00000000000E+000,  0.10000000000E+001
  0.17596998754E+008,  0.20744485456E+007,  0.19000000000E+002,  0.00000000000E+000,  0.10000000000E+001
  0.17597036254E+008,  0.20743512364E+007,  0.19000000000E+002,  0.00000000000E+000,  0.10000000000E+001
  0.17597055005E+008,  0.20743027037E+007,  0.19000000000E+002,  0.00000000000E+000,  0.10000000000E+001
  0.17597148757E+008,  0.20740629567E+007,  0.19000000000E+002,  0.00000000000E+000,  0.10000000000E+001
  0.17597298757E+008,  0.20736862641E+007,  0.19000000000E+002,  0.00000000000E+000,  0.10000000000E+001
  0.17597448757E+008,  0.20733159667E+007,  0.19000000000E+002,  0.00000000000E+000,  0.10000000000E+001
  0.17597598757E+008,  0.20729516509E+007,  0.19000000000E+002,  0.00000000000E+000,  0.10000000000E+001
  0.17597748757E+008,  0.20725929896E+007,  0.19000000000E+002,  0.00000000000E+000,  0.10000000000E+001
  0.17597898757E+008,  0.20722397338E+007,  0.19000000000E+002,  0.00000000000E+000,  0.10000000000E+001
  0.17598048757E+008,  0.20718916995E+007,  0.19000000000E+002,  0.00000000000E+000,  0.10000000000E+001
  0.17598198757E+008,  0.20715487542E+007,  0.19000000000E+002,  0.00000000000E+000,  0.10000000000E+001
  0.17598348757E+008,  0.20712108037E+007,  0.19000000000E+002,  0.00000000000E+000,  0.10000000000E+001
  0.17598498757E+008,  0.20708777807E+007,  0.19000000000E+002,  0.00000000000E+000,  0.10000000000E+001
  0.17598648757E+008,  0.20705496353E+007,  0.19000000000E+002,  0.00000000000E+000,  0.10000000000E+001
  0.17598798757E+008,  0.20702263287E+007,  0.19000000000E+002,  0.00000000000E+000,  0.10000000000E+001
  0.17598948757E+008,  0.20699078273E+007,  0.19000000000E+002,  0.00000000000E+000,  0.10000000000E+001
  0.17599098757E+008,  0.20695941001E+007,  0.19000000000E+002,  0.00000000000E+000,  0.10000000000E+001
  0.17599248757E+008,  0.20692851157E+007,  0.19000000000E+002,  0.00000000000E+000,  0.10000000000E+001
  0.17599398757E+008,  0.20689808412E+007,  0.19000000000E+002,  0.00000000000E+000,  0.10000000000E+001
  0.17599548757E+008,  0.20686812416E+007,  0.19000000000E+002,  0.00000000000E+000,  0.10000000000E+001
  0.17599698757E+008,  0.20683862790E+007,  0.19000000000E+002,  0.00000000000E+000,  0.10000000000E+001
  0.17599848757E+008,  0.20680959131E+007,  0.19000000000E+002,  0.00000000000E+000,  0.10000000000E+001
  0.17599998757E+008,  0.20678101007E+007,  0.19000000000E+002,  0.00000000000E+000,  0.10000000000E+001
  0.17600148757E+008,  0.20675287966E+007,  0.19000000000E+002,  0.00000000000E+000,  0.10000000000E+001
  0.17600298757E+008,  0.20672519533E+007,  0.19000000000E+002,  0.00000000000E+000,  0.10000000000E+001
  0.17600448757E+008,  0.20669795215E+007,  0.19000000000E+002,  0.00000000000E+000,  0.10000000000E+001
  0.17600598757E+008,  0.20667114506E+007,  0.19000000000E+002,  0.00000000000E+000,  0.10000000000E+001
  0.17600748757E+008,  0.20664476884E+007,  0.19000000000E+002,  0.00000000000E+000,  0.10000000000E+001
  0.17600898757E+008,  0.20661881821E+007,  0.19000000000E+002,  0.00000000000E+000,  0.10000000000E+001
  0.17601048757E+008,  0.20659328779E+007,  0.19000000000E+002,  0.00000000000E+000,  0.10000000000E+001
  0.17601198757E+008,  0.20656817214E+007,  0.19000000000E+002,  0.00000000000E+000,  0.10000000000E+001
  0.17601348757E+008,  0.20654346578E+007,  0.19000000000E+002,  0.00000000000E+000,  0.10000000000E+001
  0.17601498757E+008,  0.20651916319E+007,  0.19000000000E+002,  0.00000000000E+000,  0.10000000000E+001
  0.17601648757E+008,  0.20649525886E+007,  0.19000000000E+002,  0.00000000000E+000,  0.10000000000E+001
  0.17601798757E+008,  0.20647174725E+007,  0.19000000000E+002,  0.00000000000E+000,  0.10000000000E+001
  0.17601948757E+008,  0.20644862281E+007,  0.19000000000E+002,  0.00000000000E+000,  0.10000000000E+001
  0.17602098757E+008,  0.20642588002E+007,  0.19000000000E+002,  0.00000000000E+000,  0.10000000000E+001
  0.17602248757E+008,  0.20640351338E+007,  0.19000000000E+002,  0.00000000000E+000,  0.10000000000E+001
  0.17602398757E+008,  0.20638151738E+007,  0.19000000000E+002,  0.00000000000E+000,  0.10000000000E+001
  0.17602548757E+008,  0.20635988657E+007,  0.19000000000E+002,  0.00000000000E+000,  0.10000000000E+001
  0.17602698757E+008,  0.20633861552E+007,  0.19000000000E+002,  0.00000000000E+000,  0.10000000000E+001
  0.17602848757E+008,  0.20631769881E+007,  0.19000000000E+002,  0.00000000000E+000,  0.10000000000E+001
  0.17602998757E+008,  0.20629713109E+007,  0.19000000000E+002,  0.00000000000E+000,  0.10000000000E+001
  0.17603148757E+008,  0.20627690704E+007,  0.19000000000E+002,  0.00000000000E+000,  0.10000000000E+001
  0.17603298757E+008,  0.20625702138E+007,  0.19000000000E+002,  0.00000000000E+000,  0.10000000000E+001
  0.17603448757E+008,  0.20623746888E+007,  0.19000000000E+002,  0.00000000000E+000,  0.10000000000E+001
  0.17603598757E+008,  0.20621824436E+007,  0.19000000000E+002,  0.00000000000E+000,  0.10000000000E+001
  0.17603748757E+008,  0.20619934268E+007,  0.19000000000E+002,  0.00000000000E+000,  0.10000000000E+001
  0.17603898757E+008,  0.20618075876E+007,  0.19000000000E+002,  0.00000000000E+000,  0.10000000000E+001
  0.17604048757E+008,  0.20616248759E+007,  0.19000000000E+002,  0.00000000000E+000,  0.10000000000E+001
  0.17604198757E+008,  0.20614452418E+007,  0.19000000000E+002,  0.00000000000E+000,  0.10000000000E+001
  0.17604348757E+008,  0.20612686363E+007,  0.19000000000E+002,  0.00000000000E+000,  0.10000000000E+001
  0.17604498757E+008,  0.20610950107E+007,  0.19000000000E+002,  0.00000000000E+000,  0.10000000000E+001
  0.17604648757E+008,  0.20609243172E+007,  0.19000000000E+002,  0.00000000000E+000,  0.10000000000E+001
  0.17604798757E+008,  0.20607565083E+007,  0.19000000000E+002,  0.00000000000E+000,  0.10000000000E+001
  0.17604948757E+008,  0.20605915372E+007,  0.19000000000E+002,  0.00000000000E+000,  0.10000000000E+001
  0.17605098757E+008,  0.20604293579E+007,  0.19000000000E+002,  0.00000000000E+000,  0.10000000000E+001
  0.17605248757E+008,  0.20602699246E+007,  0.19000000000E+002,  0.00000000000E+000,  0.10000000000E+001
  0.17605398757E+008,  0.20601131925E+007,  0.19000000000E+002,  0.00000000000E+000,  0.10000000000E+001
  0.17605548757E+008,  0.20599591173E+007,  0.19000000000E+002,  0.00000000000E+000,  0.10000000000E+001
  0.17605698757E+008,  0.20598076552E+007,  0.19000000000E+002,  0.00000000000E+000,  0.10000000000E+001
  0.17605848757E+008,  0.20596587632E+007,  0.19000000000E+002,  0.00000000000E+000,  0.10000000000E+001
  0.17605998757E+008,  0.20595123987E+007,  0.19000000000E+002,  0.00000000000E+000,  0.10000000000E+001
  0.17606148757E+008,  0.20593685199E+007,  0.19000000000E+002,  0.00000000000E+000,  0.10000000000E+001
  0.17606298757E+008,  0.20592270855E+007,  0.19000000000E+002,  0.00000000000E+000,  0.10000000000E+001
  0.17606448757E+008,  0.20590880549E+007,  0.19000000000E+002,  0.00000000000E+000,  0.10000000000E+001
  0.17606598757E+008,  0.20589513882E+007,  0.19000000000E+002,  0.00000000000E+000,  0.10000000000E+001
  0.17606748757E+008,  0.20588170457E+007,  0.19000000000E+002,  0.00000000000E+000,  0.10000000000E+001
  0.17606898757E+008,  0.20586849888E+007,  0.19000000000E+002,  0.00000000000E+000,  0.10000000000E+001
  0.17607048757E+008,  0.20585551792E+007,  0.19000000000E+002,  0.00000000000E+000,  0.10000000000E+001
  0.17607198757E+008,  0.20584275792E+007,  0.19000000000E+002,  0.00000000000E+000,  0.10000000000E+001
  0.17607348757E+008,  0.20583021519E+007,  0.19000000000E+002,  0.00000000000E+000,  0.10000000000E+001
  0.17607498757E+008,  0.20581788606E+007,  0.19000000000E+002,  0.00000000000E+000,  0.10000000000E+001
  0.17607648757E+008,  0.20580576696E+007,  0.19000000000E+002,  0.00000000000E+000,  0.10000000000E+001
  0.17607798757E+008,  0.20579385435E+007,  0.19000000000E+002,  0.00000000000E+000,  0.10000000000E+001
  0.17607948757E+008,  0.20578214474E+007,  0.19000000000E+002,  0.00000000000E+000,  0.10000000000E+001
  0.17608098757E+008,  0.20577063473E+007,  0.19000000000E+002,  0.00000000000E+000,  0.10000000000E+001
  0.17608248757E+008,  0.20575932094E+007,  0.19000000000E+002,  0.00000000000E+000,  0.10000000000E+001
  0.17608398757E+008,  0.20574820007E+007,  0.19000000000E+002,  0.00000000000E+000,  0.10000000000E+001
  0.17608548757E+008,  0.20573726884E+007,  0.19000000000E+002,  0.00000000000E+000,  0.10000000000E+001
  0.17608698757E+008,  0.20572652406E+007,  0.19000000000E+002,  0.00000000000E+000,  0.10000000000E+001
  0.17608848757E+008,  0.20571596257E+007,  0.19000000000E+002,  0.00000000000E+000,  0.10000000000E+001
  0.17608998757E+008,  0.20570558128E+007,  0.19000000000E+002,  0.00000000000E+000,  0.10000000000E+001
  0.17609148757E+008,  0.20569537711E+007,  0.19000000000E+002,  0.00000000000E+000,  0.10000000000E+001
  0.17609298757E+008,  0.20568534709E+007,  0.19000000000E+002,  0.00000000000E+000,  0.10000000000E+001
  0.17609448757E+008,  0.20567548825E+007,  0.19000000000E+002,  0.00000000000E+000,  0.10000000000E+001
  0.17609598757E+008,  0.20566579769E+007,  0.19000000000E+002,  0.00000000000E+000,  0.10000000000E+001
  0.17609748757E+008,  0.20565627255E+007,  0.19000000000E+002,  0.00000000000E+000,  0.10000000000E+001
  0.17609898757E+008,  0.20564691003E+007,  0.19000000000E+002,  0.00000000000E+000,  0.10000000000E+001
  0.17610048757E+008,  0.20563770736E+007,  0.19000000000E+002,  0.00000000000E+000,  0.10000000000E+001
  0.17610198757E+008,  0.20562866184E+007,  0.19000000000E+002,  0.00000000000E+000,  0.10000000000E+001
  0.17610348757E+008,  0.20561977077E+007,  0.19000000000E+002,  0.00000000000E+000,  0.10000000000E+001
  0.17610498757E+008,  0.20561103155E+007,  0.19000000000E+002,  0.00000000000E+000,  0.10000000000E+001
  0.17610648757E+008,  0.20560244159E+007,  0.19000000000E+002,  0.00000000000E+000,  0.10000000000E+001
  0.17610798757E+008,  0.20559399834E+007,  0.19000000000E+002,  0.00000000000E+000,  0.10000000000E+001
  0.17610948757E+008,  0.20558569932E+007,  0.19000000000E+002,  0.00000000000E+000,  0.10000000000E+001
  0.17611098757E+008,  0.20557754206E+007,  0.19000000000E+002,  0.00000000000E+000,  0.10000000000E+001
  0.17611248757E+008,  0.20556952415E+007,  0.19000000000E+002,  0.00000000000E+000,  0.10000000000E+001
  0.17611398757E+008,  0.20556164322E+007,  0.19000000000E+002,  0.00000000000E+000,  0.10000000000E+001
  0.17611548757E+008,  0.20555389694E+007,  0.19000000000E+002,  0.00000000000E+000,  0.10000000000E+001
  0.17611698757E+008,  0.20554628300E+007,  0.19000000000E+002,  0.00000000000E+000,  0.10000000000E+001
  0.17611848757E+008,  0.20553879916E+007,  0.19000000000E+002,  0.00000000000E+000,  0.10000000000E+001
  0.17611998757E+008,  0.20553144319E+007,  0.19000000000E+002,  0.00000000000E+000,  0.10000000000E+001
  0.17612148757E+008,  0.20552421292E+007,  0.19000000000E+002,  0.00000000000E+000,  0.10000000000E+001
  0.17612298757E+008,  0.20551710620E+007,  0.19000000000E+002,  0.00000000000E+000,  0.10000000000E+001
  0.17612448757E+008,  0.20551012092E+007,  0.19000000000E+002,  0.00000000000E+000,  0.10000000000E+001
  0.17612598757E+008,  0.20550325501E+007,  0.19000000000E+002,  0.00000000000E+000,  0.10000000000E+001
  0.17612748757E+008,  0.20549650644E+007,  0.19000000000E+002,  0.00000000000E+000,  0.10000000000E+001
  0.17612898757E+008,  0.20548987320E+007,  0.19000000000E+002,  0.00000000000E+000,  0.10000000000E+001
  0.17613048757E+008,  0.20548335331E+007,  0.19000000000E+002,  0.00000000000E+000,  0.10000000000E+001
  0.17613198757E+008,  0.20547694486E+007,  0.19000000000E+002,  0.00000000000E+000,  0.10000000000E+001
  0.17613348757E+008,  0.20547064593E+007,  0.19000000000E+002,  0.00000000000E+000,  0.10000000000E+001
  0.17613498757E+008,  0.20546445465E+007,  0.19000000000E+002,  0.00000000000E+000,  0.10000000000E+001
  0.17613648757E+008,  0.20545836918E+007,  0.19000000000E+002,  0.00000000000E+000,  0.10000000000E+001
  0.17613798757E+008,  0.20545238773E+007,  0.19000000000E+002,  0.00000000000E+000,  0.10000000000E+001
  0.17613948757E+008,  0.20544650850E+007,  0.19000000000E+002,  0.00000000000E+000,  0.10000000000E+001
  0.17614098757E+008,  0.20544072975E+007,  0.19000000000E+002,  0.00000000000E+000,  0.10000000000E+001
  0.17614248757E+008,  0.20543504976E+007,  0.19000000000E+002,  0.00000000000E+000,  0.10000000000E+001
  0.17614398757E+008,  0.20542946686E+007,  0.19000000000E+002,  0.00000000000E+000,  0.10000000000E+001
  0.17614548757E+008,  0.20542397936E+007,  0.19000000000E+002,  0.00000000000E+000,  0.10000000000E+001
  0.17614698757E+008,  0.20541858566E+007,  0.19000000000E+002,  0.00000000000E+000,  0.10000000000E+001
  0.17614848757E+008,  0.20541328413E+007,  0.19000000000E+002,  0.00000000000E+000,  0.10000000000E+001
  0.17614998757E+008,  0.20540807322E+007,  0.19000000000E+002,  0.00000000000E+000,  0.10000000000E+001
  0.17615148757E+008,  0.20540295135E+007,  0.19000000000E+002,  0.00000000000E+000,  0.10000000000E+001
  0.17615298757E+008,  0.20539791702E+007,  0.19000000000E+002,  0.00000000000E+000,  0.10000000000E+001
  0.17615448757E+008,  0.20539296873E+007,  0.19000000000E+002,  0.00000000000E+000,  0.10000000000E+001
  0.17615598757E+008,  0.20538810499E+007,  0.19000000000E+002,  0.00000000000E+000,  0.10000000000E+001
  0.17615748757E+008,  0.20538332438E+007,  0.19000000000E+002,  0.00000000000E+000,  0.10000000000E+001
  0.17615898757E+008,  0.20537862546E+007,  0.19000000000E+002,  0.00000000000E+000,  0.10000000000E+001
  0.17616048757E+008,  0.20537400683E+007,  0.19000000000E+002,  0.00000000000E+000,  0.10000000000E+001
  0.17616198757E+008,  0.20536946713E+007,  0.19000000000E+002,  0.00000000000E+000,  0.10000000000E+001
  0.17616348757E+008,  0.20536500499E+007,  0.19000000000E+002,  0.00000000000E+000,  0.10000000000E+001
  0.17616498757E+008,  0.20536061911E+007,  0.19000000000E+002,  0.00000000000E+000,  0.10000000000E+001
  0.17616648757E+008,  0.20535630816E+007,  0.19000000000E+002,  0.00000000000E+000,  0.10000000000E+001
  0.17616798757E+008,  0.20535207086E+007,  0.19000000000E+002,  0.00000000000E+000,  0.10000000000E+001
  0.17616948757E+008,  0.20534790596E+007,  0.19000000000E+002,  0.00000000000E+000,  0.10000000000E+001
  0.17617098757E+008,  0.20534381224E+007,  0.19000000000E+002,  0.00000000000E+000,  0.10000000000E+001
  0.17617248757E+008,  0.20533978843E+007,  0.19000000000E+002,  0.00000000000E+000,  0.10000000000E+001
  0.17617398757E+008,  0.20533583339E+007,  0.19000000000E+002,  0.00000000000E+000,  0.10000000000E+001
  0.17617548757E+008,  0.20533194587E+007,  0.19000000000E+002,  0.00000000000E+000,  0.10000000000E+001
  0.17617698757E+008,  0.20532812479E+007,  0.19000000000E+002,  0.00000000000E+000,  0.10000000000E+001
  0.17617848757E+008,  0.20532436894E+007,  0.19000000000E+002,  0.00000000000E+000,  0.10000000000E+001
  0.17617998757E+008,  0.20532067727E+007,  0.19000000000E+002,  0.00000000000E+000,  0.10000000000E+001
  0.17618148757E+008,  0.20531704862E+007,  0.19000000000E+002,  0.00000000000E+000,  0.10000000000E+001
  0.17618298757E+008,  0.20531348198E+007,  0.19000000000E+002,  0.00000000000E+000,  0.10000000000E+001
  0.17618448757E+008,  0.20530997621E+007,  0.19000000000E+002,  0.00000000000E+000,  0.10000000000E+001
  0.17618598757E+008,  0.20530653034E+007,  0.19000000000E+002,  0.00000000000E+000,  0.10000000000E+001
  0.17618748757E+008,  0.20530314327E+007,  0.19000000000E+002,  0.00000000000E+000,  0.10000000000E+001
  0.17618898757E+008,  0.20529981407E+007,  0.19000000000E+002,  0.00000000000E+000,  0.10000000000E+001
