"           TIME(S)","              PRES","              TEMP","             SAT_G","             SAT_L"
  0.18228740000E+008,  0.20000583944E+007,  0.19000000000E+002,  0.10000000000E+001,  0.00000000000E+000
  0.18228890000E+008,  0.20001268089E+007,  0.19000000000E+002,  0.10000000000E+001,  0.00000000000E+000
  0.18229040000E+008,  0.20001573508E+007,  0.19000000000E+002,  0.10000000000E+001,  0.00000000000E+000
  0.18229190000E+008,  0.20001757098E+007,  0.19000000000E+002,  0.10000000000E+001,  0.00000000000E+000
  0.18229340000E+008,  0.20001891605E+007,  0.19000000000E+002,  0.10000000000E+001,  0.00000000000E+000
  0.18229490000E+008,  0.20002002808E+007,  0.19000000000E+002,  0.10000000000E+001,  0.00000000000E+000
  0.18229640000E+008,  0.20002101745E+007,  0.19000000000E+002,  0.10000000000E+001,  0.00000000000E+000
  0.18229790000E+008,  0.20002193818E+007,  0.19000000000E+002,  0.10000000000E+001,  0.00000000000E+000
  0.18229940000E+008,  0.20002281902E+007,  0.19000000000E+002,  0.10000000000E+001,  0.00000000000E+000
  0.18230090000E+008,  0.20002367606E+007,  0.19000000000E+002,  0.10000000000E+001,  0.00000000000E+000
  0.18230240000E+008,  0.20002451857E+007,  0.19000000000E+002,  0.10000000000E+001,  0.00000000000E+000
  0.18230390000E+008,  0.20002535199E+007,  0.19000000000E+002,  0.10000000000E+001,  0.00000000000E+000
  0.18230540000E+008,  0.20002617959E+007,  0.19000000000E+002,  0.10000000000E+001,  0.00000000000E+000
  0.18230690000E+008,  0.20002700332E+007,  0.19000000000E+002,  0.10000000000E+001,  0.00000000000E+000
  0.18230840000E+008,  0.20002782437E+007,  0.19000000000E+002,  0.10000000000E+001,  0.00000000000E+000
  0.18230990000E+008,  0.20002864351E+007,  0.19000000000E+002,  0.10000000000E+001,  0.00000000000E+000
  0.18231140000E+008,  0.20002946119E+007,  0.19000000000E+002,  0.10000000000E+001,  0.00000000000E+000
  0.18231290000E+008,  0.20003027772E+007,  0.19000000000E+002,  0.10000000000E+001,  0.00000000000E+000
  0.18231440000E+008,  0.20003109331E+007,  0.19000000000E+002,  0.10000000000E+001,  0.00000000000E+000
  0.18231590000E+008,  0.20003190809E+007,  0.19000000000E+002,  0.10000000000E+001,  0.00000000000E+000
  0.18231740000E+008,  0.20003272217E+007,  0.19000000000E+002,  0.10000000000E+001,  0.00000000000E+000
  0.18231890000E+008,  0.20003353561E+007,  0.19000000000E+002,  0.10000000000E+001,  0.00000000000E+000
  0.18232040000E+008,  0.20003434848E+007,  0.19000000000E+002,  0.10000000000E+001,  0.00000000000E+000
  0.18232190000E+008,  0.20003516082E+007,  0.19000000000E+002,  0.10000000000E+001,  0.00000000000E+000
  0.18232340000E+008,  0.20003597267E+007,  0.19000000000E+002,  0.10000000000E+001,  0.00000000000E+000
  0.18232490000E+008,  0.20003678405E+007,  0.19000000000E+002,  0.10000000000E+001,  0.00000000000E+000
  0.18232640000E+008,  0.20003759498E+007,  0.19000000000E+002,  0.10000000000E+001,  0.00000000000E+000
  0.18232790000E+008,  0.20003840550E+007,  0.19000000000E+002,  0.10000000000E+001,  0.00000000000E+000
  0.18232940000E+008,  0.20003921561E+007,  0.19000000000E+002,  0.10000000000E+001,  0.00000000000E+000
  0.18233090000E+008,  0.20004002534E+007,  0.19000000000E+002,  0.10000000000E+001,  0.00000000000E+000
  0.18233240000E+008,  0.20004083468E+007,  0.19000000000E+002,  0.10000000000E+001,  0.00000000000E+000
  0.18233390000E+008,  0.20004164367E+007,  0.19000000000E+002,  0.10000000000E+001,  0.00000000000E+000
  0.18233540000E+008,  0.20004245229E+007,  0.19000000000E+002,  0.10000000000E+001,  0.00000000000E+000
  0.18233690000E+008,  0.20004326057E+007,  0.19000000000E+002,  0.10000000000E+001,  0.00000000000E+000
  0.18233840000E+008,  0.20004406849E+007,  0.19000000000E+002,  0.10000000000E+001,  0.00000000000E+000
  0.18233990000E+008,  0.20004487608E+007,  0.19000000000E+002,  0.10000000000E+001,  0.00000000000E+000
  0.18234140000E+008,  0.20004568332E+007,  0.19000000000E+002,  0.10000000000E+001,  0.00000000000E+000
  0.18234290000E+008,  0.20004649021E+007,  0.19000000000E+002,  0.10000000000E+001,  0.00000000000E+000
  0.18234440000E+008,  0.20004729677E+007,  0.19000000000E+002,  0.10000000000E+001,  0.00000000000E+000
  0.18234590000E+008,  0.20004810300E+007,  0.19000000000E+002,  0.10000000000E+001,  0.00000000000E+000
  0.18234740000E+008,  0.20004890889E+007,  0.19000000000E+002,  0.10000000000E+001,  0.00000000000E+000
  0.18234890000E+008,  0.20004971446E+007,  0.19000000000E+002,  0.10000000000E+001,  0.00000000000E+000
  0.18235040000E+008,  0.20005051971E+007,  0.19000000000E+002,  0.10000000000E+001,  0.00000000000E+000
  0.18235190000E+008,  0.20005132463E+007,  0.19000000000E+002,  0.10000000000E+001,  0.00000000000E+000
  0.18235340000E+008,  0.20005212924E+007,  0.19000000000E+002,  0.10000000000E+001,  0.00000000000E+000
  0.18235490000E+008,  0.20005293353E+007,  0.19000000000E+002,  0.10000000000E+001,  0.00000000000E+000
  0.18235640000E+008,  0.20005374589E+007,  0.19000000000E+002,  0.10000000000E+001,  0.00000000000E+000
  0.18235715000E+008,  0.20005415314E+007,  0.19000000000E+002,  0.10000000000E+001,  0.00000000000E+000
  0.18235865000E+008,  0.20005496014E+007,  0.19000000000E+002,  0.10000000000E+001,  0.00000000000E+000
  0.18236015000E+008,  0.20005576488E+007,  0.19000000000E+002,  0.10000000000E+001,  0.00000000000E+000
  0.18236165000E+008,  0.20005656876E+007,  0.19000000000E+002,  0.10000000000E+001,  0.00000000000E+000
  0.18236315000E+008,  0.20005737215E+007,  0.19000000000E+002,  0.10000000000E+001,  0.00000000000E+000
  0.18236465000E+008,  0.20005817516E+007,  0.19000000000E+002,  0.10000000000E+001,  0.00000000000E+000
  0.18236615000E+008,  0.20005897781E+007,  0.19000000000E+002,  0.10000000000E+001,  0.00000000000E+000
  0.18236765000E+008,  0.20005978013E+007,  0.19000000000E+002,  0.10000000000E+001,  0.00000000000E+000
  0.18236915000E+008,  0.20006058212E+007,  0.19000000000E+002,  0.10000000000E+001,  0.00000000000E+000
  0.18237065000E+008,  0.20006138380E+007,  0.19000000000E+002,  0.10000000000E+001,  0.00000000000E+000
  0.18237215000E+008,  0.20006218515E+007,  0.19000000000E+002,  0.10000000000E+001,  0.00000000000E+000
  0.18237365000E+008,  0.20006298619E+007,  0.19000000000E+002,  0.10000000000E+001,  0.00000000000E+000
  0.18237515000E+008,  0.20006378692E+007,  0.19000000000E+002,  0.10000000000E+001,  0.00000000000E+000
  0.18237665000E+008,  0.20006458733E+007,  0.19000000000E+002,  0.10000000000E+001,  0.00000000000E+000
  0.18237815000E+008,  0.20006538743E+007,  0.19000000000E+002,  0.10000000000E+001,  0.00000000000E+000
  0.18237965000E+008,  0.20006618722E+007,  0.19000000000E+002,  0.10000000000E+001,  0.00000000000E+000
  0.18238115000E+008,  0.20006698670E+007,  0.19000000000E+002,  0.10000000000E+001,  0.00000000000E+000
  0.18238265000E+008,  0.20006778587E+007,  0.19000000000E+002,  0.10000000000E+001,  0.00000000000E+000
  0.18238415000E+008,  0.20006858472E+007,  0.19000000000E+002,  0.10000000000E+001,  0.00000000000E+000
  0.18238565000E+008,  0.20006938326E+007,  0.19000000000E+002,  0.10000000000E+001,  0.00000000000E+000
  0.18238715000E+008,  0.20007018150E+007,  0.19000000000E+002,  0.10000000000E+001,  0.00000000000E+000
  0.18238865000E+008,  0.20007097942E+007,  0.19000000000E+002,  0.10000000000E+001,  0.00000000000E+000
  0.18239015000E+008,  0.20007177702E+007,  0.19000000000E+002,  0.10000000000E+001,  0.00000000000E+000
  0.18239165000E+008,  0.20007257432E+007,  0.19000000000E+002,  0.10000000000E+001,  0.00000000000E+000
  0.18239315000E+008,  0.20007337129E+007,  0.19000000000E+002,  0.10000000000E+001,  0.00000000000E+000
  0.18239465000E+008,  0.20007416796E+007,  0.19000000000E+002,  0.10000000000E+001,  0.00000000000E+000
  0.18239615000E+008,  0.20007496431E+007,  0.19000000000E+002,  0.10000000000E+001,  0.00000000000E+000
  0.18239765000E+008,  0.20007576034E+007,  0.19000000000E+002,  0.10000000000E+001,  0.00000000000E+000
  0.18239915000E+008,  0.20007655607E+007,  0.19000000000E+002,  0.10000000000E+001,  0.00000000000E+000
  0.18240065000E+008,  0.20007735148E+007,  0.19000000000E+002,  0.10000000000E+001,  0.00000000000E+000
  0.18240215000E+008,  0.20007814657E+007,  0.19000000000E+002,  0.10000000000E+001,  0.00000000000E+000
  0.18240365000E+008,  0.20007894135E+007,  0.19000000000E+002,  0.10000000000E+001,  0.00000000000E+000
  0.18240515000E+008,  0.20007973581E+007,  0.19000000000E+002,  0.10000000000E+001,  0.00000000000E+000
  0.18240665000E+008,  0.20008052996E+007,  0.19000000000E+002,  0.10000000000E+001,  0.00000000000E+000
  0.18240815000E+008,  0.20008132379E+007,  0.19000000000E+002,  0.10000000000E+001,  0.00000000000E+000
  0.18240965000E+008,  0.20008211730E+007,  0.19000000000E+002,  0.10000000000E+001,  0.00000000000E+000
  0.18241115000E+008,  0.20008291048E+007,  0.19000000000E+002,  0.10000000000E+001,  0.00000000000E+000
  0.18241265000E+008,  0.20008370334E+007,  0.19000000000E+002,  0.10000000000E+001,  0.00000000000E+000
  0.18241415000E+008,  0.20008449588E+007,  0.19000000000E+002,  0.10000000000E+001,  0.00000000000E+000
  0.18241565000E+008,  0.20008528809E+007,  0.19000000000E+002,  0.10000000000E+001,  0.00000000000E+000
  0.18241715000E+008,  0.20008607997E+007,  0.19000000000E+002,  0.10000000000E+001,  0.00000000000E+000
  0.18241865000E+008,  0.20008687153E+007,  0.19000000000E+002,  0.10000000000E+001,  0.00000000000E+000
  0.18242015000E+008,  0.20008766276E+007,  0.19000000000E+002,  0.10000000000E+001,  0.00000000000E+000
  0.18242165000E+008,  0.20008845366E+007,  0.19000000000E+002,  0.10000000000E+001,  0.00000000000E+000
  0.18242315000E+008,  0.20008924424E+007,  0.19000000000E+002,  0.10000000000E+001,  0.00000000000E+000
  0.18242465000E+008,  0.20009003450E+007,  0.19000000000E+002,  0.10000000000E+001,  0.00000000000E+000
  0.18242615000E+008,  0.20009082442E+007,  0.19000000000E+002,  0.10000000000E+001,  0.00000000000E+000
  0.18242765000E+008,  0.20009161402E+007,  0.19000000000E+002,  0.10000000000E+001,  0.00000000000E+000
  0.18242915000E+008,  0.20009240330E+007,  0.19000000000E+002,  0.10000000000E+001,  0.00000000000E+000
  0.18243065000E+008,  0.20009319224E+007,  0.19000000000E+002,  0.10000000000E+001,  0.00000000000E+000
  0.18243215000E+008,  0.20009398086E+007,  0.19000000000E+002,  0.10000000000E+001,  0.00000000000E+000
  0.18243365000E+008,  0.20009476915E+007,  0.19000000000E+002,  0.10000000000E+001,  0.00000000000E+000
  0.18243515000E+008,  0.20009555711E+007,  0.19000000000E+002,  0.10000000000E+001,  0.00000000000E+000
  0.18243665000E+008,  0.20009634474E+007,  0.19000000000E+002,  0.10000000000E+001,  0.00000000000E+000
  0.18243815000E+008,  0.20009713203E+007,  0.19000000000E+002,  0.10000000000E+001,  0.00000000000E+000
  0.18243965000E+008,  0.20009791899E+007,  0.19000000000E+002,  0.10000000000E+001,  0.00000000000E+000
  0.18244115000E+008,  0.20009870561E+007,  0.19000000000E+002,  0.10000000000E+001,  0.00000000000E+000
  0.18244265000E+008,  0.20009949189E+007,  0.19000000000E+002,  0.10000000000E+001,  0.00000000000E+000
  0.18244415000E+008,  0.20010027783E+007,  0.19000000000E+002,  0.10000000000E+001,  0.00000000000E+000
  0.18244565000E+008,  0.20010106343E+007,  0.19000000000E+002,  0.10000000000E+001,  0.00000000000E+000
  0.18244715000E+008,  0.20010184869E+007,  0.19000000000E+002,  0.10000000000E+001,  0.00000000000E+000
  0.18244865000E+008,  0.20010263360E+007,  0.19000000000E+002,  0.10000000000E+001,  0.00000000000E+000
  0.18245015000E+008,  0.20010341817E+007,  0.19000000000E+002,  0.10000000000E+001,  0.00000000000E+000
  0.18245165000E+008,  0.20010420240E+007,  0.19000000000E+002,  0.10000000000E+001,  0.00000000000E+000
  0.18245315000E+008,  0.20010498627E+007,  0.19000000000E+002,  0.10000000000E+001,  0.00000000000E+000
  0.18245465000E+008,  0.20010576979E+007,  0.19000000000E+002,  0.10000000000E+001,  0.00000000000E+000
  0.18245615000E+008,  0.20010655296E+007,  0.19000000000E+002,  0.10000000000E+001,  0.00000000000E+000
  0.18245765000E+008,  0.20010733578E+007,  0.19000000000E+002,  0.10000000000E+001,  0.00000000000E+000
  0.18245915000E+008,  0.20010811824E+007,  0.19000000000E+002,  0.10000000000E+001,  0.00000000000E+000
  0.18246065000E+008,  0.20010890034E+007,  0.19000000000E+002,  0.10000000000E+001,  0.00000000000E+000
  0.18246215000E+008,  0.20010968209E+007,  0.19000000000E+002,  0.10000000000E+001,  0.00000000000E+000
  0.18246365000E+008,  0.20011046347E+007,  0.19000000000E+002,  0.10000000000E+001,  0.00000000000E+000
  0.18246515000E+008,  0.20011124448E+007,  0.19000000000E+002,  0.10000000000E+001,  0.00000000000E+000
  0.18246665000E+008,  0.20011202512E+007,  0.19000000000E+002,  0.10000000000E+001,  0.00000000000E+000
  0.18246815000E+008,  0.20011280540E+007,  0.19000000000E+002,  0.10000000000E+001,  0.00000000000E+000
  0.18246965000E+008,  0.20011358529E+007,  0.19000000000E+002,  0.10000000000E+001,  0.00000000000E+000
  0.18247115000E+008,  0.20011436481E+007,  0.19000000000E+002,  0.10000000000E+001,  0.00000000000E+000
  0.18247265000E+008,  0.20011514396E+007,  0.19000000000E+002,  0.10000000000E+001,  0.00000000000E+000
  0.18247415000E+008,  0.20011592272E+007,  0.19000000000E+002,  0.10000000000E+001,  0.00000000000E+000
  0.18247565000E+008,  0.20011670110E+007,  0.19000000000E+002,  0.10000000000E+001,  0.00000000000E+000
  0.18247715000E+008,  0.20011747910E+007,  0.19000000000E+002,  0.10000000000E+001,  0.00000000000E+000
  0.18247865000E+008,  0.20011825673E+007,  0.19000000000E+002,  0.10000000000E+001,  0.00000000000E+000
  0.18248015000E+008,  0.20011903397E+007,  0.19000000000E+002,  0.10000000000E+001,  0.00000000000E+000
  0.18248165000E+008,  0.20011981083E+007,  0.19000000000E+002,  0.10000000000E+001,  0.00000000000E+000
  0.18248315000E+008,  0.20012058731E+007,  0.19000000000E+002,  0.10000000000E+001,  0.00000000000E+000
  0.18248465000E+008,  0.20012136341E+007,  0.19000000000E+002,  0.10000000000E+001,  0.00000000000E+000
  0.18248615000E+008,  0.20012213912E+007,  0.19000000000E+002,  0.10000000000E+001,  0.00000000000E+000
  0.18248765000E+008,  0.20012291445E+007,  0.19000000000E+002,  0.10000000000E+001,  0.00000000000E+000
  0.18248915000E+008,  0.20012368940E+007,  0.19000000000E+002,  0.10000000000E+001,  0.00000000000E+000
  0.18249065000E+008,  0.20012446396E+007,  0.19000000000E+002,  0.10000000000E+001,  0.00000000000E+000
  0.18249215000E+008,  0.20012523813E+007,  0.19000000000E+002,  0.10000000000E+001,  0.00000000000E+000
  0.18249365000E+008,  0.20012601192E+007,  0.19000000000E+002,  0.10000000000E+001,  0.00000000000E+000
  0.18249515000E+008,  0.20012678531E+007,  0.19000000000E+002,  0.10000000000E+001,  0.00000000000E+000
  0.18249665000E+008,  0.20012755832E+007,  0.19000000000E+002,  0.10000000000E+001,  0.00000000000E+000
  0.18249815000E+008,  0.20012833094E+007,  0.19000000000E+002,  0.10000000000E+001,  0.00000000000E+000
  0.18249965000E+008,  0.20012910317E+007,  0.19000000000E+002,  0.10000000000E+001,  0.00000000000E+000
  0.18250115000E+008,  0.20012987501E+007,  0.19000000000E+002,  0.10000000000E+001,  0.00000000000E+000
  0.18250265000E+008,  0.20013064646E+007,  0.19000000000E+002,  0.10000000000E+001,  0.00000000000E+000
  0.18250415000E+008,  0.20013141752E+007,  0.19000000000E+002,  0.10000000000E+001,  0.00000000000E+000
  0.18250565000E+008,  0.20013219071E+007,  0.19000000000E+002,  0.10000000000E+001,  0.00000000000E+000
  0.18250640001E+008,  0.20013257723E+007,  0.19000000000E+002,  0.10000000000E+001,  0.00000000000E+000
  0.18250790001E+008,  0.20013334887E+007,  0.19000000000E+002,  0.10000000000E+001,  0.00000000000E+000
  0.18250940001E+008,  0.20013412114E+007,  0.19000000000E+002,  0.10000000000E+001,  0.00000000000E+000
  0.18251015001E+008,  0.20013450736E+007,  0.19000000000E+002,  0.10000000000E+001,  0.00000000000E+000
  0.18251165001E+008,  0.20013527845E+007,  0.19000000000E+002,  0.10000000000E+001,  0.00000000000E+000
  0.18251315001E+008,  0.20013604856E+007,  0.19000000000E+002,  0.10000000000E+001,  0.00000000000E+000
  0.18251465001E+008,  0.20013681799E+007,  0.19000000000E+002,  0.10000000000E+001,  0.00000000000E+000
  0.18251615001E+008,  0.20013758692E+007,  0.19000000000E+002,  0.10000000000E+001,  0.00000000000E+000
  0.18251765001E+008,  0.20013835581E+007,  0.19000000000E+002,  0.10000000000E+001,  0.00000000000E+000
  0.18251840002E+008,  0.20013874163E+007,  0.19000000000E+002,  0.10000000000E+001,  0.00000000000E+000
  0.18251990002E+008,  0.20013951190E+007,  0.19000000000E+002,  0.10000000000E+001,  0.00000000000E+000
  0.18252140002E+008,  0.20014028090E+007,  0.19000000000E+002,  0.10000000000E+001,  0.00000000000E+000
  0.18252290002E+008,  0.20014104902E+007,  0.19000000000E+002,  0.10000000000E+001,  0.00000000000E+000
  0.18252440002E+008,  0.20014181651E+007,  0.19000000000E+002,  0.10000000000E+001,  0.00000000000E+000
  0.18252590002E+008,  0.20014258349E+007,  0.19000000000E+002,  0.10000000000E+001,  0.00000000000E+000
  0.18252740002E+008,  0.20014335004E+007,  0.19000000000E+002,  0.10000000000E+001,  0.00000000000E+000
  0.18252890002E+008,  0.20014411618E+007,  0.19000000000E+002,  0.10000000000E+001,  0.00000000000E+000
  0.18253040002E+008,  0.20014488193E+007,  0.19000000000E+002,  0.10000000000E+001,  0.00000000000E+000
  0.18253190002E+008,  0.20014564728E+007,  0.19000000000E+002,  0.10000000000E+001,  0.00000000000E+000
  0.18253340002E+008,  0.20014641224E+007,  0.19000000000E+002,  0.10000000000E+001,  0.00000000000E+000
  0.18253490002E+008,  0.20014717681E+007,  0.19000000000E+002,  0.10000000000E+001,  0.00000000000E+000
  0.18253640002E+008,  0.20014794099E+007,  0.19000000000E+002,  0.10000000000E+001,  0.00000000000E+000
  0.18253790002E+008,  0.20014870478E+007,  0.19000000000E+002,  0.10000000000E+001,  0.00000000000E+000
  0.18253940002E+008,  0.20014946817E+007,  0.19000000000E+002,  0.10000000000E+001,  0.00000000000E+000
  0.18254090002E+008,  0.20015023118E+007,  0.19000000000E+002,  0.10000000000E+001,  0.00000000000E+000
  0.18254240002E+008,  0.20015099379E+007,  0.19000000000E+002,  0.10000000000E+001,  0.00000000000E+000
  0.18254390002E+008,  0.20015175601E+007,  0.19000000000E+002,  0.10000000000E+001,  0.00000000000E+000
  0.18254540002E+008,  0.20015251783E+007,  0.19000000000E+002,  0.10000000000E+001,  0.00000000000E+000
  0.18254690002E+008,  0.20015327925E+007,  0.19000000000E+002,  0.10000000000E+001,  0.00000000000E+000
  0.18254840002E+008,  0.20015404027E+007,  0.19000000000E+002,  0.10000000000E+001,  0.00000000000E+000
  0.18254990002E+008,  0.20015480090E+007,  0.19000000000E+002,  0.10000000000E+001,  0.00000000000E+000
  0.18255140002E+008,  0.20015556112E+007,  0.19000000000E+002,  0.10000000000E+001,  0.00000000000E+000
  0.18255290002E+008,  0.20015632094E+007,  0.19000000000E+002,  0.10000000000E+001,  0.00000000000E+000
  0.18255440002E+008,  0.20015708037E+007,  0.19000000000E+002,  0.10000000000E+001,  0.00000000000E+000
  0.18255590002E+008,  0.20015783940E+007,  0.19000000000E+002,  0.10000000000E+001,  0.00000000000E+000
  0.18255740002E+008,  0.20015859803E+007,  0.19000000000E+002,  0.10000000000E+001,  0.00000000000E+000
  0.18255890002E+008,  0.20015935626E+007,  0.19000000000E+002,  0.10000000000E+001,  0.00000000000E+000
  0.18256040002E+008,  0.20016011409E+007,  0.19000000000E+002,  0.10000000000E+001,  0.00000000000E+000
  0.18256190002E+008,  0.20016087153E+007,  0.19000000000E+002,  0.10000000000E+001,  0.00000000000E+000
  0.18256340002E+008,  0.20016162856E+007,  0.19000000000E+002,  0.10000000000E+001,  0.00000000000E+000
  0.18256490002E+008,  0.20016238520E+007,  0.19000000000E+002,  0.10000000000E+001,  0.00000000000E+000
  0.18256640002E+008,  0.20016314145E+007,  0.19000000000E+002,  0.10000000000E+001,  0.00000000000E+000
