"           TIME(S)","              PRES","              TEMP","             SAT_G","             SAT_L"
  0.18228700500E+008,  0.20000307244E+007,  0.19000000000E+002,  0.00000000000E+000,  0.10000000000E+001
  0.18228702500E+008,  0.20002203083E+007,  0.19000000000E+002,  0.00000000000E+000,  0.10000000000E+001
  0.18228704500E+008,  0.20003934111E+007,  0.19000000000E+002,  0.00000000000E+000,  0.10000000000E+001
  0.18228706500E+008,  0.20005408361E+007,  0.19000000000E+002,  0.00000000000E+000,  0.10000000000E+001
  0.18228708500E+008,  0.20006659697E+007,  0.19000000000E+002,  0.00000000000E+000,  0.10000000000E+001
  0.18228710500E+008,  0.20007732870E+007,  0.19000000000E+002,  0.00000000000E+000,  0.10000000000E+001
  0.18228712500E+008,  0.20008664824E+007,  0.19000000000E+002,  0.00000000000E+000,  0.10000000000E+001
  0.18228714500E+008,  0.20009483819E+007,  0.19000000000E+002,  0.00000000000E+000,  0.10000000000E+001
  0.18228716500E+008,  0.20010211281E+007,  0.19000000000E+002,  0.00000000000E+000,  0.10000000000E+001
  0.18228718500E+008,  0.20010863570E+007,  0.19000000000E+002,  0.00000000000E+000,  0.10000000000E+001
  0.18228720500E+008,  0.20011453347E+007,  0.19000000000E+002,  0.00000000000E+000,  0.10000000000E+001
  0.18228722500E+008,  0.20011990529E+007,  0.19000000000E+002,  0.00000000000E+000,  0.10000000000E+001
  0.18228724500E+008,  0.20012482992E+007,  0.19000000000E+002,  0.00000000000E+000,  0.10000000000E+001
  0.18228726500E+008,  0.20012937066E+007,  0.19000000000E+002,  0.00000000000E+000,  0.10000000000E+001
  0.18228728500E+008,  0.20013357898E+007,  0.19000000000E+002,  0.00000000000E+000,  0.10000000000E+001
  0.18228730500E+008,  0.20013749717E+007,  0.19000000000E+002,  0.00000000000E+000,  0.10000000000E+001
  0.18228732500E+008,  0.20014116035E+007,  0.19000000000E+002,  0.00000000000E+000,  0.10000000000E+001
  0.18228734500E+008,  0.20014459792E+007,  0.19000000000E+002,  0.00000000000E+000,  0.10000000000E+001
  0.18228736500E+008,  0.20014783464E+007,  0.19000000000E+002,  0.00000000000E+000,  0.10000000000E+001
  0.18228738500E+008,  0.20015089169E+007,  0.19000000000E+002,  0.00000000000E+000,  0.10000000000E+001
  0.18228740500E+008,  0.20015378720E+007,  0.19000000000E+002,  0.00000000000E+000,  0.10000000000E+001
  0.18228742500E+008,  0.20015653669E+007,  0.19000000000E+002,  0.00000000000E+000,  0.10000000000E+001
  0.18228744500E+008,  0.20015915376E+007,  0.19000000000E+002,  0.00000000000E+000,  0.10000000000E+001
  0.18228746500E+008,  0.20016165021E+007,  0.19000000000E+002,  0.00000000000E+000,  0.10000000000E+001
  0.18228748500E+008,  0.20016403639E+007,  0.19000000000E+002,  0.00000000000E+000,  0.10000000000E+001
  0.18228750500E+008,  0.20016632145E+007,  0.19000000000E+002,  0.00000000000E+000,  0.10000000000E+001
  0.18228752500E+008,  0.20016851351E+007,  0.19000000000E+002,  0.00000000000E+000,  0.10000000000E+001
  0.18228754500E+008,  0.20017061971E+007,  0.19000000000E+002,  0.00000000000E+000,  0.10000000000E+001
  0.18228756500E+008,  0.20017264650E+007,  0.19000000000E+002,  0.00000000000E+000,  0.10000000000E+001
  0.18228758500E+008,  0.20017459964E+007,  0.19000000000E+002,  0.00000000000E+000,  0.10000000000E+001
  0.18228760500E+008,  0.20017648429E+007,  0.19000000000E+002,  0.00000000000E+000,  0.10000000000E+001
  0.18228762500E+008,  0.20017830514E+007,  0.19000000000E+002,  0.00000000000E+000,  0.10000000000E+001
  0.18228764500E+008,  0.20018006643E+007,  0.19000000000E+002,  0.00000000000E+000,  0.10000000000E+001
  0.18228766500E+008,  0.20018177197E+007,  0.19000000000E+002,  0.00000000000E+000,  0.10000000000E+001
  0.18228768500E+008,  0.20018342238E+007,  0.19000000000E+002,  0.00000000000E+000,  0.10000000000E+001
  0.18228770500E+008,  0.20018501167E+007,  0.19000000000E+002,  0.00000000000E+000,  0.10000000000E+001
  0.18228772500E+008,  0.20018655973E+007,  0.19000000000E+002,  0.00000000000E+000,  0.10000000000E+001
  0.18228774500E+008,  0.20018806926E+007,  0.19000000000E+002,  0.00000000000E+000,  0.10000000000E+001
  0.18228776500E+008,  0.20018954066E+007,  0.19000000000E+002,  0.00000000000E+000,  0.10000000000E+001
  0.18228778500E+008,  0.20019097475E+007,  0.19000000000E+002,  0.00000000000E+000,  0.10000000000E+001
  0.18228780500E+008,  0.20019237293E+007,  0.19000000000E+002,  0.00000000000E+000,  0.10000000000E+001
  0.18228782500E+008,  0.20019373683E+007,  0.19000000000E+002,  0.00000000000E+000,  0.10000000000E+001
  0.18228784500E+008,  0.20019506809E+007,  0.19000000000E+002,  0.00000000000E+000,  0.10000000000E+001
  0.18228786500E+008,  0.20019636835E+007,  0.19000000000E+002,  0.00000000000E+000,  0.10000000000E+001
  0.18228788500E+008,  0.20019763915E+007,  0.19000000000E+002,  0.00000000000E+000,  0.10000000000E+001
  0.18228790500E+008,  0.20019888198E+007,  0.19000000000E+002,  0.00000000000E+000,  0.10000000000E+001
  0.18228792500E+008,  0.20020009818E+007,  0.19000000000E+002,  0.00000000000E+000,  0.10000000000E+001
  0.18228794500E+008,  0.20020128900E+007,  0.19000000000E+002,  0.00000000000E+000,  0.10000000000E+001
  0.18228796500E+008,  0.20020245569E+007,  0.19000000000E+002,  0.00000000000E+000,  0.10000000000E+001
  0.18228798500E+008,  0.20020359937E+007,  0.19000000000E+002,  0.00000000000E+000,  0.10000000000E+001
  0.18228800500E+008,  0.20020472107E+007,  0.19000000000E+002,  0.00000000000E+000,  0.10000000000E+001
  0.18228802500E+008,  0.20020582182E+007,  0.19000000000E+002,  0.00000000000E+000,  0.10000000000E+001
  0.18228804500E+008,  0.20020690253E+007,  0.19000000000E+002,  0.00000000000E+000,  0.10000000000E+001
  0.18228806500E+008,  0.20020796411E+007,  0.19000000000E+002,  0.00000000000E+000,  0.10000000000E+001
  0.18228808500E+008,  0.20020900736E+007,  0.19000000000E+002,  0.00000000000E+000,  0.10000000000E+001
  0.18228810500E+008,  0.20021003308E+007,  0.19000000000E+002,  0.00000000000E+000,  0.10000000000E+001
  0.18228812500E+008,  0.20021104202E+007,  0.19000000000E+002,  0.00000000000E+000,  0.10000000000E+001
  0.18228814500E+008,  0.20021203487E+007,  0.19000000000E+002,  0.00000000000E+000,  0.10000000000E+001
  0.18228816500E+008,  0.20021301228E+007,  0.19000000000E+002,  0.00000000000E+000,  0.10000000000E+001
  0.18228818500E+008,  0.20021397490E+007,  0.19000000000E+002,  0.00000000000E+000,  0.10000000000E+001
  0.18228820500E+008,  0.20021492332E+007,  0.19000000000E+002,  0.00000000000E+000,  0.10000000000E+001
  0.18228822500E+008,  0.20021585811E+007,  0.19000000000E+002,  0.00000000000E+000,  0.10000000000E+001
  0.18228824500E+008,  0.20021677978E+007,  0.19000000000E+002,  0.00000000000E+000,  0.10000000000E+001
  0.18228826500E+008,  0.20021768885E+007,  0.19000000000E+002,  0.00000000000E+000,  0.10000000000E+001
  0.18228828500E+008,  0.20021858580E+007,  0.19000000000E+002,  0.00000000000E+000,  0.10000000000E+001
  0.18228830500E+008,  0.20021947111E+007,  0.19000000000E+002,  0.00000000000E+000,  0.10000000000E+001
  0.18228832500E+008,  0.20022034518E+007,  0.19000000000E+002,  0.00000000000E+000,  0.10000000000E+001
  0.18228834500E+008,  0.20022120843E+007,  0.19000000000E+002,  0.00000000000E+000,  0.10000000000E+001
  0.18228836500E+008,  0.20022206127E+007,  0.19000000000E+002,  0.00000000000E+000,  0.10000000000E+001
  0.18228838500E+008,  0.20022290408E+007,  0.19000000000E+002,  0.00000000000E+000,  0.10000000000E+001
  0.18228840500E+008,  0.20022373719E+007,  0.19000000000E+002,  0.00000000000E+000,  0.10000000000E+001
  0.18228842500E+008,  0.20022456096E+007,  0.19000000000E+002,  0.00000000000E+000,  0.10000000000E+001
  0.18228844500E+008,  0.20022537570E+007,  0.19000000000E+002,  0.00000000000E+000,  0.10000000000E+001
  0.18228846500E+008,  0.20022618175E+007,  0.19000000000E+002,  0.00000000000E+000,  0.10000000000E+001
  0.18228848500E+008,  0.20022697937E+007,  0.19000000000E+002,  0.00000000000E+000,  0.10000000000E+001
  0.18228850500E+008,  0.20022776887E+007,  0.19000000000E+002,  0.00000000000E+000,  0.10000000000E+001
  0.18228852500E+008,  0.20022855049E+007,  0.19000000000E+002,  0.00000000000E+000,  0.10000000000E+001
  0.18228854500E+008,  0.20022932452E+007,  0.19000000000E+002,  0.00000000000E+000,  0.10000000000E+001
  0.18228856500E+008,  0.20023009118E+007,  0.19000000000E+002,  0.00000000000E+000,  0.10000000000E+001
  0.18228858500E+008,  0.20023085072E+007,  0.19000000000E+002,  0.00000000000E+000,  0.10000000000E+001
  0.18228860500E+008,  0.20023160336E+007,  0.19000000000E+002,  0.00000000000E+000,  0.10000000000E+001
  0.18228862500E+008,  0.20023234933E+007,  0.19000000000E+002,  0.00000000000E+000,  0.10000000000E+001
  0.18228864500E+008,  0.20023308881E+007,  0.19000000000E+002,  0.00000000000E+000,  0.10000000000E+001
  0.18228866500E+008,  0.20023382202E+007,  0.19000000000E+002,  0.00000000000E+000,  0.10000000000E+001
  0.18228868500E+008,  0.20023454913E+007,  0.19000000000E+002,  0.00000000000E+000,  0.10000000000E+001
  0.18228870500E+008,  0.20023527035E+007,  0.19000000000E+002,  0.00000000000E+000,  0.10000000000E+001
  0.18228872500E+008,  0.20023598583E+007,  0.19000000000E+002,  0.00000000000E+000,  0.10000000000E+001
  0.18228874500E+008,  0.20023669573E+007,  0.19000000000E+002,  0.00000000000E+000,  0.10000000000E+001
  0.18228876500E+008,  0.20023740024E+007,  0.19000000000E+002,  0.00000000000E+000,  0.10000000000E+001
  0.18228878500E+008,  0.20023809950E+007,  0.19000000000E+002,  0.00000000000E+000,  0.10000000000E+001
  0.18228880500E+008,  0.20023879365E+007,  0.19000000000E+002,  0.00000000000E+000,  0.10000000000E+001
  0.18228882500E+008,  0.20023948285E+007,  0.19000000000E+002,  0.00000000000E+000,  0.10000000000E+001
  0.18228884500E+008,  0.20024016720E+007,  0.19000000000E+002,  0.00000000000E+000,  0.10000000000E+001
  0.18228886500E+008,  0.20024084688E+007,  0.19000000000E+002,  0.00000000000E+000,  0.10000000000E+001
  0.18228888500E+008,  0.20024152197E+007,  0.19000000000E+002,  0.00000000000E+000,  0.10000000000E+001
  0.18228890500E+008,  0.20024219263E+007,  0.19000000000E+002,  0.00000000000E+000,  0.10000000000E+001
  0.18228892500E+008,  0.20024285895E+007,  0.19000000000E+002,  0.00000000000E+000,  0.10000000000E+001
  0.18228894500E+008,  0.20024352106E+007,  0.19000000000E+002,  0.00000000000E+000,  0.10000000000E+001
  0.18228896500E+008,  0.20024417905E+007,  0.19000000000E+002,  0.00000000000E+000,  0.10000000000E+001
  0.18228898500E+008,  0.20024483303E+007,  0.19000000000E+002,  0.00000000000E+000,  0.10000000000E+001
  0.18228900500E+008,  0.20024548311E+007,  0.19000000000E+002,  0.00000000000E+000,  0.10000000000E+001
  0.18228902500E+008,  0.20024612939E+007,  0.19000000000E+002,  0.00000000000E+000,  0.10000000000E+001
  0.18228904500E+008,  0.20024677193E+007,  0.19000000000E+002,  0.00000000000E+000,  0.10000000000E+001
  0.18228906500E+008,  0.20024741086E+007,  0.19000000000E+002,  0.00000000000E+000,  0.10000000000E+001
  0.18228908500E+008,  0.20024804624E+007,  0.19000000000E+002,  0.00000000000E+000,  0.10000000000E+001
  0.18228910500E+008,  0.20024867817E+007,  0.19000000000E+002,  0.00000000000E+000,  0.10000000000E+001
  0.18228912500E+008,  0.20024930672E+007,  0.19000000000E+002,  0.00000000000E+000,  0.10000000000E+001
  0.18228914500E+008,  0.20024993196E+007,  0.19000000000E+002,  0.00000000000E+000,  0.10000000000E+001
  0.18228916500E+008,  0.20025055399E+007,  0.19000000000E+002,  0.00000000000E+000,  0.10000000000E+001
  0.18228918500E+008,  0.20025117287E+007,  0.19000000000E+002,  0.00000000000E+000,  0.10000000000E+001
  0.18228920500E+008,  0.20025178866E+007,  0.19000000000E+002,  0.00000000000E+000,  0.10000000000E+001
  0.18228922500E+008,  0.20025240144E+007,  0.19000000000E+002,  0.00000000000E+000,  0.10000000000E+001
  0.18228924500E+008,  0.20025301128E+007,  0.19000000000E+002,  0.00000000000E+000,  0.10000000000E+001
  0.18228926500E+008,  0.20025361822E+007,  0.19000000000E+002,  0.00000000000E+000,  0.10000000000E+001
  0.18228928500E+008,  0.20025422234E+007,  0.19000000000E+002,  0.00000000000E+000,  0.10000000000E+001
  0.18228930500E+008,  0.20025482370E+007,  0.19000000000E+002,  0.00000000000E+000,  0.10000000000E+001
  0.18228932500E+008,  0.20025542234E+007,  0.19000000000E+002,  0.00000000000E+000,  0.10000000000E+001
  0.18228934500E+008,  0.20025601833E+007,  0.19000000000E+002,  0.00000000000E+000,  0.10000000000E+001
  0.18228936500E+008,  0.20025661173E+007,  0.19000000000E+002,  0.00000000000E+000,  0.10000000000E+001
  0.18228938500E+008,  0.20025720257E+007,  0.19000000000E+002,  0.00000000000E+000,  0.10000000000E+001
  0.18228940500E+008,  0.20025779092E+007,  0.19000000000E+002,  0.00000000000E+000,  0.10000000000E+001
  0.18228942500E+008,  0.20025837682E+007,  0.19000000000E+002,  0.00000000000E+000,  0.10000000000E+001
  0.18228944500E+008,  0.20025896032E+007,  0.19000000000E+002,  0.00000000000E+000,  0.10000000000E+001
  0.18228946500E+008,  0.20025954146E+007,  0.19000000000E+002,  0.00000000000E+000,  0.10000000000E+001
  0.18228948500E+008,  0.20026012029E+007,  0.19000000000E+002,  0.00000000000E+000,  0.10000000000E+001
  0.18228950500E+008,  0.20026069685E+007,  0.19000000000E+002,  0.00000000000E+000,  0.10000000000E+001
  0.18228952500E+008,  0.20026127118E+007,  0.19000000000E+002,  0.00000000000E+000,  0.10000000000E+001
  0.18228954500E+008,  0.20026184333E+007,  0.19000000000E+002,  0.00000000000E+000,  0.10000000000E+001
  0.18228956500E+008,  0.20026241333E+007,  0.19000000000E+002,  0.00000000000E+000,  0.10000000000E+001
  0.18228958500E+008,  0.20026298122E+007,  0.19000000000E+002,  0.00000000000E+000,  0.10000000000E+001
  0.18228960500E+008,  0.20026354704E+007,  0.19000000000E+002,  0.00000000000E+000,  0.10000000000E+001
  0.18228962500E+008,  0.20026411082E+007,  0.19000000000E+002,  0.00000000000E+000,  0.10000000000E+001
  0.18228964500E+008,  0.20026467259E+007,  0.19000000000E+002,  0.00000000000E+000,  0.10000000000E+001
  0.18228966500E+008,  0.20026523240E+007,  0.19000000000E+002,  0.00000000000E+000,  0.10000000000E+001
  0.18228968500E+008,  0.20026579027E+007,  0.19000000000E+002,  0.00000000000E+000,  0.10000000000E+001
  0.18228970500E+008,  0.20026634624E+007,  0.19000000000E+002,  0.00000000000E+000,  0.10000000000E+001
  0.18228972500E+008,  0.20026690034E+007,  0.19000000000E+002,  0.00000000000E+000,  0.10000000000E+001
  0.18228974500E+008,  0.20026745259E+007,  0.19000000000E+002,  0.00000000000E+000,  0.10000000000E+001
  0.18228976500E+008,  0.20026800303E+007,  0.19000000000E+002,  0.00000000000E+000,  0.10000000000E+001
  0.18228978500E+008,  0.20026855169E+007,  0.19000000000E+002,  0.00000000000E+000,  0.10000000000E+001
  0.18228980500E+008,  0.20026909858E+007,  0.19000000000E+002,  0.00000000000E+000,  0.10000000000E+001
  0.18228982500E+008,  0.20026964374E+007,  0.19000000000E+002,  0.00000000000E+000,  0.10000000000E+001
  0.18228984500E+008,  0.20027018721E+007,  0.19000000000E+002,  0.00000000000E+000,  0.10000000000E+001
  0.18228986500E+008,  0.20027072898E+007,  0.19000000000E+002,  0.00000000000E+000,  0.10000000000E+001
  0.18228988500E+008,  0.20027126911E+007,  0.19000000000E+002,  0.00000000000E+000,  0.10000000000E+001
  0.18228990500E+008,  0.20027180761E+007,  0.19000000000E+002,  0.00000000000E+000,  0.10000000000E+001
  0.18228992500E+008,  0.20027234450E+007,  0.19000000000E+002,  0.00000000000E+000,  0.10000000000E+001
  0.18228994500E+008,  0.20027287980E+007,  0.19000000000E+002,  0.00000000000E+000,  0.10000000000E+001
  0.18228996500E+008,  0.20027341354E+007,  0.19000000000E+002,  0.00000000000E+000,  0.10000000000E+001
  0.18228998500E+008,  0.20027394574E+007,  0.19000000000E+002,  0.00000000000E+000,  0.10000000000E+001
  0.18229000500E+008,  0.20027447641E+007,  0.19000000000E+002,  0.00000000000E+000,  0.10000000000E+001
  0.18229002500E+008,  0.20027500242E+007,  0.19000000000E+002,  0.00000000000E+000,  0.10000000000E+001
  0.18229004500E+008,  0.20027552540E+007,  0.19000000000E+002,  0.00000000000E+000,  0.10000000000E+001
  0.18229006500E+008,  0.20027604777E+007,  0.19000000000E+002,  0.00000000000E+000,  0.10000000000E+001
  0.18229008500E+008,  0.20027656979E+007,  0.19000000000E+002,  0.00000000000E+000,  0.10000000000E+001
  0.18229010500E+008,  0.20027709125E+007,  0.19000000000E+002,  0.00000000000E+000,  0.10000000000E+001
  0.18229012500E+008,  0.20027761123E+007,  0.19000000000E+002,  0.00000000000E+000,  0.10000000000E+001
  0.18229014500E+008,  0.20027812515E+007,  0.19000000000E+002,  0.00000000000E+000,  0.10000000000E+001
  0.18229016500E+008,  0.20027863835E+007,  0.19000000000E+002,  0.00000000000E+000,  0.10000000000E+001
  0.18229018500E+008,  0.20027915171E+007,  0.19000000000E+002,  0.00000000000E+000,  0.10000000000E+001
  0.18229020500E+008,  0.20027966504E+007,  0.19000000000E+002,  0.00000000000E+000,  0.10000000000E+001
  0.18229022500E+008,  0.20028017803E+007,  0.19000000000E+002,  0.00000000000E+000,  0.10000000000E+001
  0.18229024500E+008,  0.20028069040E+007,  0.19000000000E+002,  0.00000000000E+000,  0.10000000000E+001
  0.18229026500E+008,  0.20028120194E+007,  0.19000000000E+002,  0.00000000000E+000,  0.10000000000E+001
  0.18229028500E+008,  0.20028171250E+007,  0.19000000000E+002,  0.00000000000E+000,  0.10000000000E+001
  0.18229030500E+008,  0.20028222200E+007,  0.19000000000E+002,  0.00000000000E+000,  0.10000000000E+001
  0.18229032500E+008,  0.20028273039E+007,  0.19000000000E+002,  0.00000000000E+000,  0.10000000000E+001
  0.18229034500E+008,  0.20028323762E+007,  0.19000000000E+002,  0.00000000000E+000,  0.10000000000E+001
  0.18229036500E+008,  0.20028374369E+007,  0.19000000000E+002,  0.00000000000E+000,  0.10000000000E+001
  0.18229038500E+008,  0.20028424859E+007,  0.19000000000E+002,  0.00000000000E+000,  0.10000000000E+001
  0.18229040500E+008,  0.20028475231E+007,  0.19000000000E+002,  0.00000000000E+000,  0.10000000000E+001
  0.18229042500E+008,  0.20028525488E+007,  0.19000000000E+002,  0.00000000000E+000,  0.10000000000E+001
  0.18229044500E+008,  0.20028575628E+007,  0.19000000000E+002,  0.00000000000E+000,  0.10000000000E+001
  0.18229046500E+008,  0.20028625653E+007,  0.19000000000E+002,  0.00000000000E+000,  0.10000000000E+001
  0.18229048500E+008,  0.20028675565E+007,  0.19000000000E+002,  0.00000000000E+000,  0.10000000000E+001
  0.18229050500E+008,  0.20028725364E+007,  0.19000000000E+002,  0.00000000000E+000,  0.10000000000E+001
  0.18229052500E+008,  0.20028775051E+007,  0.19000000000E+002,  0.00000000000E+000,  0.10000000000E+001
  0.18229054500E+008,  0.20028824349E+007,  0.19000000000E+002,  0.00000000000E+000,  0.10000000000E+001
  0.18229056500E+008,  0.20028873255E+007,  0.19000000000E+002,  0.00000000000E+000,  0.10000000000E+001
  0.18229058500E+008,  0.20028922117E+007,  0.19000000000E+002,  0.00000000000E+000,  0.10000000000E+001
  0.18229060500E+008,  0.20028970987E+007,  0.19000000000E+002,  0.00000000000E+000,  0.10000000000E+001
  0.18229062500E+008,  0.20029019852E+007,  0.19000000000E+002,  0.00000000000E+000,  0.10000000000E+001
  0.18229064500E+008,  0.20029068689E+007,  0.19000000000E+002,  0.00000000000E+000,  0.10000000000E+001
  0.18229066500E+008,  0.20029117479E+007,  0.19000000000E+002,  0.00000000000E+000,  0.10000000000E+001
  0.18229068500E+008,  0.20029166204E+007,  0.19000000000E+002,  0.00000000000E+000,  0.10000000000E+001
  0.18229070500E+008,  0.20029214854E+007,  0.19000000000E+002,  0.00000000000E+000,  0.10000000000E+001
  0.18229072500E+008,  0.20029263422E+007,  0.19000000000E+002,  0.00000000000E+000,  0.10000000000E+001
  0.18229074500E+008,  0.20029311901E+007,  0.19000000000E+002,  0.00000000000E+000,  0.10000000000E+001
  0.18229076500E+008,  0.20029360289E+007,  0.19000000000E+002,  0.00000000000E+000,  0.10000000000E+001
