"           TIME(S)","              PRES","              TEMP","             SAT_G","             SAT_L"
  0.17964400000E+008,  0.20802508459E+007,  0.19000000000E+002,  0.00000000000E+000,  0.10000000000E+001
  0.17971900000E+008,  0.20580480710E+007,  0.19000000000E+002,  0.00000000000E+000,  0.10000000000E+001
  0.17986900000E+008,  0.20366279956E+007,  0.19000000000E+002,  0.00000000000E+000,  0.10000000000E+001
  0.18001900000E+008,  0.20233565748E+007,  0.19000000000E+002,  0.00000000000E+000,  0.10000000000E+001
  0.18016900000E+008,  0.20150251339E+007,  0.19000000000E+002,  0.00000000000E+000,  0.10000000000E+001
  0.18031900000E+008,  0.20098037693E+007,  0.19000000000E+002,  0.00000000000E+000,  0.10000000000E+001
  0.18046900000E+008,  0.20065355832E+007,  0.19000000000E+002,  0.00000000000E+000,  0.10000000000E+001
  0.18061900000E+008,  0.20044913962E+007,  0.19000000000E+002,  0.00000000000E+000,  0.10000000000E+001
  0.18076900000E+008,  0.20032323664E+007,  0.19000000000E+002,  0.00000000000E+000,  0.10000000000E+001
  0.18091900000E+008,  0.20024627720E+007,  0.19000000000E+002,  0.00000000000E+000,  0.10000000000E+001
  0.18106900000E+008,  0.20019818213E+007,  0.19000000000E+002,  0.00000000000E+000,  0.10000000000E+001
  0.18121900000E+008,  0.20016793471E+007,  0.19000000000E+002,  0.00000000000E+000,  0.10000000000E+001
  0.18136900000E+008,  0.20015325327E+007,  0.19000000000E+002,  0.00000000000E+000,  0.10000000000E+001
  0.18151900000E+008,  0.20014416142E+007,  0.19000000000E+002,  0.00000000000E+000,  0.10000000000E+001
  0.18166900000E+008,  0.20013809891E+007,  0.19000000000E+002,  0.00000000000E+000,  0.10000000000E+001
  0.18181900000E+008,  0.20013399700E+007,  0.19000000000E+002,  0.00000000000E+000,  0.10000000000E+001
  0.18196900000E+008,  0.20013116012E+007,  0.19000000000E+002,  0.00000000000E+000,  0.10000000000E+001
  0.18211900000E+008,  0.20012905565E+007,  0.19000000000E+002,  0.00000000000E+000,  0.10000000000E+001
  0.18226900000E+008,  0.20012742466E+007,  0.19000000000E+002,  0.00000000000E+000,  0.10000000000E+001
  0.18241900000E+008,  0.20012629711E+007,  0.19000000000E+002,  0.00000000000E+000,  0.10000000000E+001
  0.18256900000E+008,  0.20012534277E+007,  0.19000000000E+002,  0.00000000000E+000,  0.10000000000E+001
  0.18271900000E+008,  0.20012448435E+007,  0.19000000000E+002,  0.00000000000E+000,  0.10000000000E+001
  0.18286900000E+008,  0.20012381279E+007,  0.19000000000E+002,  0.00000000000E+000,  0.10000000000E+001
  0.18301900000E+008,  0.20012332959E+007,  0.19000000000E+002,  0.00000000000E+000,  0.10000000000E+001
  0.18316900000E+008,  0.20012291112E+007,  0.19000000000E+002,  0.00000000000E+000,  0.10000000000E+001
  0.18331900000E+008,  0.20014428320E+007,  0.19000000000E+002,  0.00000000000E+000,  0.10000000000E+001
  0.18346900000E+008,  0.20016359209E+007,  0.19000000000E+002,  0.00000000000E+000,  0.10000000000E+001
  0.18361900000E+008,  0.20017779493E+007,  0.19000000000E+002,  0.00000000000E+000,  0.10000000000E+001
  0.18376900000E+008,  0.20018824544E+007,  0.19000000000E+002,  0.00000000000E+000,  0.10000000000E+001
  0.18391900000E+008,  0.20019662684E+007,  0.19000000000E+002,  0.00000000000E+000,  0.10000000000E+001
  0.18406900000E+008,  0.20020410652E+007,  0.19000000000E+002,  0.00000000000E+000,  0.10000000000E+001
  0.18421900000E+008,  0.20021041153E+007,  0.19000000000E+002,  0.00000000000E+000,  0.10000000000E+001
  0.18436900000E+008,  0.20021587387E+007,  0.19000000000E+002,  0.00000000000E+000,  0.10000000000E+001
  0.18451900000E+008,  0.20022144835E+007,  0.19000000000E+002,  0.00000000000E+000,  0.10000000000E+001
  0.18466900000E+008,  0.20022671717E+007,  0.19000000000E+002,  0.00000000000E+000,  0.10000000000E+001
  0.18481900000E+008,  0.20023157566E+007,  0.19000000000E+002,  0.00000000000E+000,  0.10000000000E+001
  0.18496900000E+008,  0.20023638626E+007,  0.19000000000E+002,  0.00000000000E+000,  0.10000000000E+001
  0.18511900000E+008,  0.20024161734E+007,  0.19000000000E+002,  0.00000000000E+000,  0.10000000000E+001
  0.18526900000E+008,  0.20024655302E+007,  0.19000000000E+002,  0.00000000000E+000,  0.10000000000E+001
  0.18541900000E+008,  0.20025120072E+007,  0.19000000000E+002,  0.00000000000E+000,  0.10000000000E+001
  0.18556900000E+008,  0.20025655908E+007,  0.19000000000E+002,  0.00000000000E+000,  0.10000000000E+001
  0.18571900000E+008,  0.20026195768E+007,  0.19000000000E+002,  0.00000000000E+000,  0.10000000000E+001
  0.18586900000E+008,  0.20026700004E+007,  0.19000000000E+002,  0.00000000000E+000,  0.10000000000E+001
  0.18601900000E+008,  0.20027188089E+007,  0.19000000000E+002,  0.00000000000E+000,  0.10000000000E+001
  0.18616900000E+008,  0.20027701988E+007,  0.19000000000E+002,  0.00000000000E+000,  0.10000000000E+001
  0.18631900000E+008,  0.20028191774E+007,  0.19000000000E+002,  0.00000000000E+000,  0.10000000000E+001
  0.18646900000E+008,  0.20028658290E+007,  0.19000000000E+002,  0.00000000000E+000,  0.10000000000E+001
  0.18661900000E+008,  0.20029243474E+007,  0.19000000000E+002,  0.00000000000E+000,  0.10000000000E+001
  0.18676900000E+008,  0.20029860465E+007,  0.19000000000E+002,  0.00000000000E+000,  0.10000000000E+001
  0.18691900000E+008,  0.20030428290E+007,  0.19000000000E+002,  0.00000000000E+000,  0.10000000000E+001
  0.18698900000E+008,  0.20030698191E+007,  0.19000000000E+002,  0.00000000000E+000,  0.10000000000E+001
  0.18713900000E+008,  0.20031267013E+007,  0.19000000000E+002,  0.00000000000E+000,  0.10000000000E+001
  0.18728900000E+008,  0.20031836874E+007,  0.19000000000E+002,  0.00000000000E+000,  0.10000000000E+001
  0.18743900000E+008,  0.20032392482E+007,  0.19000000000E+002,  0.00000000000E+000,  0.10000000000E+001
  0.18758900000E+008,  0.20032950473E+007,  0.19000000000E+002,  0.00000000000E+000,  0.10000000000E+001
  0.18773900000E+008,  0.20033587950E+007,  0.19000000000E+002,  0.00000000000E+000,  0.10000000000E+001
  0.18788900000E+008,  0.20034183186E+007,  0.19000000000E+002,  0.00000000000E+000,  0.10000000000E+001
  0.18803900000E+008,  0.20034732580E+007,  0.19000000000E+002,  0.00000000000E+000,  0.10000000000E+001
  0.18818900000E+008,  0.20035333069E+007,  0.19000000000E+002,  0.00000000000E+000,  0.10000000000E+001
  0.18833900000E+008,  0.20035967065E+007,  0.19000000000E+002,  0.00000000000E+000,  0.10000000000E+001
  0.18848900000E+008,  0.20036556732E+007,  0.19000000000E+002,  0.00000000000E+000,  0.10000000000E+001
  0.18863900000E+008,  0.20037109897E+007,  0.19000000000E+002,  0.00000000000E+000,  0.10000000000E+001
  0.18878900000E+008,  0.20037823257E+007,  0.19000000000E+002,  0.00000000000E+000,  0.10000000000E+001
  0.18893900000E+008,  0.20038491105E+007,  0.19000000000E+002,  0.00000000000E+000,  0.10000000000E+001
  0.18908900000E+008,  0.20039098075E+007,  0.19000000000E+002,  0.00000000000E+000,  0.10000000000E+001
  0.18923900000E+008,  0.20039762574E+007,  0.19000000000E+002,  0.00000000000E+000,  0.10000000000E+001
  0.18938900000E+008,  0.20040490624E+007,  0.19000000000E+002,  0.00000000000E+000,  0.10000000000E+001
  0.18953900000E+008,  0.20041160247E+007,  0.19000000000E+002,  0.00000000000E+000,  0.10000000000E+001
  0.18968900000E+008,  0.20041771015E+007,  0.19000000000E+002,  0.00000000000E+000,  0.10000000000E+001
  0.18983900000E+008,  0.20042589571E+007,  0.19000000000E+002,  0.00000000000E+000,  0.10000000000E+001
  0.18998900000E+008,  0.20043360890E+007,  0.19000000000E+002,  0.00000000000E+000,  0.10000000000E+001
  0.19013900000E+008,  0.20044050881E+007,  0.19000000000E+002,  0.00000000000E+000,  0.10000000000E+001
  0.19028900000E+008,  0.20044746685E+007,  0.19000000000E+002,  0.00000000000E+000,  0.10000000000E+001
  0.19043900000E+008,  0.20045482089E+007,  0.19000000000E+002,  0.00000000000E+000,  0.10000000000E+001
  0.19058900000E+008,  0.20046162035E+007,  0.19000000000E+002,  0.00000000000E+000,  0.10000000000E+001
  0.19073900000E+008,  0.20046787570E+007,  0.19000000000E+002,  0.00000000000E+000,  0.10000000000E+001
  0.19088900000E+008,  0.20047636950E+007,  0.19000000000E+002,  0.00000000000E+000,  0.10000000000E+001
  0.19103900000E+008,  0.20048460963E+007,  0.19000000000E+002,  0.00000000000E+000,  0.10000000000E+001
  0.19118900000E+008,  0.20049199524E+007,  0.19000000000E+002,  0.00000000000E+000,  0.10000000000E+001
  0.19133900000E+008,  0.20049949710E+007,  0.19000000000E+002,  0.00000000000E+000,  0.10000000000E+001
  0.19148900000E+008,  0.20050784748E+007,  0.19000000000E+002,  0.00000000000E+000,  0.10000000000E+001
  0.19163900000E+008,  0.20051552609E+007,  0.19000000000E+002,  0.00000000000E+000,  0.10000000000E+001
  0.19178900000E+008,  0.20052247911E+007,  0.19000000000E+002,  0.00000000000E+000,  0.10000000000E+001
  0.19193900000E+008,  0.20053161922E+007,  0.19000000000E+002,  0.00000000000E+000,  0.10000000000E+001
  0.19208900000E+008,  0.20054068012E+007,  0.19000000000E+002,  0.00000000000E+000,  0.10000000000E+001
  0.19223900000E+008,  0.20054877845E+007,  0.19000000000E+002,  0.00000000000E+000,  0.10000000000E+001
  0.19238900000E+008,  0.20055666582E+007,  0.19000000000E+002,  0.00000000000E+000,  0.10000000000E+001
  0.19253900000E+008,  0.20056531756E+007,  0.19000000000E+002,  0.00000000000E+000,  0.10000000000E+001
  0.19268900000E+008,  0.20057328992E+007,  0.19000000000E+002,  0.00000000000E+000,  0.10000000000E+001
  0.19283900000E+008,  0.20058052491E+007,  0.19000000000E+002,  0.00000000000E+000,  0.10000000000E+001
  0.19298900000E+008,  0.20059039096E+007,  0.19000000000E+002,  0.00000000000E+000,  0.10000000000E+001
  0.19313900000E+008,  0.20060054559E+007,  0.19000000000E+002,  0.00000000000E+000,  0.10000000000E+001
  0.19328900000E+008,  0.20060959221E+007,  0.19000000000E+002,  0.00000000000E+000,  0.10000000000E+001
  0.19343900000E+008,  0.20061852426E+007,  0.19000000000E+002,  0.00000000000E+000,  0.10000000000E+001
  0.19358900000E+008,  0.20062955242E+007,  0.19000000000E+002,  0.00000000000E+000,  0.10000000000E+001
  0.19373900000E+008,  0.20063962006E+007,  0.19000000000E+002,  0.00000000000E+000,  0.10000000000E+001
  0.19388900000E+008,  0.20064845786E+007,  0.19000000000E+002,  0.00000000000E+000,  0.10000000000E+001
  0.19403900000E+008,  0.20055451707E+007,  0.19000000000E+002,  0.00000000000E+000,  0.10000000000E+001
  0.19418900000E+008,  0.20042561955E+007,  0.19000000000E+002,  0.00000000000E+000,  0.10000000000E+001
  0.19433900000E+008,  0.20032476519E+007,  0.19000000000E+002,  0.00000000000E+000,  0.10000000000E+001
  0.19448900000E+008,  0.20025374830E+007,  0.19000000000E+002,  0.00000000000E+000,  0.10000000000E+001
  0.19463900000E+008,  0.20020164525E+007,  0.19000000000E+002,  0.00000000000E+000,  0.10000000000E+001
  0.19478900000E+008,  0.20016572207E+007,  0.19000000000E+002,  0.00000000000E+000,  0.10000000000E+001
  0.19493900000E+008,  0.20014148907E+007,  0.19000000000E+002,  0.00000000000E+000,  0.10000000000E+001
  0.19508900000E+008,  0.20012799259E+007,  0.19000000000E+002,  0.00000000000E+000,  0.10000000000E+001
  0.19523900000E+008,  0.20012112621E+007,  0.19000000000E+002,  0.00000000000E+000,  0.10000000000E+001
  0.19538900000E+008,  0.20011702185E+007,  0.19000000000E+002,  0.00000000000E+000,  0.10000000000E+001
  0.19553900000E+008,  0.20011388557E+007,  0.19000000000E+002,  0.00000000000E+000,  0.10000000000E+001
  0.19568900000E+008,  0.20010791190E+007,  0.19000000000E+002,  0.00000000000E+000,  0.10000000000E+001
  0.19583900000E+008,  0.20010298270E+007,  0.19000000000E+002,  0.00000000000E+000,  0.10000000000E+001
  0.19598900000E+008,  0.20009950840E+007,  0.19000000000E+002,  0.00000000000E+000,  0.10000000000E+001
  0.19613900000E+008,  0.20009777037E+007,  0.19000000000E+002,  0.00000000000E+000,  0.10000000000E+001
  0.19628900000E+008,  0.20009719894E+007,  0.19000000000E+002,  0.00000000000E+000,  0.10000000000E+001
  0.19643900000E+008,  0.20009695220E+007,  0.19000000000E+002,  0.00000000000E+000,  0.10000000000E+001
  0.19658900000E+008,  0.20009709668E+007,  0.19000000000E+002,  0.00000000000E+000,  0.10000000000E+001
  0.19673900000E+008,  0.20010231164E+007,  0.19000000000E+002,  0.00000000000E+000,  0.10000000000E+001
  0.19688900000E+008,  0.20010703756E+007,  0.19000000000E+002,  0.00000000000E+000,  0.10000000000E+001
  0.19703900000E+008,  0.20011043624E+007,  0.19000000000E+002,  0.00000000000E+000,  0.10000000000E+001
  0.19718900000E+008,  0.20010942686E+007,  0.19000000000E+002,  0.00000000000E+000,  0.10000000000E+001
  0.19733900000E+008,  0.20010488208E+007,  0.19000000000E+002,  0.00000000000E+000,  0.10000000000E+001
  0.19748900000E+008,  0.20010094604E+007,  0.19000000000E+002,  0.00000000000E+000,  0.10000000000E+001
  0.19763900000E+008,  0.20009814449E+007,  0.19000000000E+002,  0.00000000000E+000,  0.10000000000E+001
  0.19778900000E+008,  0.20009676658E+007,  0.19000000000E+002,  0.00000000000E+000,  0.10000000000E+001
  0.19793900000E+008,  0.20009597394E+007,  0.19000000000E+002,  0.00000000000E+000,  0.10000000000E+001
  0.19805800000E+008,  0.20009554256E+007,  0.19000000000E+002,  0.00000000000E+000,  0.10000000000E+001
  0.19820800000E+008,  0.20009505241E+007,  0.19000000000E+002,  0.00000000000E+000,  0.10000000000E+001
  0.19835800000E+008,  0.20009429140E+007,  0.19000000000E+002,  0.00000000000E+000,  0.10000000000E+001
  0.19850800000E+008,  0.20009367891E+007,  0.19000000000E+002,  0.00000000000E+000,  0.10000000000E+001
  0.19865800000E+008,  0.20009324953E+007,  0.19000000000E+002,  0.00000000000E+000,  0.10000000000E+001
  0.19880800000E+008,  0.20009641942E+007,  0.19000000000E+002,  0.00000000000E+000,  0.10000000000E+001
  0.19895800000E+008,  0.20010072478E+007,  0.19000000000E+002,  0.00000000000E+000,  0.10000000000E+001
  0.19910800000E+008,  0.20010409201E+007,  0.19000000000E+002,  0.00000000000E+000,  0.10000000000E+001
  0.19925800000E+008,  0.20010653704E+007,  0.19000000000E+002,  0.00000000000E+000,  0.10000000000E+001
  0.19940800000E+008,  0.20010865115E+007,  0.19000000000E+002,  0.00000000000E+000,  0.10000000000E+001
  0.19955800000E+008,  0.20011018164E+007,  0.19000000000E+002,  0.00000000000E+000,  0.10000000000E+001
  0.19970800000E+008,  0.20011122977E+007,  0.19000000000E+002,  0.00000000000E+000,  0.10000000000E+001
  0.19985800000E+008,  0.20010844170E+007,  0.19000000000E+002,  0.00000000000E+000,  0.10000000000E+001
  0.20000800000E+008,  0.20010387486E+007,  0.19000000000E+002,  0.00000000000E+000,  0.10000000000E+001
  0.20015800000E+008,  0.20010020819E+007,  0.19000000000E+002,  0.00000000000E+000,  0.10000000000E+001
  0.20030800000E+008,  0.20009764023E+007,  0.19000000000E+002,  0.00000000000E+000,  0.10000000000E+001
  0.20045800000E+008,  0.20009590129E+007,  0.19000000000E+002,  0.00000000000E+000,  0.10000000000E+001
  0.20060800000E+008,  0.20009473384E+007,  0.19000000000E+002,  0.00000000000E+000,  0.10000000000E+001
  0.20075800000E+008,  0.20009395179E+007,  0.19000000000E+002,  0.00000000000E+000,  0.10000000000E+001
  0.20090800000E+008,  0.20009596969E+007,  0.19000000000E+002,  0.00000000000E+000,  0.10000000000E+001
  0.20105800000E+008,  0.20009967897E+007,  0.19000000000E+002,  0.00000000000E+000,  0.10000000000E+001
  0.20120800000E+008,  0.20010270208E+007,  0.19000000000E+002,  0.00000000000E+000,  0.10000000000E+001
  0.20135800000E+008,  0.20010457068E+007,  0.19000000000E+002,  0.00000000000E+000,  0.10000000000E+001
  0.20150800000E+008,  0.20010174913E+007,  0.19000000000E+002,  0.00000000000E+000,  0.10000000000E+001
  0.20165800000E+008,  0.20009887483E+007,  0.19000000000E+002,  0.00000000000E+000,  0.10000000000E+001
  0.20180800000E+008,  0.20009676393E+007,  0.19000000000E+002,  0.00000000000E+000,  0.10000000000E+001
  0.20195800000E+008,  0.20009531772E+007,  0.19000000000E+002,  0.00000000000E+000,  0.10000000000E+001
  0.20210800000E+008,  0.20009434385E+007,  0.19000000000E+002,  0.00000000000E+000,  0.10000000000E+001
  0.20225800000E+008,  0.20009369093E+007,  0.19000000000E+002,  0.00000000000E+000,  0.10000000000E+001
  0.20240800000E+008,  0.20009325369E+007,  0.19000000000E+002,  0.00000000000E+000,  0.10000000000E+001
  0.20255800000E+008,  0.20009296096E+007,  0.19000000000E+002,  0.00000000000E+000,  0.10000000000E+001
  0.20270800000E+008,  0.20009276499E+007,  0.19000000000E+002,  0.00000000000E+000,  0.10000000000E+001
  0.20285800000E+008,  0.20009263381E+007,  0.19000000000E+002,  0.00000000000E+000,  0.10000000000E+001
  0.20300800000E+008,  0.20009429831E+007,  0.19000000000E+002,  0.00000000000E+000,  0.10000000000E+001
  0.20315800000E+008,  0.20009784060E+007,  0.19000000000E+002,  0.00000000000E+000,  0.10000000000E+001
  0.20330800000E+008,  0.20010077908E+007,  0.19000000000E+002,  0.00000000000E+000,  0.10000000000E+001
  0.20345800000E+008,  0.20010285366E+007,  0.19000000000E+002,  0.00000000000E+000,  0.10000000000E+001
  0.20360800000E+008,  0.20010075566E+007,  0.19000000000E+002,  0.00000000000E+000,  0.10000000000E+001
  0.20375800000E+008,  0.20009825341E+007,  0.19000000000E+002,  0.00000000000E+000,  0.10000000000E+001
  0.20390800000E+008,  0.20009635667E+007,  0.19000000000E+002,  0.00000000000E+000,  0.10000000000E+001
  0.20405800000E+008,  0.20009740951E+007,  0.19000000000E+002,  0.00000000000E+000,  0.10000000000E+001
  0.20420800000E+008,  0.20010222571E+007,  0.19000000000E+002,  0.00000000000E+000,  0.10000000000E+001
  0.20435800000E+008,  0.20010641972E+007,  0.19000000000E+002,  0.00000000000E+000,  0.10000000000E+001
  0.20450800000E+008,  0.20010941246E+007,  0.19000000000E+002,  0.00000000000E+000,  0.10000000000E+001
  0.20465800000E+008,  0.20011098654E+007,  0.19000000000E+002,  0.00000000000E+000,  0.10000000000E+001
  0.20480800000E+008,  0.20011186429E+007,  0.19000000000E+002,  0.00000000000E+000,  0.10000000000E+001
  0.20495800000E+008,  0.20011241665E+007,  0.19000000000E+002,  0.00000000000E+000,  0.10000000000E+001
  0.20510800000E+008,  0.20011717641E+007,  0.19000000000E+002,  0.00000000000E+000,  0.10000000000E+001
  0.20525800000E+008,  0.20012997160E+007,  0.19000000000E+002,  0.00000000000E+000,  0.10000000000E+001
  0.20540800000E+008,  0.20014083648E+007,  0.19000000000E+002,  0.00000000000E+000,  0.10000000000E+001
  0.20555800000E+008,  0.20014856778E+007,  0.19000000000E+002,  0.00000000000E+000,  0.10000000000E+001
  0.20570800000E+008,  0.20015343491E+007,  0.19000000000E+002,  0.00000000000E+000,  0.10000000000E+001
  0.20585800000E+008,  0.20015653482E+007,  0.19000000000E+002,  0.00000000000E+000,  0.10000000000E+001
  0.20600800000E+008,  0.20015859690E+007,  0.19000000000E+002,  0.00000000000E+000,  0.10000000000E+001
  0.20615800000E+008,  0.20016030184E+007,  0.19000000000E+002,  0.00000000000E+000,  0.10000000000E+001
  0.20630800000E+008,  0.20016235429E+007,  0.19000000000E+002,  0.00000000000E+000,  0.10000000000E+001
  0.20645800000E+008,  0.20016397058E+007,  0.19000000000E+002,  0.00000000000E+000,  0.10000000000E+001
  0.20660800000E+008,  0.20016512409E+007,  0.19000000000E+002,  0.00000000000E+000,  0.10000000000E+001
  0.20675800000E+008,  0.20016555239E+007,  0.19000000000E+002,  0.00000000000E+000,  0.10000000000E+001
  0.20690800000E+008,  0.20016564247E+007,  0.19000000000E+002,  0.00000000000E+000,  0.10000000000E+001
  0.20705800000E+008,  0.20016568152E+007,  0.19000000000E+002,  0.00000000000E+000,  0.10000000000E+001
  0.20720800000E+008,  0.20016585024E+007,  0.19000000000E+002,  0.00000000000E+000,  0.10000000000E+001
  0.20735800000E+008,  0.20016647480E+007,  0.19000000000E+002,  0.00000000000E+000,  0.10000000000E+001
  0.20750800000E+008,  0.20016704050E+007,  0.19000000000E+002,  0.00000000000E+000,  0.10000000000E+001
  0.20765800000E+008,  0.20016747269E+007,  0.19000000000E+002,  0.00000000000E+000,  0.10000000000E+001
