"           TIME(S)","              PRES","              TEMP","             SAT_G","             SAT_L"
  0.18228740000E+008,  0.20003516251E+007,  0.19000000000E+002,  0.00000000000E+000,  0.10000000000E+001
  0.18228890000E+008,  0.20009040006E+007,  0.19000000000E+002,  0.00000000000E+000,  0.10000000000E+001
  0.18229040000E+008,  0.20012968370E+007,  0.19000000000E+002,  0.00000000000E+000,  0.10000000000E+001
  0.18229190000E+008,  0.20016570552E+007,  0.19000000000E+002,  0.00000000000E+000,  0.10000000000E+001
  0.18229340000E+008,  0.20020075032E+007,  0.19000000000E+002,  0.00000000000E+000,  0.10000000000E+001
  0.18229490000E+008,  0.20023523451E+007,  0.19000000000E+002,  0.00000000000E+000,  0.10000000000E+001
  0.18229640000E+008,  0.20026571954E+007,  0.19000000000E+002,  0.00000000000E+000,  0.10000000000E+001
  0.18229715000E+008,  0.20027797738E+007,  0.19000000000E+002,  0.00000000000E+000,  0.10000000000E+001
  0.18229865000E+008,  0.20030170246E+007,  0.19000000000E+002,  0.00000000000E+000,  0.10000000000E+001
  0.18230015000E+008,  0.20032745766E+007,  0.19000000000E+002,  0.00000000000E+000,  0.10000000000E+001
  0.18230165000E+008,  0.20035521395E+007,  0.19000000000E+002,  0.00000000000E+000,  0.10000000000E+001
  0.18230315000E+008,  0.20038426143E+007,  0.19000000000E+002,  0.00000000000E+000,  0.10000000000E+001
  0.18230465000E+008,  0.20041394371E+007,  0.19000000000E+002,  0.00000000000E+000,  0.10000000000E+001
  0.18230615000E+008,  0.20044458907E+007,  0.19000000000E+002,  0.00000000000E+000,  0.10000000000E+001
  0.18230690001E+008,  0.20046046990E+007,  0.19000000000E+002,  0.00000000000E+000,  0.10000000000E+001
  0.18230727501E+008,  0.20046856106E+007,  0.19000000000E+002,  0.00000000000E+000,  0.10000000000E+001
  0.18230877501E+008,  0.20050189102E+007,  0.19000000000E+002,  0.00000000000E+000,  0.10000000000E+001
  0.18231027501E+008,  0.20053533266E+007,  0.19000000000E+002,  0.00000000000E+000,  0.10000000000E+001
  0.18231102502E+008,  0.20055178331E+007,  0.19000000000E+002,  0.00000000000E+000,  0.10000000000E+001
  0.18231140002E+008,  0.20055969972E+007,  0.19000000000E+002,  0.00000000000E+000,  0.10000000000E+001
  0.18231158752E+008,  0.20056359525E+007,  0.19000000000E+002,  0.00000000000E+000,  0.10000000000E+001
  0.18231168128E+008,  0.20056556803E+007,  0.19000000000E+002,  0.00000000000E+000,  0.10000000000E+001
  0.18231215004E+008,  0.20057481044E+007,  0.19000000000E+002,  0.00000000000E+000,  0.10000000000E+001
  0.18231365004E+008,  0.20060224531E+007,  0.19000000000E+002,  0.00000000000E+000,  0.10000000000E+001
  0.18231440004E+008,  0.20061560363E+007,  0.19000000000E+002,  0.00000000000E+000,  0.10000000000E+001
  0.18231477505E+008,  0.20062225749E+007,  0.19000000000E+002,  0.00000000000E+000,  0.10000000000E+001
  0.18231496255E+008,  0.20062558557E+007,  0.19000000000E+002,  0.00000000000E+000,  0.10000000000E+001
  0.18231505630E+008,  0.20062725144E+007,  0.19000000000E+002,  0.00000000000E+000,  0.10000000000E+001
  0.18231552506E+008,  0.20063566837E+007,  0.19000000000E+002,  0.00000000000E+000,  0.10000000000E+001
  0.18231702506E+008,  0.20066353926E+007,  0.19000000000E+002,  0.00000000000E+000,  0.10000000000E+001
  0.18231777507E+008,  0.20067764641E+007,  0.19000000000E+002,  0.00000000000E+000,  0.10000000000E+001
  0.18231927507E+008,  0.20070663646E+007,  0.19000000000E+002,  0.00000000000E+000,  0.10000000000E+001
  0.18232002507E+008,  0.20072141372E+007,  0.19000000000E+002,  0.00000000000E+000,  0.10000000000E+001
  0.18232040008E+008,  0.20072892464E+007,  0.19000000000E+002,  0.00000000000E+000,  0.10000000000E+001
  0.18232058758E+008,  0.20073269152E+007,  0.19000000000E+002,  0.00000000000E+000,  0.10000000000E+001
  0.18232068133E+008,  0.20073457971E+007,  0.19000000000E+002,  0.00000000000E+000,  0.10000000000E+001
  0.18232072821E+008,  0.20073552432E+007,  0.19000000000E+002,  0.00000000000E+000,  0.10000000000E+001
  0.18232096259E+008,  0.20074021315E+007,  0.19000000000E+002,  0.00000000000E+000,  0.10000000000E+001
  0.18232107978E+008,  0.20074255528E+007,  0.19000000000E+002,  0.00000000000E+000,  0.10000000000E+001
  0.18232113838E+008,  0.20074372635E+007,  0.19000000000E+002,  0.00000000000E+000,  0.10000000000E+001
  0.18232143136E+008,  0.20074950738E+007,  0.19000000000E+002,  0.00000000000E+000,  0.10000000000E+001
  0.18232157785E+008,  0.20075236579E+007,  0.19000000000E+002,  0.00000000000E+000,  0.10000000000E+001
  0.18232231031E+008,  0.20076563996E+007,  0.19000000000E+002,  0.00000000000E+000,  0.10000000000E+001
  0.18232381031E+008,  0.20078944808E+007,  0.19000000000E+002,  0.00000000000E+000,  0.10000000000E+001
  0.18232456032E+008,  0.20080044772E+007,  0.19000000000E+002,  0.00000000000E+000,  0.10000000000E+001
  0.18232493532E+008,  0.20080567743E+007,  0.19000000000E+002,  0.00000000000E+000,  0.10000000000E+001
  0.18232512282E+008,  0.20080822275E+007,  0.19000000000E+002,  0.00000000000E+000,  0.10000000000E+001
  0.18232606034E+008,  0.20081942535E+007,  0.19000000000E+002,  0.00000000000E+000,  0.10000000000E+001
  0.18232756034E+008,  0.20083397398E+007,  0.19000000000E+002,  0.00000000000E+000,  0.10000000000E+001
  0.18232906034E+008,  0.20084549362E+007,  0.19000000000E+002,  0.00000000000E+000,  0.10000000000E+001
  0.18233056034E+008,  0.20085465232E+007,  0.19000000000E+002,  0.00000000000E+000,  0.10000000000E+001
  0.18233206034E+008,  0.20086217847E+007,  0.19000000000E+002,  0.00000000000E+000,  0.10000000000E+001
  0.18233356034E+008,  0.20086876320E+007,  0.19000000000E+002,  0.00000000000E+000,  0.10000000000E+001
  0.18233506034E+008,  0.20087500993E+007,  0.19000000000E+002,  0.00000000000E+000,  0.10000000000E+001
  0.18233656034E+008,  0.20088140991E+007,  0.19000000000E+002,  0.00000000000E+000,  0.10000000000E+001
  0.18233806034E+008,  0.20088833785E+007,  0.19000000000E+002,  0.00000000000E+000,  0.10000000000E+001
  0.18233956034E+008,  0.20089606119E+007,  0.19000000000E+002,  0.00000000000E+000,  0.10000000000E+001
  0.18234106034E+008,  0.20090475634E+007,  0.19000000000E+002,  0.00000000000E+000,  0.10000000000E+001
  0.18234256034E+008,  0.20091452718E+007,  0.19000000000E+002,  0.00000000000E+000,  0.10000000000E+001
  0.18234406034E+008,  0.20092542236E+007,  0.19000000000E+002,  0.00000000000E+000,  0.10000000000E+001
  0.18234556034E+008,  0.20093745037E+007,  0.19000000000E+002,  0.00000000000E+000,  0.10000000000E+001
  0.18234706034E+008,  0.20095059124E+007,  0.19000000000E+002,  0.00000000000E+000,  0.10000000000E+001
  0.18234856034E+008,  0.20096480626E+007,  0.19000000000E+002,  0.00000000000E+000,  0.10000000000E+001
  0.18235006034E+008,  0.20098004490E+007,  0.19000000000E+002,  0.00000000000E+000,  0.10000000000E+001
  0.18235156034E+008,  0.20099624990E+007,  0.19000000000E+002,  0.00000000000E+000,  0.10000000000E+001
  0.18235306034E+008,  0.20101336093E+007,  0.19000000000E+002,  0.00000000000E+000,  0.10000000000E+001
  0.18235456034E+008,  0.20103131709E+007,  0.19000000000E+002,  0.00000000000E+000,  0.10000000000E+001
  0.18235606034E+008,  0.20105005872E+007,  0.19000000000E+002,  0.00000000000E+000,  0.10000000000E+001
  0.18235756034E+008,  0.20106952843E+007,  0.19000000000E+002,  0.00000000000E+000,  0.10000000000E+001
  0.18235906034E+008,  0.20108967193E+007,  0.19000000000E+002,  0.00000000000E+000,  0.10000000000E+001
  0.18236056034E+008,  0.20111043834E+007,  0.19000000000E+002,  0.00000000000E+000,  0.10000000000E+001
  0.18236206034E+008,  0.20113178042E+007,  0.19000000000E+002,  0.00000000000E+000,  0.10000000000E+001
  0.18236356034E+008,  0.20115365456E+007,  0.19000000000E+002,  0.00000000000E+000,  0.10000000000E+001
  0.18236506034E+008,  0.20117602075E+007,  0.19000000000E+002,  0.00000000000E+000,  0.10000000000E+001
  0.18236656034E+008,  0.20119884241E+007,  0.19000000000E+002,  0.00000000000E+000,  0.10000000000E+001
  0.18236806034E+008,  0.20122208622E+007,  0.19000000000E+002,  0.00000000000E+000,  0.10000000000E+001
  0.18236956034E+008,  0.20124572186E+007,  0.19000000000E+002,  0.00000000000E+000,  0.10000000000E+001
  0.18237106034E+008,  0.20126972185E+007,  0.19000000000E+002,  0.00000000000E+000,  0.10000000000E+001
  0.18237256034E+008,  0.20129406128E+007,  0.19000000000E+002,  0.00000000000E+000,  0.10000000000E+001
  0.18237406034E+008,  0.20131871760E+007,  0.19000000000E+002,  0.00000000000E+000,  0.10000000000E+001
  0.18237556034E+008,  0.20134367041E+007,  0.19000000000E+002,  0.00000000000E+000,  0.10000000000E+001
  0.18237706034E+008,  0.20136890128E+007,  0.19000000000E+002,  0.00000000000E+000,  0.10000000000E+001
  0.18237856034E+008,  0.20139439349E+007,  0.19000000000E+002,  0.00000000000E+000,  0.10000000000E+001
  0.18238006034E+008,  0.20142013196E+007,  0.19000000000E+002,  0.00000000000E+000,  0.10000000000E+001
  0.18238156034E+008,  0.20144610299E+007,  0.19000000000E+002,  0.00000000000E+000,  0.10000000000E+001
  0.18238306034E+008,  0.20147229417E+007,  0.19000000000E+002,  0.00000000000E+000,  0.10000000000E+001
  0.18238456034E+008,  0.20149869424E+007,  0.19000000000E+002,  0.00000000000E+000,  0.10000000000E+001
  0.18238606034E+008,  0.20152529296E+007,  0.19000000000E+002,  0.00000000000E+000,  0.10000000000E+001
  0.18238756034E+008,  0.20155208100E+007,  0.19000000000E+002,  0.00000000000E+000,  0.10000000000E+001
  0.18238906034E+008,  0.20157904985E+007,  0.19000000000E+002,  0.00000000000E+000,  0.10000000000E+001
  0.18239056034E+008,  0.20160619174E+007,  0.19000000000E+002,  0.00000000000E+000,  0.10000000000E+001
  0.18239206034E+008,  0.20163349954E+007,  0.19000000000E+002,  0.00000000000E+000,  0.10000000000E+001
  0.18239356034E+008,  0.20166096670E+007,  0.19000000000E+002,  0.00000000000E+000,  0.10000000000E+001
  0.18239506034E+008,  0.20168858719E+007,  0.19000000000E+002,  0.00000000000E+000,  0.10000000000E+001
  0.18239656034E+008,  0.20171635545E+007,  0.19000000000E+002,  0.00000000000E+000,  0.10000000000E+001
  0.18239806034E+008,  0.20174426634E+007,  0.19000000000E+002,  0.00000000000E+000,  0.10000000000E+001
  0.18239956034E+008,  0.20177231508E+007,  0.19000000000E+002,  0.00000000000E+000,  0.10000000000E+001
  0.18240106034E+008,  0.20180049724E+007,  0.19000000000E+002,  0.00000000000E+000,  0.10000000000E+001
  0.18240256034E+008,  0.20182880866E+007,  0.19000000000E+002,  0.00000000000E+000,  0.10000000000E+001
  0.18240406034E+008,  0.20185724547E+007,  0.19000000000E+002,  0.00000000000E+000,  0.10000000000E+001
  0.18240556034E+008,  0.20188580404E+007,  0.19000000000E+002,  0.00000000000E+000,  0.10000000000E+001
  0.18240706034E+008,  0.20191448095E+007,  0.19000000000E+002,  0.00000000000E+000,  0.10000000000E+001
  0.18240856034E+008,  0.20194327299E+007,  0.19000000000E+002,  0.00000000000E+000,  0.10000000000E+001
  0.18241006034E+008,  0.20197217710E+007,  0.19000000000E+002,  0.00000000000E+000,  0.10000000000E+001
  0.18241156034E+008,  0.20200119041E+007,  0.19000000000E+002,  0.00000000000E+000,  0.10000000000E+001
  0.18241306034E+008,  0.20203031018E+007,  0.19000000000E+002,  0.00000000000E+000,  0.10000000000E+001
  0.18241456034E+008,  0.20205953379E+007,  0.19000000000E+002,  0.00000000000E+000,  0.10000000000E+001
  0.18241606034E+008,  0.20208885878E+007,  0.19000000000E+002,  0.00000000000E+000,  0.10000000000E+001
  0.18241756034E+008,  0.20211828276E+007,  0.19000000000E+002,  0.00000000000E+000,  0.10000000000E+001
  0.18241906034E+008,  0.20214780346E+007,  0.19000000000E+002,  0.00000000000E+000,  0.10000000000E+001
  0.18242056034E+008,  0.20217741871E+007,  0.19000000000E+002,  0.00000000000E+000,  0.10000000000E+001
  0.18242206034E+008,  0.20220712640E+007,  0.19000000000E+002,  0.00000000000E+000,  0.10000000000E+001
  0.18242356034E+008,  0.20223692452E+007,  0.19000000000E+002,  0.00000000000E+000,  0.10000000000E+001
  0.18242506034E+008,  0.20226681113E+007,  0.19000000000E+002,  0.00000000000E+000,  0.10000000000E+001
  0.18242656034E+008,  0.20229678435E+007,  0.19000000000E+002,  0.00000000000E+000,  0.10000000000E+001
  0.18242806034E+008,  0.20232684237E+007,  0.19000000000E+002,  0.00000000000E+000,  0.10000000000E+001
  0.18242956034E+008,  0.20235698344E+007,  0.19000000000E+002,  0.00000000000E+000,  0.10000000000E+001
  0.18243106034E+008,  0.20238720587E+007,  0.19000000000E+002,  0.00000000000E+000,  0.10000000000E+001
  0.18243256034E+008,  0.20241750799E+007,  0.19000000000E+002,  0.00000000000E+000,  0.10000000000E+001
  0.18243406034E+008,  0.20244788823E+007,  0.19000000000E+002,  0.00000000000E+000,  0.10000000000E+001
  0.18243556034E+008,  0.20247834501E+007,  0.19000000000E+002,  0.00000000000E+000,  0.10000000000E+001
  0.18243706034E+008,  0.20250887684E+007,  0.19000000000E+002,  0.00000000000E+000,  0.10000000000E+001
  0.18243856034E+008,  0.20253948224E+007,  0.19000000000E+002,  0.00000000000E+000,  0.10000000000E+001
  0.18244006034E+008,  0.20257015979E+007,  0.19000000000E+002,  0.00000000000E+000,  0.10000000000E+001
  0.18244156034E+008,  0.20260090809E+007,  0.19000000000E+002,  0.00000000000E+000,  0.10000000000E+001
  0.18244306034E+008,  0.20263172578E+007,  0.19000000000E+002,  0.00000000000E+000,  0.10000000000E+001
  0.18244456034E+008,  0.20266261153E+007,  0.19000000000E+002,  0.00000000000E+000,  0.10000000000E+001
  0.18244606034E+008,  0.20269356407E+007,  0.19000000000E+002,  0.00000000000E+000,  0.10000000000E+001
  0.18244756034E+008,  0.20272458211E+007,  0.19000000000E+002,  0.00000000000E+000,  0.10000000000E+001
  0.18244906034E+008,  0.20275566443E+007,  0.19000000000E+002,  0.00000000000E+000,  0.10000000000E+001
  0.18245056034E+008,  0.20278680982E+007,  0.19000000000E+002,  0.00000000000E+000,  0.10000000000E+001
  0.18245206034E+008,  0.20281801710E+007,  0.19000000000E+002,  0.00000000000E+000,  0.10000000000E+001
  0.18245356034E+008,  0.20284928512E+007,  0.19000000000E+002,  0.00000000000E+000,  0.10000000000E+001
  0.18245506034E+008,  0.20288061276E+007,  0.19000000000E+002,  0.00000000000E+000,  0.10000000000E+001
  0.18245656034E+008,  0.20291199891E+007,  0.19000000000E+002,  0.00000000000E+000,  0.10000000000E+001
  0.18245806034E+008,  0.20294344248E+007,  0.19000000000E+002,  0.00000000000E+000,  0.10000000000E+001
  0.18245956034E+008,  0.20297494243E+007,  0.19000000000E+002,  0.00000000000E+000,  0.10000000000E+001
  0.18246106034E+008,  0.20300649772E+007,  0.19000000000E+002,  0.00000000000E+000,  0.10000000000E+001
  0.18246256034E+008,  0.20303810733E+007,  0.19000000000E+002,  0.00000000000E+000,  0.10000000000E+001
  0.18246406034E+008,  0.20306977026E+007,  0.19000000000E+002,  0.00000000000E+000,  0.10000000000E+001
  0.18246556034E+008,  0.20310148556E+007,  0.19000000000E+002,  0.00000000000E+000,  0.10000000000E+001
  0.18246706034E+008,  0.20313325226E+007,  0.19000000000E+002,  0.00000000000E+000,  0.10000000000E+001
  0.18246856034E+008,  0.20316506942E+007,  0.19000000000E+002,  0.00000000000E+000,  0.10000000000E+001
  0.18247006034E+008,  0.20319693613E+007,  0.19000000000E+002,  0.00000000000E+000,  0.10000000000E+001
  0.18247156034E+008,  0.20322885150E+007,  0.19000000000E+002,  0.00000000000E+000,  0.10000000000E+001
  0.18247306034E+008,  0.20326081464E+007,  0.19000000000E+002,  0.00000000000E+000,  0.10000000000E+001
  0.18247456034E+008,  0.20329282468E+007,  0.19000000000E+002,  0.00000000000E+000,  0.10000000000E+001
  0.18247606034E+008,  0.20332488078E+007,  0.19000000000E+002,  0.00000000000E+000,  0.10000000000E+001
  0.18247756034E+008,  0.20335698211E+007,  0.19000000000E+002,  0.00000000000E+000,  0.10000000000E+001
  0.18247906034E+008,  0.20338912785E+007,  0.19000000000E+002,  0.00000000000E+000,  0.10000000000E+001
  0.18248056034E+008,  0.20342131720E+007,  0.19000000000E+002,  0.00000000000E+000,  0.10000000000E+001
  0.18248206034E+008,  0.20345354938E+007,  0.19000000000E+002,  0.00000000000E+000,  0.10000000000E+001
  0.18248356034E+008,  0.20348582361E+007,  0.19000000000E+002,  0.00000000000E+000,  0.10000000000E+001
  0.18248506034E+008,  0.20351813914E+007,  0.19000000000E+002,  0.00000000000E+000,  0.10000000000E+001
  0.18248656034E+008,  0.20355049524E+007,  0.19000000000E+002,  0.00000000000E+000,  0.10000000000E+001
  0.18248806034E+008,  0.20358289116E+007,  0.19000000000E+002,  0.00000000000E+000,  0.10000000000E+001
  0.18248956034E+008,  0.20361532619E+007,  0.19000000000E+002,  0.00000000000E+000,  0.10000000000E+001
  0.18249106034E+008,  0.20364779964E+007,  0.19000000000E+002,  0.00000000000E+000,  0.10000000000E+001
  0.18249256034E+008,  0.20368031082E+007,  0.19000000000E+002,  0.00000000000E+000,  0.10000000000E+001
  0.18249406034E+008,  0.20371285904E+007,  0.19000000000E+002,  0.00000000000E+000,  0.10000000000E+001
  0.18249556034E+008,  0.20374544365E+007,  0.19000000000E+002,  0.00000000000E+000,  0.10000000000E+001
  0.18249706034E+008,  0.20377806399E+007,  0.19000000000E+002,  0.00000000000E+000,  0.10000000000E+001
  0.18249856034E+008,  0.20381071943E+007,  0.19000000000E+002,  0.00000000000E+000,  0.10000000000E+001
  0.18250006034E+008,  0.20384340933E+007,  0.19000000000E+002,  0.00000000000E+000,  0.10000000000E+001
  0.18250156034E+008,  0.20387613309E+007,  0.19000000000E+002,  0.00000000000E+000,  0.10000000000E+001
  0.18250306034E+008,  0.20390889008E+007,  0.19000000000E+002,  0.00000000000E+000,  0.10000000000E+001
  0.18250456034E+008,  0.20394167973E+007,  0.19000000000E+002,  0.00000000000E+000,  0.10000000000E+001
  0.18250606034E+008,  0.20397450144E+007,  0.19000000000E+002,  0.00000000000E+000,  0.10000000000E+001
  0.18250756034E+008,  0.20400735465E+007,  0.19000000000E+002,  0.00000000000E+000,  0.10000000000E+001
  0.18250906034E+008,  0.20404023878E+007,  0.19000000000E+002,  0.00000000000E+000,  0.10000000000E+001
  0.18251056034E+008,  0.20407315329E+007,  0.19000000000E+002,  0.00000000000E+000,  0.10000000000E+001
  0.18251206034E+008,  0.20410609764E+007,  0.19000000000E+002,  0.00000000000E+000,  0.10000000000E+001
  0.18251356034E+008,  0.20413907128E+007,  0.19000000000E+002,  0.00000000000E+000,  0.10000000000E+001
  0.18251506034E+008,  0.20417207370E+007,  0.19000000000E+002,  0.00000000000E+000,  0.10000000000E+001
  0.18251656034E+008,  0.20420510439E+007,  0.19000000000E+002,  0.00000000000E+000,  0.10000000000E+001
  0.18251806034E+008,  0.20423816283E+007,  0.19000000000E+002,  0.00000000000E+000,  0.10000000000E+001
  0.18251956034E+008,  0.20427124853E+007,  0.19000000000E+002,  0.00000000000E+000,  0.10000000000E+001
  0.18252106034E+008,  0.20430436100E+007,  0.19000000000E+002,  0.00000000000E+000,  0.10000000000E+001
  0.18252256034E+008,  0.20433749977E+007,  0.19000000000E+002,  0.00000000000E+000,  0.10000000000E+001
  0.18252406034E+008,  0.20437066436E+007,  0.19000000000E+002,  0.00000000000E+000,  0.10000000000E+001
  0.18252556034E+008,  0.20440385432E+007,  0.19000000000E+002,  0.00000000000E+000,  0.10000000000E+001
  0.18252706034E+008,  0.20443706918E+007,  0.19000000000E+002,  0.00000000000E+000,  0.10000000000E+001
  0.18252856034E+008,  0.20447030850E+007,  0.19000000000E+002,  0.00000000000E+000,  0.10000000000E+001
  0.18253006034E+008,  0.20450357185E+007,  0.19000000000E+002,  0.00000000000E+000,  0.10000000000E+001
  0.18253156034E+008,  0.20453685880E+007,  0.19000000000E+002,  0.00000000000E+000,  0.10000000000E+001
  0.18253306034E+008,  0.20457016891E+007,  0.19000000000E+002,  0.00000000000E+000,  0.10000000000E+001
  0.18253456034E+008,  0.20460350178E+007,  0.19000000000E+002,  0.00000000000E+000,  0.10000000000E+001
  0.18253606034E+008,  0.20463685700E+007,  0.19000000000E+002,  0.00000000000E+000,  0.10000000000E+001
  0.18253756034E+008,  0.20467023417E+007,  0.19000000000E+002,  0.00000000000E+000,  0.10000000000E+001
