"           TIME(S)","              PRES","              TEMP","             SAT_G","             SAT_L"
  0.50000000000E+000,  0.20000001281E+007,  0.19000000000E+002,  0.10000000000E+001,  0.00000000000E+000
  0.25000000000E+001,  0.20000005620E+007,  0.19000000000E+002,  0.10000000000E+001,  0.00000000000E+000
  0.45000000000E+001,  0.20000009683E+007,  0.19000000000E+002,  0.10000000000E+001,  0.00000000000E+000
  0.65000000000E+001,  0.20000013630E+007,  0.19000000000E+002,  0.10000000000E+001,  0.00000000000E+000
  0.85000000000E+001,  0.20000017523E+007,  0.19000000000E+002,  0.10000000000E+001,  0.00000000000E+000
  0.10500000000E+002,  0.20000021397E+007,  0.19000000000E+002,  0.10000000000E+001,  0.00000000000E+000
  0.12500000000E+002,  0.20000025275E+007,  0.19000000000E+002,  0.10000000000E+001,  0.00000000000E+000
  0.14500000000E+002,  0.20000029172E+007,  0.19000000000E+002,  0.10000000000E+001,  0.00000000000E+000
  0.16500000000E+002,  0.20000033101E+007,  0.19000000000E+002,  0.10000000000E+001,  0.00000000000E+000
  0.18500000000E+002,  0.20000037075E+007,  0.19000000000E+002,  0.10000000000E+001,  0.00000000000E+000
  0.20500000000E+002,  0.20000041101E+007,  0.19000000000E+002,  0.10000000000E+001,  0.00000000000E+000
  0.22500000000E+002,  0.20000045188E+007,  0.19000000000E+002,  0.10000000000E+001,  0.00000000000E+000
  0.24500000000E+002,  0.20000049344E+007,  0.19000000000E+002,  0.10000000000E+001,  0.00000000000E+000
  0.26500000000E+002,  0.20000053574E+007,  0.19000000000E+002,  0.10000000000E+001,  0.00000000000E+000
  0.28500000000E+002,  0.20000057886E+007,  0.19000000000E+002,  0.10000000000E+001,  0.00000000000E+000
  0.30500000000E+002,  0.20000062284E+007,  0.19000000000E+002,  0.10000000000E+001,  0.00000000000E+000
  0.32500000000E+002,  0.20000066773E+007,  0.19000000000E+002,  0.10000000000E+001,  0.00000000000E+000
  0.34500000000E+002,  0.20000071359E+007,  0.19000000000E+002,  0.10000000000E+001,  0.00000000000E+000
  0.36500000000E+002,  0.20000076044E+007,  0.19000000000E+002,  0.10000000000E+001,  0.00000000000E+000
  0.38500000000E+002,  0.20000080833E+007,  0.19000000000E+002,  0.10000000000E+001,  0.00000000000E+000
  0.40500000000E+002,  0.20000085729E+007,  0.19000000000E+002,  0.10000000000E+001,  0.00000000000E+000
  0.42500000000E+002,  0.20000090735E+007,  0.19000000000E+002,  0.10000000000E+001,  0.00000000000E+000
  0.44500000000E+002,  0.20000095852E+007,  0.19000000000E+002,  0.10000000000E+001,  0.00000000000E+000
  0.46500000000E+002,  0.20000101084E+007,  0.19000000000E+002,  0.10000000000E+001,  0.00000000000E+000
  0.48500000000E+002,  0.20000106431E+007,  0.19000000000E+002,  0.10000000000E+001,  0.00000000000E+000
  0.50500000000E+002,  0.20000111896E+007,  0.19000000000E+002,  0.10000000000E+001,  0.00000000000E+000
  0.52500000000E+002,  0.20000117478E+007,  0.19000000000E+002,  0.10000000000E+001,  0.00000000000E+000
  0.54500000000E+002,  0.20000123178E+007,  0.19000000000E+002,  0.10000000000E+001,  0.00000000000E+000
  0.56500000000E+002,  0.20000128997E+007,  0.19000000000E+002,  0.10000000000E+001,  0.00000000000E+000
  0.58500000000E+002,  0.20000134934E+007,  0.19000000000E+002,  0.10000000000E+001,  0.00000000000E+000
  0.60500000000E+002,  0.20000140989E+007,  0.19000000000E+002,  0.10000000000E+001,  0.00000000000E+000
  0.62500000000E+002,  0.20000147161E+007,  0.19000000000E+002,  0.10000000000E+001,  0.00000000000E+000
  0.64500000000E+002,  0.20000153450E+007,  0.19000000000E+002,  0.10000000000E+001,  0.00000000000E+000
  0.66500000000E+002,  0.20000159856E+007,  0.19000000000E+002,  0.10000000000E+001,  0.00000000000E+000
  0.68500000000E+002,  0.20000166375E+007,  0.19000000000E+002,  0.10000000000E+001,  0.00000000000E+000
  0.70500000000E+002,  0.20000173008E+007,  0.19000000000E+002,  0.10000000000E+001,  0.00000000000E+000
  0.72500000000E+002,  0.20000179754E+007,  0.19000000000E+002,  0.10000000000E+001,  0.00000000000E+000
  0.74500000000E+002,  0.20000186609E+007,  0.19000000000E+002,  0.10000000000E+001,  0.00000000000E+000
  0.76500000000E+002,  0.20000193573E+007,  0.19000000000E+002,  0.10000000000E+001,  0.00000000000E+000
  0.78500000000E+002,  0.20000200643E+007,  0.19000000000E+002,  0.10000000000E+001,  0.00000000000E+000
  0.80500000000E+002,  0.20000207818E+007,  0.19000000000E+002,  0.10000000000E+001,  0.00000000000E+000
  0.82500000000E+002,  0.20000215094E+007,  0.19000000000E+002,  0.10000000000E+001,  0.00000000000E+000
  0.84500000000E+002,  0.20000222470E+007,  0.19000000000E+002,  0.10000000000E+001,  0.00000000000E+000
  0.86500000000E+002,  0.20000229941E+007,  0.19000000000E+002,  0.10000000000E+001,  0.00000000000E+000
  0.88500000000E+002,  0.20000237504E+007,  0.19000000000E+002,  0.10000000000E+001,  0.00000000000E+000
  0.90500000000E+002,  0.20000245156E+007,  0.19000000000E+002,  0.10000000000E+001,  0.00000000000E+000
  0.92500000000E+002,  0.20000252866E+007,  0.19000000000E+002,  0.10000000000E+001,  0.00000000000E+000
  0.94500000000E+002,  0.20000260645E+007,  0.19000000000E+002,  0.10000000000E+001,  0.00000000000E+000
  0.96500000000E+002,  0.20000268495E+007,  0.19000000000E+002,  0.10000000000E+001,  0.00000000000E+000
  0.98500000000E+002,  0.20000276413E+007,  0.19000000000E+002,  0.10000000000E+001,  0.00000000000E+000
  0.10050000000E+003,  0.20000284399E+007,  0.19000000000E+002,  0.10000000000E+001,  0.00000000000E+000
  0.10250000000E+003,  0.20000292452E+007,  0.19000000000E+002,  0.10000000000E+001,  0.00000000000E+000
  0.10450000000E+003,  0.20000300571E+007,  0.19000000000E+002,  0.10000000000E+001,  0.00000000000E+000
  0.10650000000E+003,  0.20000308756E+007,  0.19000000000E+002,  0.10000000000E+001,  0.00000000000E+000
  0.10850000000E+003,  0.20000317004E+007,  0.19000000000E+002,  0.10000000000E+001,  0.00000000000E+000
  0.11050000000E+003,  0.20000325317E+007,  0.19000000000E+002,  0.10000000000E+001,  0.00000000000E+000
  0.11250000000E+003,  0.20000333691E+007,  0.19000000000E+002,  0.10000000000E+001,  0.00000000000E+000
  0.11450000000E+003,  0.20000342126E+007,  0.19000000000E+002,  0.10000000000E+001,  0.00000000000E+000
  0.11650000000E+003,  0.20000350622E+007,  0.19000000000E+002,  0.10000000000E+001,  0.00000000000E+000
  0.11850000000E+003,  0.20000359177E+007,  0.19000000000E+002,  0.10000000000E+001,  0.00000000000E+000
  0.12050000000E+003,  0.20000367790E+007,  0.19000000000E+002,  0.10000000000E+001,  0.00000000000E+000
  0.12250000000E+003,  0.20000376460E+007,  0.19000000000E+002,  0.10000000000E+001,  0.00000000000E+000
  0.12450000000E+003,  0.20000385186E+007,  0.19000000000E+002,  0.10000000000E+001,  0.00000000000E+000
  0.12650000000E+003,  0.20000393967E+007,  0.19000000000E+002,  0.10000000000E+001,  0.00000000000E+000
  0.12850000000E+003,  0.20000402802E+007,  0.19000000000E+002,  0.10000000000E+001,  0.00000000000E+000
  0.13050000000E+003,  0.20000411690E+007,  0.19000000000E+002,  0.10000000000E+001,  0.00000000000E+000
  0.13250000000E+003,  0.20000420629E+007,  0.19000000000E+002,  0.10000000000E+001,  0.00000000000E+000
  0.13450000000E+003,  0.20000429619E+007,  0.19000000000E+002,  0.10000000000E+001,  0.00000000000E+000
  0.13650000000E+003,  0.20000438659E+007,  0.19000000000E+002,  0.10000000000E+001,  0.00000000000E+000
  0.13850000000E+003,  0.20000447748E+007,  0.19000000000E+002,  0.10000000000E+001,  0.00000000000E+000
  0.14050000000E+003,  0.20000456884E+007,  0.19000000000E+002,  0.10000000000E+001,  0.00000000000E+000
  0.14250000000E+003,  0.20000466067E+007,  0.19000000000E+002,  0.10000000000E+001,  0.00000000000E+000
  0.14450000000E+003,  0.20000475296E+007,  0.19000000000E+002,  0.10000000000E+001,  0.00000000000E+000
  0.14650000000E+003,  0.20000484570E+007,  0.19000000000E+002,  0.10000000000E+001,  0.00000000000E+000
  0.14850000000E+003,  0.20000493887E+007,  0.19000000000E+002,  0.10000000000E+001,  0.00000000000E+000
  0.15050000000E+003,  0.20000503247E+007,  0.19000000000E+002,  0.10000000000E+001,  0.00000000000E+000
  0.15250000000E+003,  0.20000512649E+007,  0.19000000000E+002,  0.10000000000E+001,  0.00000000000E+000
  0.15450000000E+003,  0.20000522092E+007,  0.19000000000E+002,  0.10000000000E+001,  0.00000000000E+000
  0.15650000000E+003,  0.20000531574E+007,  0.19000000000E+002,  0.10000000000E+001,  0.00000000000E+000
  0.15850000000E+003,  0.20000541096E+007,  0.19000000000E+002,  0.10000000000E+001,  0.00000000000E+000
  0.16050000000E+003,  0.20000550656E+007,  0.19000000000E+002,  0.10000000000E+001,  0.00000000000E+000
  0.16250000000E+003,  0.20000560254E+007,  0.19000000000E+002,  0.10000000000E+001,  0.00000000000E+000
  0.16450000000E+003,  0.20000569887E+007,  0.19000000000E+002,  0.10000000000E+001,  0.00000000000E+000
  0.16650000000E+003,  0.20000579557E+007,  0.19000000000E+002,  0.10000000000E+001,  0.00000000000E+000
  0.16850000000E+003,  0.20000589261E+007,  0.19000000000E+002,  0.10000000000E+001,  0.00000000000E+000
  0.17050000000E+003,  0.20000598999E+007,  0.19000000000E+002,  0.10000000000E+001,  0.00000000000E+000
  0.17250000000E+003,  0.20000608771E+007,  0.19000000000E+002,  0.10000000000E+001,  0.00000000000E+000
  0.17450000000E+003,  0.20000618574E+007,  0.19000000000E+002,  0.10000000000E+001,  0.00000000000E+000
  0.17650000000E+003,  0.20000628410E+007,  0.19000000000E+002,  0.10000000000E+001,  0.00000000000E+000
  0.17850000000E+003,  0.20000638276E+007,  0.19000000000E+002,  0.10000000000E+001,  0.00000000000E+000
  0.18050000000E+003,  0.20000648172E+007,  0.19000000000E+002,  0.10000000000E+001,  0.00000000000E+000
  0.18250000000E+003,  0.20000658098E+007,  0.19000000000E+002,  0.10000000000E+001,  0.00000000000E+000
  0.18450000000E+003,  0.20000668052E+007,  0.19000000000E+002,  0.10000000000E+001,  0.00000000000E+000
  0.18650000000E+003,  0.20000678034E+007,  0.19000000000E+002,  0.10000000000E+001,  0.00000000000E+000
  0.18850000000E+003,  0.20000688043E+007,  0.19000000000E+002,  0.10000000000E+001,  0.00000000000E+000
  0.19050000000E+003,  0.20000698078E+007,  0.19000000000E+002,  0.10000000000E+001,  0.00000000000E+000
  0.19250000000E+003,  0.20000708140E+007,  0.19000000000E+002,  0.10000000000E+001,  0.00000000000E+000
  0.19450000000E+003,  0.20000718227E+007,  0.19000000000E+002,  0.10000000000E+001,  0.00000000000E+000
  0.19650000000E+003,  0.20000728338E+007,  0.19000000000E+002,  0.10000000000E+001,  0.00000000000E+000
  0.19850000000E+003,  0.20000738473E+007,  0.19000000000E+002,  0.10000000000E+001,  0.00000000000E+000
  0.20050000000E+003,  0.20000748631E+007,  0.19000000000E+002,  0.10000000000E+001,  0.00000000000E+000
  0.20250000000E+003,  0.20000758811E+007,  0.19000000000E+002,  0.10000000000E+001,  0.00000000000E+000
  0.20450000000E+003,  0.20000769014E+007,  0.19000000000E+002,  0.10000000000E+001,  0.00000000000E+000
  0.20650000000E+003,  0.20000779238E+007,  0.19000000000E+002,  0.10000000000E+001,  0.00000000000E+000
  0.20850000000E+003,  0.20000789483E+007,  0.19000000000E+002,  0.10000000000E+001,  0.00000000000E+000
  0.21050000000E+003,  0.20000799748E+007,  0.19000000000E+002,  0.10000000000E+001,  0.00000000000E+000
  0.21250000000E+003,  0.20000810033E+007,  0.19000000000E+002,  0.10000000000E+001,  0.00000000000E+000
  0.21450000000E+003,  0.20000820337E+007,  0.19000000000E+002,  0.10000000000E+001,  0.00000000000E+000
  0.21650000000E+003,  0.20000830659E+007,  0.19000000000E+002,  0.10000000000E+001,  0.00000000000E+000
  0.21850000000E+003,  0.20000840999E+007,  0.19000000000E+002,  0.10000000000E+001,  0.00000000000E+000
  0.22050000000E+003,  0.20000851357E+007,  0.19000000000E+002,  0.10000000000E+001,  0.00000000000E+000
  0.22250000000E+003,  0.20000861732E+007,  0.19000000000E+002,  0.10000000000E+001,  0.00000000000E+000
  0.22450000000E+003,  0.20000872124E+007,  0.19000000000E+002,  0.10000000000E+001,  0.00000000000E+000
  0.22650000000E+003,  0.20000882531E+007,  0.19000000000E+002,  0.10000000000E+001,  0.00000000000E+000
  0.22850000000E+003,  0.20000892955E+007,  0.19000000000E+002,  0.10000000000E+001,  0.00000000000E+000
  0.23050000000E+003,  0.20000903393E+007,  0.19000000000E+002,  0.10000000000E+001,  0.00000000000E+000
  0.23250000000E+003,  0.20000913845E+007,  0.19000000000E+002,  0.10000000000E+001,  0.00000000000E+000
  0.23450000000E+003,  0.20000924312E+007,  0.19000000000E+002,  0.10000000000E+001,  0.00000000000E+000
  0.23650000000E+003,  0.20000934793E+007,  0.19000000000E+002,  0.10000000000E+001,  0.00000000000E+000
  0.23850000000E+003,  0.20000945287E+007,  0.19000000000E+002,  0.10000000000E+001,  0.00000000000E+000
  0.24050000000E+003,  0.20000955794E+007,  0.19000000000E+002,  0.10000000000E+001,  0.00000000000E+000
  0.24250000000E+003,  0.20000966313E+007,  0.19000000000E+002,  0.10000000000E+001,  0.00000000000E+000
  0.24450000000E+003,  0.20000976844E+007,  0.19000000000E+002,  0.10000000000E+001,  0.00000000000E+000
  0.24650000000E+003,  0.20000987387E+007,  0.19000000000E+002,  0.10000000000E+001,  0.00000000000E+000
  0.24850000000E+003,  0.20000997941E+007,  0.19000000000E+002,  0.10000000000E+001,  0.00000000000E+000
  0.25050000000E+003,  0.20001008506E+007,  0.19000000000E+002,  0.10000000000E+001,  0.00000000000E+000
  0.25250000000E+003,  0.20001019082E+007,  0.19000000000E+002,  0.10000000000E+001,  0.00000000000E+000
  0.25450000000E+003,  0.20001029668E+007,  0.19000000000E+002,  0.10000000000E+001,  0.00000000000E+000
  0.25650000000E+003,  0.20001040263E+007,  0.19000000000E+002,  0.10000000000E+001,  0.00000000000E+000
  0.25850000000E+003,  0.20001050868E+007,  0.19000000000E+002,  0.10000000000E+001,  0.00000000000E+000
  0.26050000000E+003,  0.20001061482E+007,  0.19000000000E+002,  0.10000000000E+001,  0.00000000000E+000
  0.26250000000E+003,  0.20001072104E+007,  0.19000000000E+002,  0.10000000000E+001,  0.00000000000E+000
  0.26450000000E+003,  0.20001082735E+007,  0.19000000000E+002,  0.10000000000E+001,  0.00000000000E+000
  0.26650000000E+003,  0.20001093374E+007,  0.19000000000E+002,  0.10000000000E+001,  0.00000000000E+000
  0.26850000000E+003,  0.20001104021E+007,  0.19000000000E+002,  0.10000000000E+001,  0.00000000000E+000
  0.27050000000E+003,  0.20001114675E+007,  0.19000000000E+002,  0.10000000000E+001,  0.00000000000E+000
  0.27250000000E+003,  0.20001125337E+007,  0.19000000000E+002,  0.10000000000E+001,  0.00000000000E+000
  0.27450000000E+003,  0.20001136005E+007,  0.19000000000E+002,  0.10000000000E+001,  0.00000000000E+000
  0.27650000000E+003,  0.20001146679E+007,  0.19000000000E+002,  0.10000000000E+001,  0.00000000000E+000
  0.27850000000E+003,  0.20001157361E+007,  0.19000000000E+002,  0.10000000000E+001,  0.00000000000E+000
  0.28050000000E+003,  0.20001168048E+007,  0.19000000000E+002,  0.10000000000E+001,  0.00000000000E+000
  0.28250000000E+003,  0.20001178740E+007,  0.19000000000E+002,  0.10000000000E+001,  0.00000000000E+000
  0.28450000000E+003,  0.20001189438E+007,  0.19000000000E+002,  0.10000000000E+001,  0.00000000000E+000
  0.28650000000E+003,  0.20001200142E+007,  0.19000000000E+002,  0.10000000000E+001,  0.00000000000E+000
  0.28850000000E+003,  0.20001210850E+007,  0.19000000000E+002,  0.10000000000E+001,  0.00000000000E+000
  0.29050000000E+003,  0.20001221563E+007,  0.19000000000E+002,  0.10000000000E+001,  0.00000000000E+000
  0.29250000000E+003,  0.20001232280E+007,  0.19000000000E+002,  0.10000000000E+001,  0.00000000000E+000
  0.29450000000E+003,  0.20001243002E+007,  0.19000000000E+002,  0.10000000000E+001,  0.00000000000E+000
  0.29650000000E+003,  0.20001253727E+007,  0.19000000000E+002,  0.10000000000E+001,  0.00000000000E+000
  0.29850000000E+003,  0.20001264456E+007,  0.19000000000E+002,  0.10000000000E+001,  0.00000000000E+000
  0.30050000000E+003,  0.20001275189E+007,  0.19000000000E+002,  0.10000000000E+001,  0.00000000000E+000
  0.30250000000E+003,  0.20001285925E+007,  0.19000000000E+002,  0.10000000000E+001,  0.00000000000E+000
  0.30450000000E+003,  0.20001296664E+007,  0.19000000000E+002,  0.10000000000E+001,  0.00000000000E+000
  0.30650000000E+003,  0.20001307406E+007,  0.19000000000E+002,  0.10000000000E+001,  0.00000000000E+000
  0.30850000000E+003,  0.20001318150E+007,  0.19000000000E+002,  0.10000000000E+001,  0.00000000000E+000
  0.31050000000E+003,  0.20001328897E+007,  0.19000000000E+002,  0.10000000000E+001,  0.00000000000E+000
  0.31250000000E+003,  0.20001339646E+007,  0.19000000000E+002,  0.10000000000E+001,  0.00000000000E+000
  0.31450000000E+003,  0.20001350398E+007,  0.19000000000E+002,  0.10000000000E+001,  0.00000000000E+000
  0.31650000000E+003,  0.20001361151E+007,  0.19000000000E+002,  0.10000000000E+001,  0.00000000000E+000
  0.31850000000E+003,  0.20001371905E+007,  0.19000000000E+002,  0.10000000000E+001,  0.00000000000E+000
  0.32050000000E+003,  0.20001382662E+007,  0.19000000000E+002,  0.10000000000E+001,  0.00000000000E+000
  0.32250000000E+003,  0.20001393419E+007,  0.19000000000E+002,  0.10000000000E+001,  0.00000000000E+000
  0.32450000000E+003,  0.20001404178E+007,  0.19000000000E+002,  0.10000000000E+001,  0.00000000000E+000
  0.32650000000E+003,  0.20001414937E+007,  0.19000000000E+002,  0.10000000000E+001,  0.00000000000E+000
  0.32850000000E+003,  0.20001425698E+007,  0.19000000000E+002,  0.10000000000E+001,  0.00000000000E+000
  0.33050000000E+003,  0.20001436459E+007,  0.19000000000E+002,  0.10000000000E+001,  0.00000000000E+000
  0.33250000000E+003,  0.20001447220E+007,  0.19000000000E+002,  0.10000000000E+001,  0.00000000000E+000
  0.33450000000E+003,  0.20001457982E+007,  0.19000000000E+002,  0.10000000000E+001,  0.00000000000E+000
  0.33650000000E+003,  0.20001468744E+007,  0.19000000000E+002,  0.10000000000E+001,  0.00000000000E+000
  0.33850000000E+003,  0.20001479506E+007,  0.19000000000E+002,  0.10000000000E+001,  0.00000000000E+000
  0.34050000000E+003,  0.20001490268E+007,  0.19000000000E+002,  0.10000000000E+001,  0.00000000000E+000
  0.34250000000E+003,  0.20001501029E+007,  0.19000000000E+002,  0.10000000000E+001,  0.00000000000E+000
  0.34450000000E+003,  0.20001511790E+007,  0.19000000000E+002,  0.10000000000E+001,  0.00000000000E+000
  0.34650000000E+003,  0.20001522551E+007,  0.19000000000E+002,  0.10000000000E+001,  0.00000000000E+000
  0.34850000000E+003,  0.20001533311E+007,  0.19000000000E+002,  0.10000000000E+001,  0.00000000000E+000
  0.35050000000E+003,  0.20001544070E+007,  0.19000000000E+002,  0.10000000000E+001,  0.00000000000E+000
  0.35250000000E+003,  0.20001554828E+007,  0.19000000000E+002,  0.10000000000E+001,  0.00000000000E+000
  0.35450000000E+003,  0.20001565585E+007,  0.19000000000E+002,  0.10000000000E+001,  0.00000000000E+000
  0.35650000000E+003,  0.20001576341E+007,  0.19000000000E+002,  0.10000000000E+001,  0.00000000000E+000
  0.35850000000E+003,  0.20001587095E+007,  0.19000000000E+002,  0.10000000000E+001,  0.00000000000E+000
  0.36050000000E+003,  0.20001597848E+007,  0.19000000000E+002,  0.10000000000E+001,  0.00000000000E+000
  0.36250000000E+003,  0.20001608600E+007,  0.19000000000E+002,  0.10000000000E+001,  0.00000000000E+000
  0.36450000000E+003,  0.20001619349E+007,  0.19000000000E+002,  0.10000000000E+001,  0.00000000000E+000
  0.36650000000E+003,  0.20001630097E+007,  0.19000000000E+002,  0.10000000000E+001,  0.00000000000E+000
  0.36850000000E+003,  0.20001640844E+007,  0.19000000000E+002,  0.10000000000E+001,  0.00000000000E+000
  0.37050000000E+003,  0.20001651588E+007,  0.19000000000E+002,  0.10000000000E+001,  0.00000000000E+000
  0.37250000000E+003,  0.20001662330E+007,  0.19000000000E+002,  0.10000000000E+001,  0.00000000000E+000
  0.37450000000E+003,  0.20001673070E+007,  0.19000000000E+002,  0.10000000000E+001,  0.00000000000E+000
  0.37650000000E+003,  0.20001683807E+007,  0.19000000000E+002,  0.10000000000E+001,  0.00000000000E+000
