"           TIME(S)","              PRES","              TEMP","             SAT_G","             SAT_L"
  0.17593600000E+008,  0.20995973841E+007,  0.19000000000E+002,  0.00000000000E+000,  0.10000000000E+001
  0.17601100000E+008,  0.20836521697E+007,  0.19000000000E+002,  0.00000000000E+000,  0.10000000000E+001
  0.17616100000E+008,  0.20527526106E+007,  0.19000000000E+002,  0.00000000000E+000,  0.10000000000E+001
  0.17631100000E+008,  0.20334491182E+007,  0.19000000000E+002,  0.00000000000E+000,  0.10000000000E+001
  0.17646100000E+008,  0.20214373516E+007,  0.19000000000E+002,  0.00000000000E+000,  0.10000000000E+001
  0.17661100000E+008,  0.20139386168E+007,  0.19000000000E+002,  0.00000000000E+000,  0.10000000000E+001
  0.17676100000E+008,  0.20092538552E+007,  0.19000000000E+002,  0.00000000000E+000,  0.10000000000E+001
  0.17691100000E+008,  0.20063266544E+007,  0.19000000000E+002,  0.00000000000E+000,  0.10000000000E+001
  0.17706100000E+008,  0.20044976089E+007,  0.19000000000E+002,  0.00000000000E+000,  0.10000000000E+001
  0.17721100000E+008,  0.20033547538E+007,  0.19000000000E+002,  0.00000000000E+000,  0.10000000000E+001
  0.17736100000E+008,  0.20026406668E+007,  0.19000000000E+002,  0.00000000000E+000,  0.10000000000E+001
  0.17751100000E+008,  0.20021944912E+007,  0.19000000000E+002,  0.00000000000E+000,  0.10000000000E+001
  0.17766100000E+008,  0.20019157143E+007,  0.19000000000E+002,  0.00000000000E+000,  0.10000000000E+001
  0.17781100000E+008,  0.20017415314E+007,  0.19000000000E+002,  0.00000000000E+000,  0.10000000000E+001
  0.17796100000E+008,  0.20016327004E+007,  0.19000000000E+002,  0.00000000000E+000,  0.10000000000E+001
  0.17811100000E+008,  0.20015647026E+007,  0.19000000000E+002,  0.00000000000E+000,  0.10000000000E+001
  0.17826100000E+008,  0.20015222164E+007,  0.19000000000E+002,  0.00000000000E+000,  0.10000000000E+001
  0.17841100000E+008,  0.20014956710E+007,  0.19000000000E+002,  0.00000000000E+000,  0.10000000000E+001
  0.17856100000E+008,  0.20014790853E+007,  0.19000000000E+002,  0.00000000000E+000,  0.10000000000E+001
  0.17871100000E+008,  0.20015966337E+007,  0.19000000000E+002,  0.00000000000E+000,  0.10000000000E+001
  0.17886100000E+008,  0.20016354703E+007,  0.19000000000E+002,  0.00000000000E+000,  0.10000000000E+001
  0.17901100000E+008,  0.20016550273E+007,  0.19000000000E+002,  0.00000000000E+000,  0.10000000000E+001
  0.17916100000E+008,  0.20017169398E+007,  0.19000000000E+002,  0.00000000000E+000,  0.10000000000E+001
  0.17931100000E+008,  0.20018094544E+007,  0.19000000000E+002,  0.00000000000E+000,  0.10000000000E+001
  0.17946100000E+008,  0.20018388095E+007,  0.19000000000E+002,  0.00000000000E+000,  0.10000000000E+001
  0.17961100000E+008,  0.20018531454E+007,  0.19000000000E+002,  0.00000000000E+000,  0.10000000000E+001
  0.17976100000E+008,  0.20018572626E+007,  0.19000000000E+002,  0.00000000000E+000,  0.10000000000E+001
  0.17991100000E+008,  0.20018571641E+007,  0.19000000000E+002,  0.00000000000E+000,  0.10000000000E+001
  0.18006100000E+008,  0.20018543796E+007,  0.19000000000E+002,  0.00000000000E+000,  0.10000000000E+001
  0.18021100000E+008,  0.20018511703E+007,  0.19000000000E+002,  0.00000000000E+000,  0.10000000000E+001
  0.18036100000E+008,  0.20018484173E+007,  0.19000000000E+002,  0.00000000000E+000,  0.10000000000E+001
  0.18051100000E+008,  0.20018435141E+007,  0.19000000000E+002,  0.00000000000E+000,  0.10000000000E+001
  0.18066100000E+008,  0.20018381172E+007,  0.19000000000E+002,  0.00000000000E+000,  0.10000000000E+001
  0.18081100000E+008,  0.20019438147E+007,  0.19000000000E+002,  0.00000000000E+000,  0.10000000000E+001
  0.18096100000E+008,  0.20019921388E+007,  0.19000000000E+002,  0.00000000000E+000,  0.10000000000E+001
  0.18111100000E+008,  0.20020079022E+007,  0.19000000000E+002,  0.00000000000E+000,  0.10000000000E+001
  0.18126100000E+008,  0.20020617445E+007,  0.19000000000E+002,  0.00000000000E+000,  0.10000000000E+001
  0.18141100000E+008,  0.20021951225E+007,  0.19000000000E+002,  0.00000000000E+000,  0.10000000000E+001
  0.18156100000E+008,  0.20022260269E+007,  0.19000000000E+002,  0.00000000000E+000,  0.10000000000E+001
  0.18171100000E+008,  0.20022357874E+007,  0.19000000000E+002,  0.00000000000E+000,  0.10000000000E+001
  0.18186100000E+008,  0.20022385683E+007,  0.19000000000E+002,  0.00000000000E+000,  0.10000000000E+001
  0.18201100000E+008,  0.20022326137E+007,  0.19000000000E+002,  0.00000000000E+000,  0.10000000000E+001
  0.18216100000E+008,  0.20022212969E+007,  0.19000000000E+002,  0.00000000000E+000,  0.10000000000E+001
  0.18231100000E+008,  0.20022094096E+007,  0.19000000000E+002,  0.00000000000E+000,  0.10000000000E+001
  0.18246100000E+008,  0.20022012504E+007,  0.19000000000E+002,  0.00000000000E+000,  0.10000000000E+001
  0.18261100000E+008,  0.20023818210E+007,  0.19000000000E+002,  0.00000000000E+000,  0.10000000000E+001
  0.18276100000E+008,  0.20032028108E+007,  0.19000000000E+002,  0.00000000000E+000,  0.10000000000E+001
  0.18291100000E+008,  0.20035855825E+007,  0.19000000000E+002,  0.00000000000E+000,  0.10000000000E+001
  0.18306100000E+008,  0.20038570289E+007,  0.19000000000E+002,  0.00000000000E+000,  0.10000000000E+001
  0.18321100000E+008,  0.20040627977E+007,  0.19000000000E+002,  0.00000000000E+000,  0.10000000000E+001
  0.18336100000E+008,  0.20042351922E+007,  0.19000000000E+002,  0.00000000000E+000,  0.10000000000E+001
  0.18351100000E+008,  0.20044026568E+007,  0.19000000000E+002,  0.00000000000E+000,  0.10000000000E+001
  0.18366100000E+008,  0.20045425515E+007,  0.19000000000E+002,  0.00000000000E+000,  0.10000000000E+001
  0.18381100000E+008,  0.20046700963E+007,  0.19000000000E+002,  0.00000000000E+000,  0.10000000000E+001
  0.18396100000E+008,  0.20048219999E+007,  0.19000000000E+002,  0.00000000000E+000,  0.10000000000E+001
  0.18411100000E+008,  0.20049693872E+007,  0.19000000000E+002,  0.00000000000E+000,  0.10000000000E+001
  0.18426100000E+008,  0.20050976972E+007,  0.19000000000E+002,  0.00000000000E+000,  0.10000000000E+001
  0.18441100000E+008,  0.20052226667E+007,  0.19000000000E+002,  0.00000000000E+000,  0.10000000000E+001
  0.18456100000E+008,  0.20053772708E+007,  0.19000000000E+002,  0.00000000000E+000,  0.10000000000E+001
  0.18471100000E+008,  0.20055071549E+007,  0.19000000000E+002,  0.00000000000E+000,  0.10000000000E+001
  0.18486100000E+008,  0.20056300551E+007,  0.19000000000E+002,  0.00000000000E+000,  0.10000000000E+001
  0.18501100000E+008,  0.20057731946E+007,  0.19000000000E+002,  0.00000000000E+000,  0.10000000000E+001
  0.18516100000E+008,  0.20059187855E+007,  0.19000000000E+002,  0.00000000000E+000,  0.10000000000E+001
  0.18531100000E+008,  0.20060476708E+007,  0.19000000000E+002,  0.00000000000E+000,  0.10000000000E+001
  0.18546100000E+008,  0.20061722957E+007,  0.19000000000E+002,  0.00000000000E+000,  0.10000000000E+001
  0.18561100000E+008,  0.20063499310E+007,  0.19000000000E+002,  0.00000000000E+000,  0.10000000000E+001
  0.18576100000E+008,  0.20064913881E+007,  0.19000000000E+002,  0.00000000000E+000,  0.10000000000E+001
  0.18591100000E+008,  0.20066230622E+007,  0.19000000000E+002,  0.00000000000E+000,  0.10000000000E+001
  0.18606100000E+008,  0.20067637637E+007,  0.19000000000E+002,  0.00000000000E+000,  0.10000000000E+001
  0.18621100000E+008,  0.20069071933E+007,  0.19000000000E+002,  0.00000000000E+000,  0.10000000000E+001
  0.18636100000E+008,  0.20070374410E+007,  0.19000000000E+002,  0.00000000000E+000,  0.10000000000E+001
  0.18651100000E+008,  0.20071626563E+007,  0.19000000000E+002,  0.00000000000E+000,  0.10000000000E+001
  0.18666100000E+008,  0.20073759245E+007,  0.19000000000E+002,  0.00000000000E+000,  0.10000000000E+001
  0.18681100000E+008,  0.20075378346E+007,  0.19000000000E+002,  0.00000000000E+000,  0.10000000000E+001
  0.18696100000E+008,  0.20076830844E+007,  0.19000000000E+002,  0.00000000000E+000,  0.10000000000E+001
  0.18698900000E+008,  0.20077200547E+007,  0.19000000000E+002,  0.00000000000E+000,  0.10000000000E+001
  0.18713900000E+008,  0.20078779672E+007,  0.19000000000E+002,  0.00000000000E+000,  0.10000000000E+001
  0.18728900000E+008,  0.20080381746E+007,  0.19000000000E+002,  0.00000000000E+000,  0.10000000000E+001
  0.18743900000E+008,  0.20081913521E+007,  0.19000000000E+002,  0.00000000000E+000,  0.10000000000E+001
  0.18758900000E+008,  0.20083483812E+007,  0.19000000000E+002,  0.00000000000E+000,  0.10000000000E+001
  0.18773900000E+008,  0.20085423318E+007,  0.19000000000E+002,  0.00000000000E+000,  0.10000000000E+001
  0.18788900000E+008,  0.20087001028E+007,  0.19000000000E+002,  0.00000000000E+000,  0.10000000000E+001
  0.18803900000E+008,  0.20088458065E+007,  0.19000000000E+002,  0.00000000000E+000,  0.10000000000E+001
  0.18818900000E+008,  0.20090242487E+007,  0.19000000000E+002,  0.00000000000E+000,  0.10000000000E+001
  0.18833900000E+008,  0.20092074943E+007,  0.19000000000E+002,  0.00000000000E+000,  0.10000000000E+001
  0.18848900000E+008,  0.20093637770E+007,  0.19000000000E+002,  0.00000000000E+000,  0.10000000000E+001
  0.18863900000E+008,  0.20095120688E+007,  0.19000000000E+002,  0.00000000000E+000,  0.10000000000E+001
  0.18878900000E+008,  0.20097425813E+007,  0.19000000000E+002,  0.00000000000E+000,  0.10000000000E+001
  0.18893900000E+008,  0.20099188624E+007,  0.19000000000E+002,  0.00000000000E+000,  0.10000000000E+001
  0.18908900000E+008,  0.20100778146E+007,  0.19000000000E+002,  0.00000000000E+000,  0.10000000000E+001
  0.18923900000E+008,  0.20102753198E+007,  0.19000000000E+002,  0.00000000000E+000,  0.10000000000E+001
  0.18938900000E+008,  0.20104902197E+007,  0.19000000000E+002,  0.00000000000E+000,  0.10000000000E+001
  0.18953900000E+008,  0.20106657009E+007,  0.19000000000E+002,  0.00000000000E+000,  0.10000000000E+001
  0.18968900000E+008,  0.20108260233E+007,  0.19000000000E+002,  0.00000000000E+000,  0.10000000000E+001
  0.18983900000E+008,  0.20110946853E+007,  0.19000000000E+002,  0.00000000000E+000,  0.10000000000E+001
  0.18998900000E+008,  0.20112988757E+007,  0.19000000000E+002,  0.00000000000E+000,  0.10000000000E+001
  0.19013900000E+008,  0.20114771413E+007,  0.19000000000E+002,  0.00000000000E+000,  0.10000000000E+001
  0.19028900000E+008,  0.20116735078E+007,  0.19000000000E+002,  0.00000000000E+000,  0.10000000000E+001
  0.19043900000E+008,  0.20118860824E+007,  0.19000000000E+002,  0.00000000000E+000,  0.10000000000E+001
  0.19058900000E+008,  0.20120648411E+007,  0.19000000000E+002,  0.00000000000E+000,  0.10000000000E+001
  0.19073900000E+008,  0.20122296048E+007,  0.19000000000E+002,  0.00000000000E+000,  0.10000000000E+001
  0.19088900000E+008,  0.20125088681E+007,  0.19000000000E+002,  0.00000000000E+000,  0.10000000000E+001
  0.19103900000E+008,  0.20127311450E+007,  0.19000000000E+002,  0.00000000000E+000,  0.10000000000E+001
  0.19118900000E+008,  0.20129214864E+007,  0.19000000000E+002,  0.00000000000E+000,  0.10000000000E+001
  0.19133900000E+008,  0.20131336030E+007,  0.19000000000E+002,  0.00000000000E+000,  0.10000000000E+001
  0.19148900000E+008,  0.20133817371E+007,  0.19000000000E+002,  0.00000000000E+000,  0.10000000000E+001
  0.19163900000E+008,  0.20135819442E+007,  0.19000000000E+002,  0.00000000000E+000,  0.10000000000E+001
  0.19178900000E+008,  0.20137625830E+007,  0.19000000000E+002,  0.00000000000E+000,  0.10000000000E+001
  0.19193900000E+008,  0.20140581842E+007,  0.19000000000E+002,  0.00000000000E+000,  0.10000000000E+001
  0.19208900000E+008,  0.20143060639E+007,  0.19000000000E+002,  0.00000000000E+000,  0.10000000000E+001
  0.19223900000E+008,  0.20145135485E+007,  0.19000000000E+002,  0.00000000000E+000,  0.10000000000E+001
  0.19238900000E+008,  0.20147297944E+007,  0.19000000000E+002,  0.00000000000E+000,  0.10000000000E+001
  0.19253900000E+008,  0.20149842685E+007,  0.19000000000E+002,  0.00000000000E+000,  0.10000000000E+001
  0.19268900000E+008,  0.20151918747E+007,  0.19000000000E+002,  0.00000000000E+000,  0.10000000000E+001
  0.19283900000E+008,  0.20153794369E+007,  0.19000000000E+002,  0.00000000000E+000,  0.10000000000E+001
  0.19298900000E+008,  0.20157022345E+007,  0.19000000000E+002,  0.00000000000E+000,  0.10000000000E+001
  0.19313900000E+008,  0.20159859739E+007,  0.19000000000E+002,  0.00000000000E+000,  0.10000000000E+001
  0.19328900000E+008,  0.20162160852E+007,  0.19000000000E+002,  0.00000000000E+000,  0.10000000000E+001
  0.19343900000E+008,  0.20164625699E+007,  0.19000000000E+002,  0.00000000000E+000,  0.10000000000E+001
  0.19358900000E+008,  0.20168065665E+007,  0.19000000000E+002,  0.00000000000E+000,  0.10000000000E+001
  0.19373900000E+008,  0.20170651954E+007,  0.19000000000E+002,  0.00000000000E+000,  0.10000000000E+001
  0.19388900000E+008,  0.20172881865E+007,  0.19000000000E+002,  0.00000000000E+000,  0.10000000000E+001
  0.19403900000E+008,  0.20127903736E+007,  0.19000000000E+002,  0.00000000000E+000,  0.10000000000E+001
  0.19418900000E+008,  0.20086667228E+007,  0.19000000000E+002,  0.00000000000E+000,  0.10000000000E+001
  0.19433900000E+008,  0.20063808389E+007,  0.19000000000E+002,  0.00000000000E+000,  0.10000000000E+001
  0.19448900000E+008,  0.20048863032E+007,  0.19000000000E+002,  0.00000000000E+000,  0.10000000000E+001
  0.19463900000E+008,  0.20037220669E+007,  0.19000000000E+002,  0.00000000000E+000,  0.10000000000E+001
  0.19478900000E+008,  0.20029745192E+007,  0.19000000000E+002,  0.00000000000E+000,  0.10000000000E+001
  0.19493900000E+008,  0.20024767952E+007,  0.19000000000E+002,  0.00000000000E+000,  0.10000000000E+001
  0.19508900000E+008,  0.20022694914E+007,  0.19000000000E+002,  0.00000000000E+000,  0.10000000000E+001
  0.19523900000E+008,  0.20021762810E+007,  0.19000000000E+002,  0.00000000000E+000,  0.10000000000E+001
  0.19538900000E+008,  0.20020970791E+007,  0.19000000000E+002,  0.00000000000E+000,  0.10000000000E+001
  0.19553900000E+008,  0.20020186050E+007,  0.19000000000E+002,  0.00000000000E+000,  0.10000000000E+001
  0.19568900000E+008,  0.20017949260E+007,  0.19000000000E+002,  0.00000000000E+000,  0.10000000000E+001
  0.19583900000E+008,  0.20016763699E+007,  0.19000000000E+002,  0.00000000000E+000,  0.10000000000E+001
  0.19598900000E+008,  0.20016017850E+007,  0.19000000000E+002,  0.00000000000E+000,  0.10000000000E+001
  0.19613900000E+008,  0.20015810907E+007,  0.19000000000E+002,  0.00000000000E+000,  0.10000000000E+001
  0.19628900000E+008,  0.20015828094E+007,  0.19000000000E+002,  0.00000000000E+000,  0.10000000000E+001
  0.19643900000E+008,  0.20015793949E+007,  0.19000000000E+002,  0.00000000000E+000,  0.10000000000E+001
  0.19658900000E+008,  0.20015894259E+007,  0.19000000000E+002,  0.00000000000E+000,  0.10000000000E+001
  0.19673900000E+008,  0.20018265138E+007,  0.19000000000E+002,  0.00000000000E+000,  0.10000000000E+001
  0.19688900000E+008,  0.20019436958E+007,  0.19000000000E+002,  0.00000000000E+000,  0.10000000000E+001
  0.19703900000E+008,  0.20020157183E+007,  0.19000000000E+002,  0.00000000000E+000,  0.10000000000E+001
  0.19718900000E+008,  0.20019093399E+007,  0.19000000000E+002,  0.00000000000E+000,  0.10000000000E+001
  0.19733900000E+008,  0.20017234534E+007,  0.19000000000E+002,  0.00000000000E+000,  0.10000000000E+001
  0.19748900000E+008,  0.20016284215E+007,  0.19000000000E+002,  0.00000000000E+000,  0.10000000000E+001
  0.19763900000E+008,  0.20015695209E+007,  0.19000000000E+002,  0.00000000000E+000,  0.10000000000E+001
  0.19778900000E+008,  0.20015551378E+007,  0.19000000000E+002,  0.00000000000E+000,  0.10000000000E+001
  0.19793900000E+008,  0.20015415503E+007,  0.19000000000E+002,  0.00000000000E+000,  0.10000000000E+001
  0.19805800000E+008,  0.20015331478E+007,  0.19000000000E+002,  0.00000000000E+000,  0.10000000000E+001
  0.19820800000E+008,  0.20015197492E+007,  0.19000000000E+002,  0.00000000000E+000,  0.10000000000E+001
  0.19835800000E+008,  0.20014932260E+007,  0.19000000000E+002,  0.00000000000E+000,  0.10000000000E+001
  0.19850800000E+008,  0.20014788864E+007,  0.19000000000E+002,  0.00000000000E+000,  0.10000000000E+001
  0.19865800000E+008,  0.20014698098E+007,  0.19000000000E+002,  0.00000000000E+000,  0.10000000000E+001
  0.19880800000E+008,  0.20016235309E+007,  0.19000000000E+002,  0.00000000000E+000,  0.10000000000E+001
  0.19895800000E+008,  0.20017603598E+007,  0.19000000000E+002,  0.00000000000E+000,  0.10000000000E+001
  0.19910800000E+008,  0.20018366044E+007,  0.19000000000E+002,  0.00000000000E+000,  0.10000000000E+001
  0.19925800000E+008,  0.20018898521E+007,  0.19000000000E+002,  0.00000000000E+000,  0.10000000000E+001
  0.19940800000E+008,  0.20019445300E+007,  0.19000000000E+002,  0.00000000000E+000,  0.10000000000E+001
  0.19955800000E+008,  0.20019775953E+007,  0.19000000000E+002,  0.00000000000E+000,  0.10000000000E+001
  0.19970800000E+008,  0.20019993060E+007,  0.19000000000E+002,  0.00000000000E+000,  0.10000000000E+001
  0.19985800000E+008,  0.20018525626E+007,  0.19000000000E+002,  0.00000000000E+000,  0.10000000000E+001
  0.20000800000E+008,  0.20016972133E+007,  0.19000000000E+002,  0.00000000000E+000,  0.10000000000E+001
  0.20015800000E+008,  0.20016127958E+007,  0.19000000000E+002,  0.00000000000E+000,  0.10000000000E+001
  0.20030800000E+008,  0.20015594103E+007,  0.19000000000E+002,  0.00000000000E+000,  0.10000000000E+001
  0.20045800000E+008,  0.20015241092E+007,  0.19000000000E+002,  0.00000000000E+000,  0.10000000000E+001
  0.20060800000E+008,  0.20015004334E+007,  0.19000000000E+002,  0.00000000000E+000,  0.10000000000E+001
  0.20075800000E+008,  0.20014844890E+007,  0.19000000000E+002,  0.00000000000E+000,  0.10000000000E+001
  0.20090800000E+008,  0.20015910205E+007,  0.19000000000E+002,  0.00000000000E+000,  0.10000000000E+001
  0.20105800000E+008,  0.20017220248E+007,  0.19000000000E+002,  0.00000000000E+000,  0.10000000000E+001
  0.20120800000E+008,  0.20017923270E+007,  0.19000000000E+002,  0.00000000000E+000,  0.10000000000E+001
  0.20135800000E+008,  0.20018247906E+007,  0.19000000000E+002,  0.00000000000E+000,  0.10000000000E+001
  0.20150800000E+008,  0.20016623269E+007,  0.19000000000E+002,  0.00000000000E+000,  0.10000000000E+001
  0.20165800000E+008,  0.20015866502E+007,  0.19000000000E+002,  0.00000000000E+000,  0.10000000000E+001
  0.20180800000E+008,  0.20015412462E+007,  0.19000000000E+002,  0.00000000000E+000,  0.10000000000E+001
  0.20195800000E+008,  0.20015117584E+007,  0.19000000000E+002,  0.00000000000E+000,  0.10000000000E+001
  0.20210800000E+008,  0.20014920863E+007,  0.19000000000E+002,  0.00000000000E+000,  0.10000000000E+001
  0.20225800000E+008,  0.20014788573E+007,  0.19000000000E+002,  0.00000000000E+000,  0.10000000000E+001
  0.20240800000E+008,  0.20014699410E+007,  0.19000000000E+002,  0.00000000000E+000,  0.10000000000E+001
  0.20255800000E+008,  0.20014639278E+007,  0.19000000000E+002,  0.00000000000E+000,  0.10000000000E+001
  0.20270800000E+008,  0.20014598717E+007,  0.19000000000E+002,  0.00000000000E+000,  0.10000000000E+001
  0.20285800000E+008,  0.20014571356E+007,  0.19000000000E+002,  0.00000000000E+000,  0.10000000000E+001
  0.20300800000E+008,  0.20015361494E+007,  0.19000000000E+002,  0.00000000000E+000,  0.10000000000E+001
  0.20315800000E+008,  0.20016672290E+007,  0.19000000000E+002,  0.00000000000E+000,  0.10000000000E+001
  0.20330800000E+008,  0.20017365070E+007,  0.19000000000E+002,  0.00000000000E+000,  0.10000000000E+001
  0.20345800000E+008,  0.20017799982E+007,  0.19000000000E+002,  0.00000000000E+000,  0.10000000000E+001
  0.20360800000E+008,  0.20016469039E+007,  0.19000000000E+002,  0.00000000000E+000,  0.10000000000E+001
  0.20375800000E+008,  0.20015747241E+007,  0.19000000000E+002,  0.00000000000E+000,  0.10000000000E+001
  0.20390800000E+008,  0.20015329694E+007,  0.19000000000E+002,  0.00000000000E+000,  0.10000000000E+001
