"           TIME(S)","              PRES","              TEMP","             SAT_G","             SAT_L"
  0.18228700500E+008,  0.20000000042E+007,  0.19000000000E+002,  0.00000000000E+000,  0.10000000000E+001
  0.18228702500E+008,  0.20000005974E+007,  0.19000000000E+002,  0.00000000000E+000,  0.10000000000E+001
  0.18228704500E+008,  0.20000020616E+007,  0.19000000000E+002,  0.00000000000E+000,  0.10000000000E+001
  0.18228706500E+008,  0.20000044695E+007,  0.19000000000E+002,  0.00000000000E+000,  0.10000000000E+001
  0.18228708500E+008,  0.20000077660E+007,  0.19000000000E+002,  0.00000000000E+000,  0.10000000000E+001
  0.18228710500E+008,  0.20000118469E+007,  0.19000000000E+002,  0.00000000000E+000,  0.10000000000E+001
  0.18228712500E+008,  0.20000166032E+007,  0.19000000000E+002,  0.00000000000E+000,  0.10000000000E+001
  0.18228714500E+008,  0.20000219391E+007,  0.19000000000E+002,  0.00000000000E+000,  0.10000000000E+001
  0.18228716500E+008,  0.20000277761E+007,  0.19000000000E+002,  0.00000000000E+000,  0.10000000000E+001
  0.18228718500E+008,  0.20000340515E+007,  0.19000000000E+002,  0.00000000000E+000,  0.10000000000E+001
  0.18228720500E+008,  0.20000407140E+007,  0.19000000000E+002,  0.00000000000E+000,  0.10000000000E+001
  0.18228722500E+008,  0.20000477219E+007,  0.19000000000E+002,  0.00000000000E+000,  0.10000000000E+001
  0.18228724500E+008,  0.20000550391E+007,  0.19000000000E+002,  0.00000000000E+000,  0.10000000000E+001
  0.18228726500E+008,  0.20000626348E+007,  0.19000000000E+002,  0.00000000000E+000,  0.10000000000E+001
  0.18228728500E+008,  0.20000704808E+007,  0.19000000000E+002,  0.00000000000E+000,  0.10000000000E+001
  0.18228730500E+008,  0.20000785521E+007,  0.19000000000E+002,  0.00000000000E+000,  0.10000000000E+001
  0.18228732500E+008,  0.20000868257E+007,  0.19000000000E+002,  0.00000000000E+000,  0.10000000000E+001
  0.18228734500E+008,  0.20000952801E+007,  0.19000000000E+002,  0.00000000000E+000,  0.10000000000E+001
  0.18228736500E+008,  0.20001038959E+007,  0.19000000000E+002,  0.00000000000E+000,  0.10000000000E+001
  0.18228738500E+008,  0.20001126546E+007,  0.19000000000E+002,  0.00000000000E+000,  0.10000000000E+001
  0.18228740500E+008,  0.20001215395E+007,  0.19000000000E+002,  0.00000000000E+000,  0.10000000000E+001
  0.18228742500E+008,  0.20001305350E+007,  0.19000000000E+002,  0.00000000000E+000,  0.10000000000E+001
  0.18228744500E+008,  0.20001396267E+007,  0.19000000000E+002,  0.00000000000E+000,  0.10000000000E+001
  0.18228746500E+008,  0.20001488011E+007,  0.19000000000E+002,  0.00000000000E+000,  0.10000000000E+001
  0.18228748500E+008,  0.20001580463E+007,  0.19000000000E+002,  0.00000000000E+000,  0.10000000000E+001
  0.18228750500E+008,  0.20001673511E+007,  0.19000000000E+002,  0.00000000000E+000,  0.10000000000E+001
  0.18228752500E+008,  0.20001767051E+007,  0.19000000000E+002,  0.00000000000E+000,  0.10000000000E+001
  0.18228754500E+008,  0.20001860991E+007,  0.19000000000E+002,  0.00000000000E+000,  0.10000000000E+001
  0.18228756500E+008,  0.20001955244E+007,  0.19000000000E+002,  0.00000000000E+000,  0.10000000000E+001
  0.18228758500E+008,  0.20002049735E+007,  0.19000000000E+002,  0.00000000000E+000,  0.10000000000E+001
  0.18228760500E+008,  0.20002144391E+007,  0.19000000000E+002,  0.00000000000E+000,  0.10000000000E+001
  0.18228762500E+008,  0.20002239150E+007,  0.19000000000E+002,  0.00000000000E+000,  0.10000000000E+001
  0.18228764500E+008,  0.20002333954E+007,  0.19000000000E+002,  0.00000000000E+000,  0.10000000000E+001
  0.18228766500E+008,  0.20002428751E+007,  0.19000000000E+002,  0.00000000000E+000,  0.10000000000E+001
  0.18228768500E+008,  0.20002523493E+007,  0.19000000000E+002,  0.00000000000E+000,  0.10000000000E+001
  0.18228770500E+008,  0.20002618140E+007,  0.19000000000E+002,  0.00000000000E+000,  0.10000000000E+001
  0.18228772500E+008,  0.20002712652E+007,  0.19000000000E+002,  0.00000000000E+000,  0.10000000000E+001
  0.18228774500E+008,  0.20002806994E+007,  0.19000000000E+002,  0.00000000000E+000,  0.10000000000E+001
  0.18228776500E+008,  0.20002901139E+007,  0.19000000000E+002,  0.00000000000E+000,  0.10000000000E+001
  0.18228778500E+008,  0.20002995056E+007,  0.19000000000E+002,  0.00000000000E+000,  0.10000000000E+001
  0.18228780500E+008,  0.20003088722E+007,  0.19000000000E+002,  0.00000000000E+000,  0.10000000000E+001
  0.18228782500E+008,  0.20003182117E+007,  0.19000000000E+002,  0.00000000000E+000,  0.10000000000E+001
  0.18228784500E+008,  0.20003275220E+007,  0.19000000000E+002,  0.00000000000E+000,  0.10000000000E+001
  0.18228786500E+008,  0.20003368016E+007,  0.19000000000E+002,  0.00000000000E+000,  0.10000000000E+001
  0.18228788500E+008,  0.20003460490E+007,  0.19000000000E+002,  0.00000000000E+000,  0.10000000000E+001
  0.18228790500E+008,  0.20003552626E+007,  0.19000000000E+002,  0.00000000000E+000,  0.10000000000E+001
  0.18228792500E+008,  0.20003644416E+007,  0.19000000000E+002,  0.00000000000E+000,  0.10000000000E+001
  0.18228794500E+008,  0.20003735848E+007,  0.19000000000E+002,  0.00000000000E+000,  0.10000000000E+001
  0.18228796500E+008,  0.20003826915E+007,  0.19000000000E+002,  0.00000000000E+000,  0.10000000000E+001
  0.18228798500E+008,  0.20003917609E+007,  0.19000000000E+002,  0.00000000000E+000,  0.10000000000E+001
  0.18228800500E+008,  0.20004007925E+007,  0.19000000000E+002,  0.00000000000E+000,  0.10000000000E+001
  0.18228802500E+008,  0.20004097856E+007,  0.19000000000E+002,  0.00000000000E+000,  0.10000000000E+001
  0.18228804500E+008,  0.20004187400E+007,  0.19000000000E+002,  0.00000000000E+000,  0.10000000000E+001
  0.18228806500E+008,  0.20004276551E+007,  0.19000000000E+002,  0.00000000000E+000,  0.10000000000E+001
  0.18228808500E+008,  0.20004365308E+007,  0.19000000000E+002,  0.00000000000E+000,  0.10000000000E+001
  0.18228810500E+008,  0.20004453668E+007,  0.19000000000E+002,  0.00000000000E+000,  0.10000000000E+001
  0.18228812500E+008,  0.20004541630E+007,  0.19000000000E+002,  0.00000000000E+000,  0.10000000000E+001
  0.18228814500E+008,  0.20004629194E+007,  0.19000000000E+002,  0.00000000000E+000,  0.10000000000E+001
  0.18228816500E+008,  0.20004716359E+007,  0.19000000000E+002,  0.00000000000E+000,  0.10000000000E+001
  0.18228818500E+008,  0.20004803124E+007,  0.19000000000E+002,  0.00000000000E+000,  0.10000000000E+001
  0.18228820500E+008,  0.20004889490E+007,  0.19000000000E+002,  0.00000000000E+000,  0.10000000000E+001
  0.18228822500E+008,  0.20004975458E+007,  0.19000000000E+002,  0.00000000000E+000,  0.10000000000E+001
  0.18228824500E+008,  0.20005061029E+007,  0.19000000000E+002,  0.00000000000E+000,  0.10000000000E+001
  0.18228826500E+008,  0.20005146204E+007,  0.19000000000E+002,  0.00000000000E+000,  0.10000000000E+001
  0.18228828500E+008,  0.20005230985E+007,  0.19000000000E+002,  0.00000000000E+000,  0.10000000000E+001
  0.18228830500E+008,  0.20005315372E+007,  0.19000000000E+002,  0.00000000000E+000,  0.10000000000E+001
  0.18228832500E+008,  0.20005399369E+007,  0.19000000000E+002,  0.00000000000E+000,  0.10000000000E+001
  0.18228834500E+008,  0.20005482978E+007,  0.19000000000E+002,  0.00000000000E+000,  0.10000000000E+001
  0.18228836500E+008,  0.20005566200E+007,  0.19000000000E+002,  0.00000000000E+000,  0.10000000000E+001
  0.18228838500E+008,  0.20005649036E+007,  0.19000000000E+002,  0.00000000000E+000,  0.10000000000E+001
  0.18228840500E+008,  0.20005731492E+007,  0.19000000000E+002,  0.00000000000E+000,  0.10000000000E+001
  0.18228842500E+008,  0.20005813569E+007,  0.19000000000E+002,  0.00000000000E+000,  0.10000000000E+001
  0.18228844500E+008,  0.20005895269E+007,  0.19000000000E+002,  0.00000000000E+000,  0.10000000000E+001
  0.18228846500E+008,  0.20005976595E+007,  0.19000000000E+002,  0.00000000000E+000,  0.10000000000E+001
  0.18228848500E+008,  0.20006057550E+007,  0.19000000000E+002,  0.00000000000E+000,  0.10000000000E+001
  0.18228850500E+008,  0.20006138137E+007,  0.19000000000E+002,  0.00000000000E+000,  0.10000000000E+001
  0.18228852500E+008,  0.20006218358E+007,  0.19000000000E+002,  0.00000000000E+000,  0.10000000000E+001
  0.18228854500E+008,  0.20006298218E+007,  0.19000000000E+002,  0.00000000000E+000,  0.10000000000E+001
  0.18228856500E+008,  0.20006377717E+007,  0.19000000000E+002,  0.00000000000E+000,  0.10000000000E+001
  0.18228858500E+008,  0.20006456860E+007,  0.19000000000E+002,  0.00000000000E+000,  0.10000000000E+001
  0.18228860500E+008,  0.20006535649E+007,  0.19000000000E+002,  0.00000000000E+000,  0.10000000000E+001
  0.18228862500E+008,  0.20006614087E+007,  0.19000000000E+002,  0.00000000000E+000,  0.10000000000E+001
  0.18228864500E+008,  0.20006692178E+007,  0.19000000000E+002,  0.00000000000E+000,  0.10000000000E+001
  0.18228866500E+008,  0.20006769924E+007,  0.19000000000E+002,  0.00000000000E+000,  0.10000000000E+001
  0.18228868500E+008,  0.20006847328E+007,  0.19000000000E+002,  0.00000000000E+000,  0.10000000000E+001
  0.18228870500E+008,  0.20006924392E+007,  0.19000000000E+002,  0.00000000000E+000,  0.10000000000E+001
  0.18228872500E+008,  0.20007001121E+007,  0.19000000000E+002,  0.00000000000E+000,  0.10000000000E+001
  0.18228874500E+008,  0.20007077518E+007,  0.19000000000E+002,  0.00000000000E+000,  0.10000000000E+001
  0.18228876500E+008,  0.20007153584E+007,  0.19000000000E+002,  0.00000000000E+000,  0.10000000000E+001
  0.18228878500E+008,  0.20007229323E+007,  0.19000000000E+002,  0.00000000000E+000,  0.10000000000E+001
  0.18228880500E+008,  0.20007304737E+007,  0.19000000000E+002,  0.00000000000E+000,  0.10000000000E+001
  0.18228882500E+008,  0.20007379831E+007,  0.19000000000E+002,  0.00000000000E+000,  0.10000000000E+001
  0.18228884500E+008,  0.20007454606E+007,  0.19000000000E+002,  0.00000000000E+000,  0.10000000000E+001
  0.18228886500E+008,  0.20007529065E+007,  0.19000000000E+002,  0.00000000000E+000,  0.10000000000E+001
  0.18228888500E+008,  0.20007603211E+007,  0.19000000000E+002,  0.00000000000E+000,  0.10000000000E+001
  0.18228890500E+008,  0.20007677047E+007,  0.19000000000E+002,  0.00000000000E+000,  0.10000000000E+001
  0.18228892500E+008,  0.20007750576E+007,  0.19000000000E+002,  0.00000000000E+000,  0.10000000000E+001
  0.18228894500E+008,  0.20007823800E+007,  0.19000000000E+002,  0.00000000000E+000,  0.10000000000E+001
  0.18228896500E+008,  0.20007896723E+007,  0.19000000000E+002,  0.00000000000E+000,  0.10000000000E+001
  0.18228898500E+008,  0.20007969346E+007,  0.19000000000E+002,  0.00000000000E+000,  0.10000000000E+001
  0.18228900500E+008,  0.20008041673E+007,  0.19000000000E+002,  0.00000000000E+000,  0.10000000000E+001
  0.18228902500E+008,  0.20008113705E+007,  0.19000000000E+002,  0.00000000000E+000,  0.10000000000E+001
  0.18228904500E+008,  0.20008185447E+007,  0.19000000000E+002,  0.00000000000E+000,  0.10000000000E+001
  0.18228906500E+008,  0.20008256900E+007,  0.19000000000E+002,  0.00000000000E+000,  0.10000000000E+001
  0.18228908500E+008,  0.20008328067E+007,  0.19000000000E+002,  0.00000000000E+000,  0.10000000000E+001
  0.18228910500E+008,  0.20008398950E+007,  0.19000000000E+002,  0.00000000000E+000,  0.10000000000E+001
  0.18228912500E+008,  0.20008469552E+007,  0.19000000000E+002,  0.00000000000E+000,  0.10000000000E+001
  0.18228914500E+008,  0.20008539876E+007,  0.19000000000E+002,  0.00000000000E+000,  0.10000000000E+001
  0.18228916500E+008,  0.20008609924E+007,  0.19000000000E+002,  0.00000000000E+000,  0.10000000000E+001
  0.18228918500E+008,  0.20008679698E+007,  0.19000000000E+002,  0.00000000000E+000,  0.10000000000E+001
  0.18228920500E+008,  0.20008749201E+007,  0.19000000000E+002,  0.00000000000E+000,  0.10000000000E+001
  0.18228922500E+008,  0.20008818435E+007,  0.19000000000E+002,  0.00000000000E+000,  0.10000000000E+001
  0.18228924500E+008,  0.20008887403E+007,  0.19000000000E+002,  0.00000000000E+000,  0.10000000000E+001
  0.18228926500E+008,  0.20008956107E+007,  0.19000000000E+002,  0.00000000000E+000,  0.10000000000E+001
  0.18228928500E+008,  0.20009024548E+007,  0.19000000000E+002,  0.00000000000E+000,  0.10000000000E+001
  0.18228930500E+008,  0.20009092730E+007,  0.19000000000E+002,  0.00000000000E+000,  0.10000000000E+001
  0.18228932500E+008,  0.20009160655E+007,  0.19000000000E+002,  0.00000000000E+000,  0.10000000000E+001
  0.18228934500E+008,  0.20009228325E+007,  0.19000000000E+002,  0.00000000000E+000,  0.10000000000E+001
  0.18228936500E+008,  0.20009295742E+007,  0.19000000000E+002,  0.00000000000E+000,  0.10000000000E+001
  0.18228938500E+008,  0.20009362908E+007,  0.19000000000E+002,  0.00000000000E+000,  0.10000000000E+001
  0.18228940500E+008,  0.20009429827E+007,  0.19000000000E+002,  0.00000000000E+000,  0.10000000000E+001
  0.18228942500E+008,  0.20009496498E+007,  0.19000000000E+002,  0.00000000000E+000,  0.10000000000E+001
  0.18228944500E+008,  0.20009562926E+007,  0.19000000000E+002,  0.00000000000E+000,  0.10000000000E+001
  0.18228946500E+008,  0.20009629111E+007,  0.19000000000E+002,  0.00000000000E+000,  0.10000000000E+001
  0.18228948500E+008,  0.20009695056E+007,  0.19000000000E+002,  0.00000000000E+000,  0.10000000000E+001
  0.18228950500E+008,  0.20009760763E+007,  0.19000000000E+002,  0.00000000000E+000,  0.10000000000E+001
  0.18228952500E+008,  0.20009826235E+007,  0.19000000000E+002,  0.00000000000E+000,  0.10000000000E+001
  0.18228954500E+008,  0.20009891472E+007,  0.19000000000E+002,  0.00000000000E+000,  0.10000000000E+001
  0.18228956500E+008,  0.20009956477E+007,  0.19000000000E+002,  0.00000000000E+000,  0.10000000000E+001
  0.18228958500E+008,  0.20010021253E+007,  0.19000000000E+002,  0.00000000000E+000,  0.10000000000E+001
  0.18228960500E+008,  0.20010085800E+007,  0.19000000000E+002,  0.00000000000E+000,  0.10000000000E+001
  0.18228962500E+008,  0.20010150121E+007,  0.19000000000E+002,  0.00000000000E+000,  0.10000000000E+001
  0.18228964500E+008,  0.20010214218E+007,  0.19000000000E+002,  0.00000000000E+000,  0.10000000000E+001
  0.18228966500E+008,  0.20010278092E+007,  0.19000000000E+002,  0.00000000000E+000,  0.10000000000E+001
  0.18228968500E+008,  0.20010341746E+007,  0.19000000000E+002,  0.00000000000E+000,  0.10000000000E+001
  0.18228970500E+008,  0.20010405181E+007,  0.19000000000E+002,  0.00000000000E+000,  0.10000000000E+001
  0.18228972500E+008,  0.20010468400E+007,  0.19000000000E+002,  0.00000000000E+000,  0.10000000000E+001
  0.18228974500E+008,  0.20010531403E+007,  0.19000000000E+002,  0.00000000000E+000,  0.10000000000E+001
  0.18228976500E+008,  0.20010594193E+007,  0.19000000000E+002,  0.00000000000E+000,  0.10000000000E+001
  0.18228978500E+008,  0.20010656771E+007,  0.19000000000E+002,  0.00000000000E+000,  0.10000000000E+001
  0.18228980500E+008,  0.20010719140E+007,  0.19000000000E+002,  0.00000000000E+000,  0.10000000000E+001
  0.18228982500E+008,  0.20010781301E+007,  0.19000000000E+002,  0.00000000000E+000,  0.10000000000E+001
  0.18228984500E+008,  0.20010843255E+007,  0.19000000000E+002,  0.00000000000E+000,  0.10000000000E+001
  0.18228986500E+008,  0.20010905004E+007,  0.19000000000E+002,  0.00000000000E+000,  0.10000000000E+001
  0.18228988500E+008,  0.20010966550E+007,  0.19000000000E+002,  0.00000000000E+000,  0.10000000000E+001
  0.18228990500E+008,  0.20011027895E+007,  0.19000000000E+002,  0.00000000000E+000,  0.10000000000E+001
  0.18228992500E+008,  0.20011089040E+007,  0.19000000000E+002,  0.00000000000E+000,  0.10000000000E+001
  0.18228994500E+008,  0.20011149987E+007,  0.19000000000E+002,  0.00000000000E+000,  0.10000000000E+001
  0.18228996500E+008,  0.20011210738E+007,  0.19000000000E+002,  0.00000000000E+000,  0.10000000000E+001
  0.18228998500E+008,  0.20011271293E+007,  0.19000000000E+002,  0.00000000000E+000,  0.10000000000E+001
  0.18229000500E+008,  0.20011331655E+007,  0.19000000000E+002,  0.00000000000E+000,  0.10000000000E+001
  0.18229002500E+008,  0.20011391825E+007,  0.19000000000E+002,  0.00000000000E+000,  0.10000000000E+001
  0.18229004500E+008,  0.20011451805E+007,  0.19000000000E+002,  0.00000000000E+000,  0.10000000000E+001
  0.18229006500E+008,  0.20011511596E+007,  0.19000000000E+002,  0.00000000000E+000,  0.10000000000E+001
  0.18229008500E+008,  0.20011571199E+007,  0.19000000000E+002,  0.00000000000E+000,  0.10000000000E+001
  0.18229010500E+008,  0.20011630617E+007,  0.19000000000E+002,  0.00000000000E+000,  0.10000000000E+001
  0.18229012500E+008,  0.20011689850E+007,  0.19000000000E+002,  0.00000000000E+000,  0.10000000000E+001
  0.18229014500E+008,  0.20011748900E+007,  0.19000000000E+002,  0.00000000000E+000,  0.10000000000E+001
  0.18229016500E+008,  0.20011807769E+007,  0.19000000000E+002,  0.00000000000E+000,  0.10000000000E+001
  0.18229018500E+008,  0.20011866457E+007,  0.19000000000E+002,  0.00000000000E+000,  0.10000000000E+001
  0.18229020500E+008,  0.20011924968E+007,  0.19000000000E+002,  0.00000000000E+000,  0.10000000000E+001
  0.18229022500E+008,  0.20011983300E+007,  0.19000000000E+002,  0.00000000000E+000,  0.10000000000E+001
  0.18229024500E+008,  0.20012041457E+007,  0.19000000000E+002,  0.00000000000E+000,  0.10000000000E+001
  0.18229026500E+008,  0.20012099439E+007,  0.19000000000E+002,  0.00000000000E+000,  0.10000000000E+001
  0.18229028500E+008,  0.20012157248E+007,  0.19000000000E+002,  0.00000000000E+000,  0.10000000000E+001
  0.18229030500E+008,  0.20012214884E+007,  0.19000000000E+002,  0.00000000000E+000,  0.10000000000E+001
  0.18229032500E+008,  0.20012272351E+007,  0.19000000000E+002,  0.00000000000E+000,  0.10000000000E+001
  0.18229034500E+008,  0.20012329647E+007,  0.19000000000E+002,  0.00000000000E+000,  0.10000000000E+001
  0.18229036500E+008,  0.20012386776E+007,  0.19000000000E+002,  0.00000000000E+000,  0.10000000000E+001
  0.18229038500E+008,  0.20012443738E+007,  0.19000000000E+002,  0.00000000000E+000,  0.10000000000E+001
  0.18229040500E+008,  0.20012500535E+007,  0.19000000000E+002,  0.00000000000E+000,  0.10000000000E+001
  0.18229042500E+008,  0.20012557167E+007,  0.19000000000E+002,  0.00000000000E+000,  0.10000000000E+001
  0.18229044500E+008,  0.20012613636E+007,  0.19000000000E+002,  0.00000000000E+000,  0.10000000000E+001
  0.18229046500E+008,  0.20012669944E+007,  0.19000000000E+002,  0.00000000000E+000,  0.10000000000E+001
  0.18229048500E+008,  0.20012726090E+007,  0.19000000000E+002,  0.00000000000E+000,  0.10000000000E+001
  0.18229050500E+008,  0.20012782077E+007,  0.19000000000E+002,  0.00000000000E+000,  0.10000000000E+001
  0.18229052500E+008,  0.20012837906E+007,  0.19000000000E+002,  0.00000000000E+000,  0.10000000000E+001
  0.18229054500E+008,  0.20012893578E+007,  0.19000000000E+002,  0.00000000000E+000,  0.10000000000E+001
  0.18229056500E+008,  0.20012949094E+007,  0.19000000000E+002,  0.00000000000E+000,  0.10000000000E+001
  0.18229058500E+008,  0.20013004456E+007,  0.19000000000E+002,  0.00000000000E+000,  0.10000000000E+001
  0.18229060500E+008,  0.20013059663E+007,  0.19000000000E+002,  0.00000000000E+000,  0.10000000000E+001
  0.18229062500E+008,  0.20013114719E+007,  0.19000000000E+002,  0.00000000000E+000,  0.10000000000E+001
  0.18229064500E+008,  0.20013169622E+007,  0.19000000000E+002,  0.00000000000E+000,  0.10000000000E+001
  0.18229066500E+008,  0.20013224376E+007,  0.19000000000E+002,  0.00000000000E+000,  0.10000000000E+001
  0.18229068500E+008,  0.20013278980E+007,  0.19000000000E+002,  0.00000000000E+000,  0.10000000000E+001
  0.18229070500E+008,  0.20013333436E+007,  0.19000000000E+002,  0.00000000000E+000,  0.10000000000E+001
  0.18229072500E+008,  0.20013387745E+007,  0.19000000000E+002,  0.00000000000E+000,  0.10000000000E+001
  0.18229074500E+008,  0.20013441907E+007,  0.19000000000E+002,  0.00000000000E+000,  0.10000000000E+001
  0.18229076500E+008,  0.20013495925E+007,  0.19000000000E+002,  0.00000000000E+000,  0.10000000000E+001
