"           TIME(S)","              PRES","              TEMP","             SAT_G","             SAT_L"
  0.17592105000E+008,  0.21000000001E+007,  0.19000000000E+002,  0.00000000000E+000,  0.10000000000E+001
  0.17592130000E+008,  0.21000000471E+007,  0.19000000000E+002,  0.00000000000E+000,  0.10000000000E+001
  0.17592255000E+008,  0.21000012927E+007,  0.19000000000E+002,  0.00000000000E+000,  0.10000000000E+001
  0.17592405000E+008,  0.20999993429E+007,  0.19000000000E+002,  0.00000000000E+000,  0.10000000000E+001
  0.17592555000E+008,  0.20999909177E+007,  0.19000000000E+002,  0.00000000000E+000,  0.10000000000E+001
  0.17592705000E+008,  0.20999747207E+007,  0.19000000000E+002,  0.00000000000E+000,  0.10000000000E+001
  0.17592855000E+008,  0.20999501288E+007,  0.19000000000E+002,  0.00000000000E+000,  0.10000000000E+001
  0.17593005000E+008,  0.20999174813E+007,  0.19000000000E+002,  0.00000000000E+000,  0.10000000000E+001
  0.17593155000E+008,  0.20998775268E+007,  0.19000000000E+002,  0.00000000000E+000,  0.10000000000E+001
  0.17593305000E+008,  0.20998312292E+007,  0.19000000000E+002,  0.00000000000E+000,  0.10000000000E+001
  0.17593455000E+008,  0.20997795417E+007,  0.19000000000E+002,  0.00000000000E+000,  0.10000000000E+001
  0.17593605000E+008,  0.20997232957E+007,  0.19000000000E+002,  0.00000000000E+000,  0.10000000000E+001
  0.17593755000E+008,  0.20996631747E+007,  0.19000000000E+002,  0.00000000000E+000,  0.10000000000E+001
  0.17593905000E+008,  0.20995997300E+007,  0.19000000000E+002,  0.00000000000E+000,  0.10000000000E+001
  0.17594055000E+008,  0.20995334085E+007,  0.19000000000E+002,  0.00000000000E+000,  0.10000000000E+001
  0.17594205000E+008,  0.20994645798E+007,  0.19000000000E+002,  0.00000000000E+000,  0.10000000000E+001
  0.17594355000E+008,  0.20993935568E+007,  0.19000000000E+002,  0.00000000000E+000,  0.10000000000E+001
  0.17594505000E+008,  0.20993206104E+007,  0.19000000000E+002,  0.00000000000E+000,  0.10000000000E+001
  0.17594655000E+008,  0.20992459796E+007,  0.19000000000E+002,  0.00000000000E+000,  0.10000000000E+001
  0.17594805000E+008,  0.20991698773E+007,  0.19000000000E+002,  0.00000000000E+000,  0.10000000000E+001
  0.17594955000E+008,  0.20990924941E+007,  0.19000000000E+002,  0.00000000000E+000,  0.10000000000E+001
  0.17595105000E+008,  0.20990140027E+007,  0.19000000000E+002,  0.00000000000E+000,  0.10000000000E+001
  0.17595255000E+008,  0.20989307721E+007,  0.19000000000E+002,  0.00000000000E+000,  0.10000000000E+001
  0.17595330000E+008,  0.20988882699E+007,  0.19000000000E+002,  0.00000000000E+000,  0.10000000000E+001
  0.17595480000E+008,  0.20987964416E+007,  0.19000000000E+002,  0.00000000000E+000,  0.10000000000E+001
  0.17595555001E+008,  0.20987419479E+007,  0.19000000000E+002,  0.00000000000E+000,  0.10000000000E+001
  0.17595592501E+008,  0.20987118881E+007,  0.19000000000E+002,  0.00000000000E+000,  0.10000000000E+001
  0.17595742501E+008,  0.20985966614E+007,  0.19000000000E+002,  0.00000000000E+000,  0.10000000000E+001
  0.17595817502E+008,  0.20985316291E+007,  0.19000000000E+002,  0.00000000000E+000,  0.10000000000E+001
  0.17595855002E+008,  0.20984959442E+007,  0.19000000000E+002,  0.00000000000E+000,  0.10000000000E+001
  0.17596005002E+008,  0.20982946875E+007,  0.19000000000E+002,  0.00000000000E+000,  0.10000000000E+001
  0.17596080003E+008,  0.20981738232E+007,  0.19000000000E+002,  0.00000000000E+000,  0.10000000000E+001
  0.17596117503E+008,  0.20981111769E+007,  0.19000000000E+002,  0.00000000000E+000,  0.10000000000E+001
  0.17596136254E+008,  0.20980768702E+007,  0.19000000000E+002,  0.00000000000E+000,  0.10000000000E+001
  0.17596230005E+008,  0.20978642446E+007,  0.19000000000E+002,  0.00000000000E+000,  0.10000000000E+001
  0.17596276882E+008,  0.20977055433E+007,  0.19000000000E+002,  0.00000000000E+000,  0.10000000000E+001
  0.17596426882E+008,  0.20963274923E+007,  0.19000000000E+002,  0.00000000000E+000,  0.10000000000E+001
  0.17596501882E+008,  0.20941296844E+007,  0.19000000000E+002,  0.00000000000E+000,  0.10000000000E+001
  0.17596651882E+008,  0.20925272992E+007,  0.19000000000E+002,  0.00000000000E+000,  0.10000000000E+001
  0.17596801882E+008,  0.20915665411E+007,  0.19000000000E+002,  0.00000000000E+000,  0.10000000000E+001
  0.17596951882E+008,  0.20908096918E+007,  0.19000000000E+002,  0.00000000000E+000,  0.10000000000E+001
  0.17597101882E+008,  0.20901428059E+007,  0.19000000000E+002,  0.00000000000E+000,  0.10000000000E+001
  0.17597251882E+008,  0.20895242573E+007,  0.19000000000E+002,  0.00000000000E+000,  0.10000000000E+001
  0.17597401882E+008,  0.20889349894E+007,  0.19000000000E+002,  0.00000000000E+000,  0.10000000000E+001
  0.17597551882E+008,  0.20883649596E+007,  0.19000000000E+002,  0.00000000000E+000,  0.10000000000E+001
  0.17597701882E+008,  0.20878083776E+007,  0.19000000000E+002,  0.00000000000E+000,  0.10000000000E+001
  0.17597851882E+008,  0.20872617032E+007,  0.19000000000E+002,  0.00000000000E+000,  0.10000000000E+001
  0.17598001882E+008,  0.20867226851E+007,  0.19000000000E+002,  0.00000000000E+000,  0.10000000000E+001
  0.17598151882E+008,  0.20861898530E+007,  0.19000000000E+002,  0.00000000000E+000,  0.10000000000E+001
  0.17598301882E+008,  0.20856622275E+007,  0.19000000000E+002,  0.00000000000E+000,  0.10000000000E+001
  0.17598451882E+008,  0.20851391470E+007,  0.19000000000E+002,  0.00000000000E+000,  0.10000000000E+001
  0.17598601882E+008,  0.20846201593E+007,  0.19000000000E+002,  0.00000000000E+000,  0.10000000000E+001
  0.17598751882E+008,  0.20841049514E+007,  0.19000000000E+002,  0.00000000000E+000,  0.10000000000E+001
  0.17598901882E+008,  0.20835933050E+007,  0.19000000000E+002,  0.00000000000E+000,  0.10000000000E+001
  0.17599051882E+008,  0.20830850655E+007,  0.19000000000E+002,  0.00000000000E+000,  0.10000000000E+001
  0.17599201882E+008,  0.20825801218E+007,  0.19000000000E+002,  0.00000000000E+000,  0.10000000000E+001
  0.17599351882E+008,  0.20820783929E+007,  0.19000000000E+002,  0.00000000000E+000,  0.10000000000E+001
  0.17599501882E+008,  0.20815798182E+007,  0.19000000000E+002,  0.00000000000E+000,  0.10000000000E+001
  0.17599651882E+008,  0.20810843512E+007,  0.19000000000E+002,  0.00000000000E+000,  0.10000000000E+001
  0.17599801882E+008,  0.20805919550E+007,  0.19000000000E+002,  0.00000000000E+000,  0.10000000000E+001
  0.17599951882E+008,  0.20801025996E+007,  0.19000000000E+002,  0.00000000000E+000,  0.10000000000E+001
  0.17600101882E+008,  0.20796162591E+007,  0.19000000000E+002,  0.00000000000E+000,  0.10000000000E+001
  0.17600251882E+008,  0.20791329113E+007,  0.19000000000E+002,  0.00000000000E+000,  0.10000000000E+001
  0.17600401882E+008,  0.20786525356E+007,  0.19000000000E+002,  0.00000000000E+000,  0.10000000000E+001
  0.17600551882E+008,  0.20781751130E+007,  0.19000000000E+002,  0.00000000000E+000,  0.10000000000E+001
  0.17600701882E+008,  0.20777006257E+007,  0.19000000000E+002,  0.00000000000E+000,  0.10000000000E+001
  0.17600851882E+008,  0.20772290561E+007,  0.19000000000E+002,  0.00000000000E+000,  0.10000000000E+001
  0.17601001882E+008,  0.20767603874E+007,  0.19000000000E+002,  0.00000000000E+000,  0.10000000000E+001
  0.17601151882E+008,  0.20762946028E+007,  0.19000000000E+002,  0.00000000000E+000,  0.10000000000E+001
  0.17601301882E+008,  0.20758316857E+007,  0.19000000000E+002,  0.00000000000E+000,  0.10000000000E+001
  0.17601451882E+008,  0.20753716198E+007,  0.19000000000E+002,  0.00000000000E+000,  0.10000000000E+001
  0.17601601882E+008,  0.20749143886E+007,  0.19000000000E+002,  0.00000000000E+000,  0.10000000000E+001
  0.17601751882E+008,  0.20744599759E+007,  0.19000000000E+002,  0.00000000000E+000,  0.10000000000E+001
  0.17601901882E+008,  0.20740083652E+007,  0.19000000000E+002,  0.00000000000E+000,  0.10000000000E+001
  0.17602051882E+008,  0.20735595403E+007,  0.19000000000E+002,  0.00000000000E+000,  0.10000000000E+001
  0.17602201882E+008,  0.20731134849E+007,  0.19000000000E+002,  0.00000000000E+000,  0.10000000000E+001
  0.17602351882E+008,  0.20726701827E+007,  0.19000000000E+002,  0.00000000000E+000,  0.10000000000E+001
  0.17602501882E+008,  0.20722296174E+007,  0.19000000000E+002,  0.00000000000E+000,  0.10000000000E+001
  0.17602651882E+008,  0.20717917729E+007,  0.19000000000E+002,  0.00000000000E+000,  0.10000000000E+001
  0.17602801882E+008,  0.20713566329E+007,  0.19000000000E+002,  0.00000000000E+000,  0.10000000000E+001
  0.17602951882E+008,  0.20709241812E+007,  0.19000000000E+002,  0.00000000000E+000,  0.10000000000E+001
  0.17603101882E+008,  0.20704944018E+007,  0.19000000000E+002,  0.00000000000E+000,  0.10000000000E+001
  0.17603251882E+008,  0.20700672784E+007,  0.19000000000E+002,  0.00000000000E+000,  0.10000000000E+001
  0.17603401882E+008,  0.20696427953E+007,  0.19000000000E+002,  0.00000000000E+000,  0.10000000000E+001
  0.17603551882E+008,  0.20692209362E+007,  0.19000000000E+002,  0.00000000000E+000,  0.10000000000E+001
  0.17603701882E+008,  0.20688016853E+007,  0.19000000000E+002,  0.00000000000E+000,  0.10000000000E+001
  0.17603851882E+008,  0.20683850268E+007,  0.19000000000E+002,  0.00000000000E+000,  0.10000000000E+001
  0.17604001882E+008,  0.20679709449E+007,  0.19000000000E+002,  0.00000000000E+000,  0.10000000000E+001
  0.17604151882E+008,  0.20675594238E+007,  0.19000000000E+002,  0.00000000000E+000,  0.10000000000E+001
  0.17604301882E+008,  0.20671504479E+007,  0.19000000000E+002,  0.00000000000E+000,  0.10000000000E+001
  0.17604451882E+008,  0.20667440016E+007,  0.19000000000E+002,  0.00000000000E+000,  0.10000000000E+001
  0.17604601882E+008,  0.20663400694E+007,  0.19000000000E+002,  0.00000000000E+000,  0.10000000000E+001
  0.17604751882E+008,  0.20659386359E+007,  0.19000000000E+002,  0.00000000000E+000,  0.10000000000E+001
  0.17604901882E+008,  0.20655396858E+007,  0.19000000000E+002,  0.00000000000E+000,  0.10000000000E+001
  0.17605051882E+008,  0.20651432037E+007,  0.19000000000E+002,  0.00000000000E+000,  0.10000000000E+001
  0.17605201882E+008,  0.20647491745E+007,  0.19000000000E+002,  0.00000000000E+000,  0.10000000000E+001
  0.17605351882E+008,  0.20643575830E+007,  0.19000000000E+002,  0.00000000000E+000,  0.10000000000E+001
  0.17605501882E+008,  0.20639684144E+007,  0.19000000000E+002,  0.00000000000E+000,  0.10000000000E+001
  0.17605651882E+008,  0.20635816536E+007,  0.19000000000E+002,  0.00000000000E+000,  0.10000000000E+001
  0.17605801882E+008,  0.20631972857E+007,  0.19000000000E+002,  0.00000000000E+000,  0.10000000000E+001
  0.17605951882E+008,  0.20628152960E+007,  0.19000000000E+002,  0.00000000000E+000,  0.10000000000E+001
  0.17606101882E+008,  0.20624356699E+007,  0.19000000000E+002,  0.00000000000E+000,  0.10000000000E+001
  0.17606251882E+008,  0.20620583927E+007,  0.19000000000E+002,  0.00000000000E+000,  0.10000000000E+001
  0.17606401882E+008,  0.20616834499E+007,  0.19000000000E+002,  0.00000000000E+000,  0.10000000000E+001
  0.17606551882E+008,  0.20613108271E+007,  0.19000000000E+002,  0.00000000000E+000,  0.10000000000E+001
  0.17606701882E+008,  0.20609405100E+007,  0.19000000000E+002,  0.00000000000E+000,  0.10000000000E+001
  0.17606851882E+008,  0.20605724842E+007,  0.19000000000E+002,  0.00000000000E+000,  0.10000000000E+001
  0.17607001882E+008,  0.20602067357E+007,  0.19000000000E+002,  0.00000000000E+000,  0.10000000000E+001
  0.17607151882E+008,  0.20598432503E+007,  0.19000000000E+002,  0.00000000000E+000,  0.10000000000E+001
  0.17607301882E+008,  0.20594820141E+007,  0.19000000000E+002,  0.00000000000E+000,  0.10000000000E+001
  0.17607451882E+008,  0.20591230130E+007,  0.19000000000E+002,  0.00000000000E+000,  0.10000000000E+001
  0.17607601882E+008,  0.20587662334E+007,  0.19000000000E+002,  0.00000000000E+000,  0.10000000000E+001
  0.17607751882E+008,  0.20584116614E+007,  0.19000000000E+002,  0.00000000000E+000,  0.10000000000E+001
  0.17607901882E+008,  0.20580592834E+007,  0.19000000000E+002,  0.00000000000E+000,  0.10000000000E+001
  0.17608051882E+008,  0.20577090858E+007,  0.19000000000E+002,  0.00000000000E+000,  0.10000000000E+001
  0.17608201882E+008,  0.20573610550E+007,  0.19000000000E+002,  0.00000000000E+000,  0.10000000000E+001
  0.17608351882E+008,  0.20570151778E+007,  0.19000000000E+002,  0.00000000000E+000,  0.10000000000E+001
  0.17608501882E+008,  0.20566714408E+007,  0.19000000000E+002,  0.00000000000E+000,  0.10000000000E+001
  0.17608651882E+008,  0.20563298306E+007,  0.19000000000E+002,  0.00000000000E+000,  0.10000000000E+001
  0.17608801882E+008,  0.20559903342E+007,  0.19000000000E+002,  0.00000000000E+000,  0.10000000000E+001
  0.17608951882E+008,  0.20556529385E+007,  0.19000000000E+002,  0.00000000000E+000,  0.10000000000E+001
  0.17609101882E+008,  0.20553176304E+007,  0.19000000000E+002,  0.00000000000E+000,  0.10000000000E+001
  0.17609251882E+008,  0.20549843970E+007,  0.19000000000E+002,  0.00000000000E+000,  0.10000000000E+001
  0.17609401882E+008,  0.20546532256E+007,  0.19000000000E+002,  0.00000000000E+000,  0.10000000000E+001
  0.17609551882E+008,  0.20543241032E+007,  0.19000000000E+002,  0.00000000000E+000,  0.10000000000E+001
  0.17609701882E+008,  0.20539970173E+007,  0.19000000000E+002,  0.00000000000E+000,  0.10000000000E+001
  0.17609851882E+008,  0.20536719552E+007,  0.19000000000E+002,  0.00000000000E+000,  0.10000000000E+001
  0.17610001882E+008,  0.20533489043E+007,  0.19000000000E+002,  0.00000000000E+000,  0.10000000000E+001
  0.17610151882E+008,  0.20530278523E+007,  0.19000000000E+002,  0.00000000000E+000,  0.10000000000E+001
  0.17610301882E+008,  0.20527087868E+007,  0.19000000000E+002,  0.00000000000E+000,  0.10000000000E+001
  0.17610451882E+008,  0.20523916955E+007,  0.19000000000E+002,  0.00000000000E+000,  0.10000000000E+001
  0.17610601882E+008,  0.20520765660E+007,  0.19000000000E+002,  0.00000000000E+000,  0.10000000000E+001
  0.17610751882E+008,  0.20517633864E+007,  0.19000000000E+002,  0.00000000000E+000,  0.10000000000E+001
  0.17610901882E+008,  0.20514521445E+007,  0.19000000000E+002,  0.00000000000E+000,  0.10000000000E+001
  0.17611051882E+008,  0.20511428283E+007,  0.19000000000E+002,  0.00000000000E+000,  0.10000000000E+001
  0.17611201882E+008,  0.20508354259E+007,  0.19000000000E+002,  0.00000000000E+000,  0.10000000000E+001
  0.17611351882E+008,  0.20505299255E+007,  0.19000000000E+002,  0.00000000000E+000,  0.10000000000E+001
  0.17611501882E+008,  0.20502263153E+007,  0.19000000000E+002,  0.00000000000E+000,  0.10000000000E+001
  0.17611651882E+008,  0.20499245835E+007,  0.19000000000E+002,  0.00000000000E+000,  0.10000000000E+001
  0.17611801882E+008,  0.20496247186E+007,  0.19000000000E+002,  0.00000000000E+000,  0.10000000000E+001
  0.17611951882E+008,  0.20493267089E+007,  0.19000000000E+002,  0.00000000000E+000,  0.10000000000E+001
  0.17612101882E+008,  0.20490305431E+007,  0.19000000000E+002,  0.00000000000E+000,  0.10000000000E+001
  0.17612251882E+008,  0.20487362097E+007,  0.19000000000E+002,  0.00000000000E+000,  0.10000000000E+001
  0.17612401882E+008,  0.20484436973E+007,  0.19000000000E+002,  0.00000000000E+000,  0.10000000000E+001
  0.17612551882E+008,  0.20481529947E+007,  0.19000000000E+002,  0.00000000000E+000,  0.10000000000E+001
  0.17612701882E+008,  0.20478640907E+007,  0.19000000000E+002,  0.00000000000E+000,  0.10000000000E+001
  0.17612851882E+008,  0.20475769741E+007,  0.19000000000E+002,  0.00000000000E+000,  0.10000000000E+001
  0.17613001882E+008,  0.20472916339E+007,  0.19000000000E+002,  0.00000000000E+000,  0.10000000000E+001
  0.17613151882E+008,  0.20470080591E+007,  0.19000000000E+002,  0.00000000000E+000,  0.10000000000E+001
  0.17613301882E+008,  0.20467262387E+007,  0.19000000000E+002,  0.00000000000E+000,  0.10000000000E+001
  0.17613451882E+008,  0.20464461619E+007,  0.19000000000E+002,  0.00000000000E+000,  0.10000000000E+001
  0.17613601882E+008,  0.20461678179E+007,  0.19000000000E+002,  0.00000000000E+000,  0.10000000000E+001
  0.17613751882E+008,  0.20458911960E+007,  0.19000000000E+002,  0.00000000000E+000,  0.10000000000E+001
  0.17613901882E+008,  0.20456162856E+007,  0.19000000000E+002,  0.00000000000E+000,  0.10000000000E+001
  0.17614051882E+008,  0.20453430759E+007,  0.19000000000E+002,  0.00000000000E+000,  0.10000000000E+001
  0.17614201882E+008,  0.20450715565E+007,  0.19000000000E+002,  0.00000000000E+000,  0.10000000000E+001
  0.17614351882E+008,  0.20448017170E+007,  0.19000000000E+002,  0.00000000000E+000,  0.10000000000E+001
  0.17614501882E+008,  0.20445335469E+007,  0.19000000000E+002,  0.00000000000E+000,  0.10000000000E+001
  0.17614651882E+008,  0.20442670359E+007,  0.19000000000E+002,  0.00000000000E+000,  0.10000000000E+001
  0.17614801882E+008,  0.20440021738E+007,  0.19000000000E+002,  0.00000000000E+000,  0.10000000000E+001
  0.17614951882E+008,  0.20437389503E+007,  0.19000000000E+002,  0.00000000000E+000,  0.10000000000E+001
  0.17615101882E+008,  0.20434773553E+007,  0.19000000000E+002,  0.00000000000E+000,  0.10000000000E+001
  0.17615251882E+008,  0.20432173786E+007,  0.19000000000E+002,  0.00000000000E+000,  0.10000000000E+001
  0.17615401882E+008,  0.20429590104E+007,  0.19000000000E+002,  0.00000000000E+000,  0.10000000000E+001
  0.17615551882E+008,  0.20427022407E+007,  0.19000000000E+002,  0.00000000000E+000,  0.10000000000E+001
  0.17615701882E+008,  0.20424470595E+007,  0.19000000000E+002,  0.00000000000E+000,  0.10000000000E+001
  0.17615851882E+008,  0.20421934570E+007,  0.19000000000E+002,  0.00000000000E+000,  0.10000000000E+001
  0.17616001882E+008,  0.20419414234E+007,  0.19000000000E+002,  0.00000000000E+000,  0.10000000000E+001
  0.17616151882E+008,  0.20416909491E+007,  0.19000000000E+002,  0.00000000000E+000,  0.10000000000E+001
  0.17616301882E+008,  0.20414420244E+007,  0.19000000000E+002,  0.00000000000E+000,  0.10000000000E+001
  0.17616451882E+008,  0.20411946397E+007,  0.19000000000E+002,  0.00000000000E+000,  0.10000000000E+001
  0.17616601882E+008,  0.20409487854E+007,  0.19000000000E+002,  0.00000000000E+000,  0.10000000000E+001
  0.17616751882E+008,  0.20407044522E+007,  0.19000000000E+002,  0.00000000000E+000,  0.10000000000E+001
  0.17616901882E+008,  0.20404616305E+007,  0.19000000000E+002,  0.00000000000E+000,  0.10000000000E+001
  0.17617051882E+008,  0.20402203111E+007,  0.19000000000E+002,  0.00000000000E+000,  0.10000000000E+001
  0.17617201882E+008,  0.20399804846E+007,  0.19000000000E+002,  0.00000000000E+000,  0.10000000000E+001
  0.17617351882E+008,  0.20397421418E+007,  0.19000000000E+002,  0.00000000000E+000,  0.10000000000E+001
  0.17617501882E+008,  0.20395052736E+007,  0.19000000000E+002,  0.00000000000E+000,  0.10000000000E+001
  0.17617651882E+008,  0.20392698707E+007,  0.19000000000E+002,  0.00000000000E+000,  0.10000000000E+001
  0.17617801882E+008,  0.20390359241E+007,  0.19000000000E+002,  0.00000000000E+000,  0.10000000000E+001
  0.17617951882E+008,  0.20388034249E+007,  0.19000000000E+002,  0.00000000000E+000,  0.10000000000E+001
  0.17618101882E+008,  0.20385723640E+007,  0.19000000000E+002,  0.00000000000E+000,  0.10000000000E+001
  0.17618251882E+008,  0.20383427326E+007,  0.19000000000E+002,  0.00000000000E+000,  0.10000000000E+001
  0.17618401882E+008,  0.20381145218E+007,  0.19000000000E+002,  0.00000000000E+000,  0.10000000000E+001
  0.17618551882E+008,  0.20378877228E+007,  0.19000000000E+002,  0.00000000000E+000,  0.10000000000E+001
  0.17618701882E+008,  0.20376623269E+007,  0.19000000000E+002,  0.00000000000E+000,  0.10000000000E+001
  0.17618851882E+008,  0.20374383254E+007,  0.19000000000E+002,  0.00000000000E+000,  0.10000000000E+001
  0.17619001882E+008,  0.20372157096E+007,  0.19000000000E+002,  0.00000000000E+000,  0.10000000000E+001
  0.17619151882E+008,  0.20369944711E+007,  0.19000000000E+002,  0.00000000000E+000,  0.10000000000E+001
