"           TIME(S)","              PRES","              TEMP","             SAT_G","             SAT_L"
  0.18228740000E+008,  0.20000001983E+007,  0.19000000000E+002,  0.00000000000E+000,  0.10000000000E+001
  0.18228890000E+008,  0.20000156158E+007,  0.19000000000E+002,  0.00000000000E+000,  0.10000000000E+001
  0.18229040000E+008,  0.20000498897E+007,  0.19000000000E+002,  0.00000000000E+000,  0.10000000000E+001
  0.18229190000E+008,  0.20001034961E+007,  0.19000000000E+002,  0.00000000000E+000,  0.10000000000E+001
  0.18229340000E+008,  0.20001754847E+007,  0.19000000000E+002,  0.00000000000E+000,  0.10000000000E+001
  0.18229490000E+008,  0.20002644963E+007,  0.19000000000E+002,  0.00000000000E+000,  0.10000000000E+001
  0.18229565000E+008,  0.20003131516E+007,  0.19000000000E+002,  0.00000000000E+000,  0.10000000000E+001
  0.18229715000E+008,  0.20004273151E+007,  0.19000000000E+002,  0.00000000000E+000,  0.10000000000E+001
  0.18229790001E+008,  0.20004886820E+007,  0.19000000000E+002,  0.00000000000E+000,  0.10000000000E+001
  0.18229827501E+008,  0.20005204474E+007,  0.19000000000E+002,  0.00000000000E+000,  0.10000000000E+001
  0.18229846251E+008,  0.20005366020E+007,  0.19000000000E+002,  0.00000000000E+000,  0.10000000000E+001
  0.18229855627E+008,  0.20005447474E+007,  0.19000000000E+002,  0.00000000000E+000,  0.10000000000E+001
  0.18229902503E+008,  0.20005872018E+007,  0.19000000000E+002,  0.00000000000E+000,  0.10000000000E+001
  0.18229925941E+008,  0.20006088639E+007,  0.19000000000E+002,  0.00000000000E+000,  0.10000000000E+001
  0.18230043132E+008,  0.20007281803E+007,  0.19000000000E+002,  0.00000000000E+000,  0.10000000000E+001
  0.18230101728E+008,  0.20007905913E+007,  0.19000000000E+002,  0.00000000000E+000,  0.10000000000E+001
  0.18230131026E+008,  0.20008224845E+007,  0.19000000000E+002,  0.00000000000E+000,  0.10000000000E+001
  0.18230145675E+008,  0.20008386029E+007,  0.19000000000E+002,  0.00000000000E+000,  0.10000000000E+001
  0.18230218920E+008,  0.20009234819E+007,  0.19000000000E+002,  0.00000000000E+000,  0.10000000000E+001
  0.18230255543E+008,  0.20009669931E+007,  0.19000000000E+002,  0.00000000000E+000,  0.10000000000E+001
  0.18230273855E+008,  0.20009890167E+007,  0.19000000000E+002,  0.00000000000E+000,  0.10000000000E+001
  0.18230283011E+008,  0.20010000956E+007,  0.19000000000E+002,  0.00000000000E+000,  0.10000000000E+001
  0.18230328790E+008,  0.20010571668E+007,  0.19000000000E+002,  0.00000000000E+000,  0.10000000000E+001
  0.18230478790E+008,  0.20012616921E+007,  0.19000000000E+002,  0.00000000000E+000,  0.10000000000E+001
  0.18230628790E+008,  0.20014825423E+007,  0.19000000000E+002,  0.00000000000E+000,  0.10000000000E+001
  0.18230778790E+008,  0.20017181579E+007,  0.19000000000E+002,  0.00000000000E+000,  0.10000000000E+001
  0.18230928790E+008,  0.20019670806E+007,  0.19000000000E+002,  0.00000000000E+000,  0.10000000000E+001
  0.18231078790E+008,  0.20022282354E+007,  0.19000000000E+002,  0.00000000000E+000,  0.10000000000E+001
  0.18231228790E+008,  0.20025010310E+007,  0.19000000000E+002,  0.00000000000E+000,  0.10000000000E+001
  0.18231378790E+008,  0.20027854264E+007,  0.19000000000E+002,  0.00000000000E+000,  0.10000000000E+001
  0.18231528790E+008,  0.20030818781E+007,  0.19000000000E+002,  0.00000000000E+000,  0.10000000000E+001
  0.18231678790E+008,  0.20033910234E+007,  0.19000000000E+002,  0.00000000000E+000,  0.10000000000E+001
  0.18231828790E+008,  0.20037134701E+007,  0.19000000000E+002,  0.00000000000E+000,  0.10000000000E+001
  0.18231978790E+008,  0.20040497300E+007,  0.19000000000E+002,  0.00000000000E+000,  0.10000000000E+001
  0.18232128790E+008,  0.20044002152E+007,  0.19000000000E+002,  0.00000000000E+000,  0.10000000000E+001
  0.18232278790E+008,  0.20047652469E+007,  0.19000000000E+002,  0.00000000000E+000,  0.10000000000E+001
  0.18232428790E+008,  0.20051450639E+007,  0.19000000000E+002,  0.00000000000E+000,  0.10000000000E+001
  0.18232578790E+008,  0.20055398303E+007,  0.19000000000E+002,  0.00000000000E+000,  0.10000000000E+001
  0.18232728790E+008,  0.20059496417E+007,  0.19000000000E+002,  0.00000000000E+000,  0.10000000000E+001
  0.18232878790E+008,  0.20063745339E+007,  0.19000000000E+002,  0.00000000000E+000,  0.10000000000E+001
  0.18233028790E+008,  0.20068144902E+007,  0.19000000000E+002,  0.00000000000E+000,  0.10000000000E+001
  0.18233178790E+008,  0.20072694498E+007,  0.19000000000E+002,  0.00000000000E+000,  0.10000000000E+001
  0.18233328790E+008,  0.20077393155E+007,  0.19000000000E+002,  0.00000000000E+000,  0.10000000000E+001
  0.18233478790E+008,  0.20082239609E+007,  0.19000000000E+002,  0.00000000000E+000,  0.10000000000E+001
  0.18233628790E+008,  0.20087232361E+007,  0.19000000000E+002,  0.00000000000E+000,  0.10000000000E+001
  0.18233778790E+008,  0.20092369735E+007,  0.19000000000E+002,  0.00000000000E+000,  0.10000000000E+001
  0.18233928790E+008,  0.20097649919E+007,  0.19000000000E+002,  0.00000000000E+000,  0.10000000000E+001
  0.18234078790E+008,  0.20103071001E+007,  0.19000000000E+002,  0.00000000000E+000,  0.10000000000E+001
  0.18234228790E+008,  0.20108631001E+007,  0.19000000000E+002,  0.00000000000E+000,  0.10000000000E+001
  0.18234378790E+008,  0.20114327893E+007,  0.19000000000E+002,  0.00000000000E+000,  0.10000000000E+001
  0.18234528790E+008,  0.20120159619E+007,  0.19000000000E+002,  0.00000000000E+000,  0.10000000000E+001
  0.18234678790E+008,  0.20126124111E+007,  0.19000000000E+002,  0.00000000000E+000,  0.10000000000E+001
  0.18234828790E+008,  0.20132219294E+007,  0.19000000000E+002,  0.00000000000E+000,  0.10000000000E+001
  0.18234978790E+008,  0.20138443097E+007,  0.19000000000E+002,  0.00000000000E+000,  0.10000000000E+001
  0.18235128790E+008,  0.20144793462E+007,  0.19000000000E+002,  0.00000000000E+000,  0.10000000000E+001
  0.18235278790E+008,  0.20151268344E+007,  0.19000000000E+002,  0.00000000000E+000,  0.10000000000E+001
  0.18235428790E+008,  0.20157865715E+007,  0.19000000000E+002,  0.00000000000E+000,  0.10000000000E+001
  0.18235578790E+008,  0.20164583571E+007,  0.19000000000E+002,  0.00000000000E+000,  0.10000000000E+001
  0.18235728790E+008,  0.20171419926E+007,  0.19000000000E+002,  0.00000000000E+000,  0.10000000000E+001
  0.18235878790E+008,  0.20178372821E+007,  0.19000000000E+002,  0.00000000000E+000,  0.10000000000E+001
  0.18236028790E+008,  0.20185440319E+007,  0.19000000000E+002,  0.00000000000E+000,  0.10000000000E+001
  0.18236178790E+008,  0.20192620508E+007,  0.19000000000E+002,  0.00000000000E+000,  0.10000000000E+001
  0.18236328790E+008,  0.20199911502E+007,  0.19000000000E+002,  0.00000000000E+000,  0.10000000000E+001
  0.18236478790E+008,  0.20207311440E+007,  0.19000000000E+002,  0.00000000000E+000,  0.10000000000E+001
  0.18236628790E+008,  0.20214818487E+007,  0.19000000000E+002,  0.00000000000E+000,  0.10000000000E+001
  0.18236778790E+008,  0.20222430833E+007,  0.19000000000E+002,  0.00000000000E+000,  0.10000000000E+001
  0.18236928790E+008,  0.20230146693E+007,  0.19000000000E+002,  0.00000000000E+000,  0.10000000000E+001
  0.18237078790E+008,  0.20237964308E+007,  0.19000000000E+002,  0.00000000000E+000,  0.10000000000E+001
  0.18237228790E+008,  0.20245881945E+007,  0.19000000000E+002,  0.00000000000E+000,  0.10000000000E+001
  0.18237378790E+008,  0.20253897895E+007,  0.19000000000E+002,  0.00000000000E+000,  0.10000000000E+001
  0.18237528790E+008,  0.20262010476E+007,  0.19000000000E+002,  0.00000000000E+000,  0.10000000000E+001
  0.18237678790E+008,  0.20270218029E+007,  0.19000000000E+002,  0.00000000000E+000,  0.10000000000E+001
  0.18237828790E+008,  0.20278518921E+007,  0.19000000000E+002,  0.00000000000E+000,  0.10000000000E+001
  0.18237978790E+008,  0.20286911543E+007,  0.19000000000E+002,  0.00000000000E+000,  0.10000000000E+001
  0.18238128790E+008,  0.20295394311E+007,  0.19000000000E+002,  0.00000000000E+000,  0.10000000000E+001
  0.18238278790E+008,  0.20303965666E+007,  0.19000000000E+002,  0.00000000000E+000,  0.10000000000E+001
  0.18238428790E+008,  0.20312624071E+007,  0.19000000000E+002,  0.00000000000E+000,  0.10000000000E+001
  0.18238578790E+008,  0.20321368015E+007,  0.19000000000E+002,  0.00000000000E+000,  0.10000000000E+001
  0.18238728790E+008,  0.20330196009E+007,  0.19000000000E+002,  0.00000000000E+000,  0.10000000000E+001
  0.18238878790E+008,  0.20339106588E+007,  0.19000000000E+002,  0.00000000000E+000,  0.10000000000E+001
  0.18239028790E+008,  0.20348098312E+007,  0.19000000000E+002,  0.00000000000E+000,  0.10000000000E+001
  0.18239178790E+008,  0.20357169761E+007,  0.19000000000E+002,  0.00000000000E+000,  0.10000000000E+001
  0.18239328790E+008,  0.20366319539E+007,  0.19000000000E+002,  0.00000000000E+000,  0.10000000000E+001
  0.18239478790E+008,  0.20375546272E+007,  0.19000000000E+002,  0.00000000000E+000,  0.10000000000E+001
  0.18239628790E+008,  0.20384848609E+007,  0.19000000000E+002,  0.00000000000E+000,  0.10000000000E+001
  0.18239778790E+008,  0.20394225220E+007,  0.19000000000E+002,  0.00000000000E+000,  0.10000000000E+001
  0.18239928790E+008,  0.20403674797E+007,  0.19000000000E+002,  0.00000000000E+000,  0.10000000000E+001
  0.18240078790E+008,  0.20413196054E+007,  0.19000000000E+002,  0.00000000000E+000,  0.10000000000E+001
  0.18240228790E+008,  0.20422787724E+007,  0.19000000000E+002,  0.00000000000E+000,  0.10000000000E+001
  0.18240378790E+008,  0.20432448563E+007,  0.19000000000E+002,  0.00000000000E+000,  0.10000000000E+001
  0.18240528790E+008,  0.20442177346E+007,  0.19000000000E+002,  0.00000000000E+000,  0.10000000000E+001
  0.18240678790E+008,  0.20451972870E+007,  0.19000000000E+002,  0.00000000000E+000,  0.10000000000E+001
  0.18240828790E+008,  0.20461833949E+007,  0.19000000000E+002,  0.00000000000E+000,  0.10000000000E+001
  0.18240978790E+008,  0.20471759419E+007,  0.19000000000E+002,  0.00000000000E+000,  0.10000000000E+001
  0.18241128790E+008,  0.20481748134E+007,  0.19000000000E+002,  0.00000000000E+000,  0.10000000000E+001
  0.18241278790E+008,  0.20491798969E+007,  0.19000000000E+002,  0.00000000000E+000,  0.10000000000E+001
  0.18241428790E+008,  0.20501910815E+007,  0.19000000000E+002,  0.00000000000E+000,  0.10000000000E+001
  0.18241578790E+008,  0.20512082585E+007,  0.19000000000E+002,  0.00000000000E+000,  0.10000000000E+001
  0.18241728790E+008,  0.20522313206E+007,  0.19000000000E+002,  0.00000000000E+000,  0.10000000000E+001
  0.18241878790E+008,  0.20532601626E+007,  0.19000000000E+002,  0.00000000000E+000,  0.10000000000E+001
  0.18242028790E+008,  0.20542946811E+007,  0.19000000000E+002,  0.00000000000E+000,  0.10000000000E+001
  0.18242178790E+008,  0.20553347741E+007,  0.19000000000E+002,  0.00000000000E+000,  0.10000000000E+001
  0.18242328790E+008,  0.20563803418E+007,  0.19000000000E+002,  0.00000000000E+000,  0.10000000000E+001
  0.18242478790E+008,  0.20574312856E+007,  0.19000000000E+002,  0.00000000000E+000,  0.10000000000E+001
  0.18242628790E+008,  0.20584875088E+007,  0.19000000000E+002,  0.00000000000E+000,  0.10000000000E+001
  0.18242778790E+008,  0.20595489164E+007,  0.19000000000E+002,  0.00000000000E+000,  0.10000000000E+001
  0.18242928790E+008,  0.20606154149E+007,  0.19000000000E+002,  0.00000000000E+000,  0.10000000000E+001
  0.18243078790E+008,  0.20616869124E+007,  0.19000000000E+002,  0.00000000000E+000,  0.10000000000E+001
  0.18243228790E+008,  0.20627633186E+007,  0.19000000000E+002,  0.00000000000E+000,  0.10000000000E+001
  0.18243378790E+008,  0.20638445445E+007,  0.19000000000E+002,  0.00000000000E+000,  0.10000000000E+001
  0.18243528790E+008,  0.20649305030E+007,  0.19000000000E+002,  0.00000000000E+000,  0.10000000000E+001
  0.18243678790E+008,  0.20660211083E+007,  0.19000000000E+002,  0.00000000000E+000,  0.10000000000E+001
  0.18243828790E+008,  0.20671162758E+007,  0.19000000000E+002,  0.00000000000E+000,  0.10000000000E+001
  0.18243978790E+008,  0.20682159228E+007,  0.19000000000E+002,  0.00000000000E+000,  0.10000000000E+001
  0.18244128790E+008,  0.20693199676E+007,  0.19000000000E+002,  0.00000000000E+000,  0.10000000000E+001
  0.18244278790E+008,  0.20704283301E+007,  0.19000000000E+002,  0.00000000000E+000,  0.10000000000E+001
  0.18244428790E+008,  0.20715409317E+007,  0.19000000000E+002,  0.00000000000E+000,  0.10000000000E+001
  0.18244578790E+008,  0.20726576947E+007,  0.19000000000E+002,  0.00000000000E+000,  0.10000000000E+001
  0.18244728790E+008,  0.20737785432E+007,  0.19000000000E+002,  0.00000000000E+000,  0.10000000000E+001
  0.18244878790E+008,  0.20749034023E+007,  0.19000000000E+002,  0.00000000000E+000,  0.10000000000E+001
  0.18245028790E+008,  0.20760321984E+007,  0.19000000000E+002,  0.00000000000E+000,  0.10000000000E+001
  0.18245178790E+008,  0.20771648593E+007,  0.19000000000E+002,  0.00000000000E+000,  0.10000000000E+001
  0.18245328790E+008,  0.20783013139E+007,  0.19000000000E+002,  0.00000000000E+000,  0.10000000000E+001
  0.18245478790E+008,  0.20794414924E+007,  0.19000000000E+002,  0.00000000000E+000,  0.10000000000E+001
  0.18245628790E+008,  0.20805853262E+007,  0.19000000000E+002,  0.00000000000E+000,  0.10000000000E+001
  0.18245778790E+008,  0.20817327476E+007,  0.19000000000E+002,  0.00000000000E+000,  0.10000000000E+001
  0.18245928790E+008,  0.20828836905E+007,  0.19000000000E+002,  0.00000000000E+000,  0.10000000000E+001
  0.18246078790E+008,  0.20840380896E+007,  0.19000000000E+002,  0.00000000000E+000,  0.10000000000E+001
  0.18246228790E+008,  0.20851958809E+007,  0.19000000000E+002,  0.00000000000E+000,  0.10000000000E+001
  0.18246378790E+008,  0.20863570013E+007,  0.19000000000E+002,  0.00000000000E+000,  0.10000000000E+001
  0.18246528790E+008,  0.20875213890E+007,  0.19000000000E+002,  0.00000000000E+000,  0.10000000000E+001
  0.18246678790E+008,  0.20886889832E+007,  0.19000000000E+002,  0.00000000000E+000,  0.10000000000E+001
  0.18246828790E+008,  0.20898597239E+007,  0.19000000000E+002,  0.00000000000E+000,  0.10000000000E+001
  0.18246978790E+008,  0.20910335525E+007,  0.19000000000E+002,  0.00000000000E+000,  0.10000000000E+001
  0.18247128790E+008,  0.20922104111E+007,  0.19000000000E+002,  0.00000000000E+000,  0.10000000000E+001
  0.18247278790E+008,  0.20933902430E+007,  0.19000000000E+002,  0.00000000000E+000,  0.10000000000E+001
  0.18247428790E+008,  0.20945729923E+007,  0.19000000000E+002,  0.00000000000E+000,  0.10000000000E+001
  0.18247578790E+008,  0.20957586042E+007,  0.19000000000E+002,  0.00000000000E+000,  0.10000000000E+001
  0.18247728790E+008,  0.20969470248E+007,  0.19000000000E+002,  0.00000000000E+000,  0.10000000000E+001
  0.18247878790E+008,  0.20981382010E+007,  0.19000000000E+002,  0.00000000000E+000,  0.10000000000E+001
  0.18248028790E+008,  0.20993320808E+007,  0.19000000000E+002,  0.00000000000E+000,  0.10000000000E+001
  0.18248178790E+008,  0.21005286130E+007,  0.19000000000E+002,  0.00000000000E+000,  0.10000000000E+001
  0.18248328790E+008,  0.21017277473E+007,  0.19000000000E+002,  0.00000000000E+000,  0.10000000000E+001
  0.18248478790E+008,  0.21029294341E+007,  0.19000000000E+002,  0.00000000000E+000,  0.10000000000E+001
  0.18248628790E+008,  0.21041336249E+007,  0.19000000000E+002,  0.00000000000E+000,  0.10000000000E+001
  0.18248778790E+008,  0.21053402719E+007,  0.19000000000E+002,  0.00000000000E+000,  0.10000000000E+001
  0.18248928790E+008,  0.21065493281E+007,  0.19000000000E+002,  0.00000000000E+000,  0.10000000000E+001
  0.18249078790E+008,  0.21077607473E+007,  0.19000000000E+002,  0.00000000000E+000,  0.10000000000E+001
  0.18249228790E+008,  0.21089744843E+007,  0.19000000000E+002,  0.00000000000E+000,  0.10000000000E+001
  0.18249378790E+008,  0.21101904944E+007,  0.19000000000E+002,  0.00000000000E+000,  0.10000000000E+001
  0.18249528790E+008,  0.21114087338E+007,  0.19000000000E+002,  0.00000000000E+000,  0.10000000000E+001
  0.18249678790E+008,  0.21126291593E+007,  0.19000000000E+002,  0.00000000000E+000,  0.10000000000E+001
  0.18249828790E+008,  0.21138517288E+007,  0.19000000000E+002,  0.00000000000E+000,  0.10000000000E+001
  0.18249978790E+008,  0.21150764005E+007,  0.19000000000E+002,  0.00000000000E+000,  0.10000000000E+001
  0.18250128790E+008,  0.21163031335E+007,  0.19000000000E+002,  0.00000000000E+000,  0.10000000000E+001
  0.18250278790E+008,  0.21175318877E+007,  0.19000000000E+002,  0.00000000000E+000,  0.10000000000E+001
  0.18250428790E+008,  0.21187626235E+007,  0.19000000000E+002,  0.00000000000E+000,  0.10000000000E+001
  0.18250578790E+008,  0.21199953022E+007,  0.19000000000E+002,  0.00000000000E+000,  0.10000000000E+001
  0.18250728790E+008,  0.21212298854E+007,  0.19000000000E+002,  0.00000000000E+000,  0.10000000000E+001
  0.18250878790E+008,  0.21224663358E+007,  0.19000000000E+002,  0.00000000000E+000,  0.10000000000E+001
  0.18251028790E+008,  0.21237046164E+007,  0.19000000000E+002,  0.00000000000E+000,  0.10000000000E+001
  0.18251178790E+008,  0.21249446911E+007,  0.19000000000E+002,  0.00000000000E+000,  0.10000000000E+001
  0.18251328790E+008,  0.21261865241E+007,  0.19000000000E+002,  0.00000000000E+000,  0.10000000000E+001
  0.18251478790E+008,  0.21274300804E+007,  0.19000000000E+002,  0.00000000000E+000,  0.10000000000E+001
  0.18251628790E+008,  0.21286753257E+007,  0.19000000000E+002,  0.00000000000E+000,  0.10000000000E+001
  0.18251778790E+008,  0.21299222262E+007,  0.19000000000E+002,  0.00000000000E+000,  0.10000000000E+001
  0.18251928790E+008,  0.21311707485E+007,  0.19000000000E+002,  0.00000000000E+000,  0.10000000000E+001
  0.18252078790E+008,  0.21324208600E+007,  0.19000000000E+002,  0.00000000000E+000,  0.10000000000E+001
  0.18252228790E+008,  0.21336725287E+007,  0.19000000000E+002,  0.00000000000E+000,  0.10000000000E+001
  0.18252378790E+008,  0.21349257228E+007,  0.19000000000E+002,  0.00000000000E+000,  0.10000000000E+001
  0.18252528790E+008,  0.21361804114E+007,  0.19000000000E+002,  0.00000000000E+000,  0.10000000000E+001
  0.18252678790E+008,  0.21374365640E+007,  0.19000000000E+002,  0.00000000000E+000,  0.10000000000E+001
  0.18252828790E+008,  0.21386941507E+007,  0.19000000000E+002,  0.00000000000E+000,  0.10000000000E+001
  0.18252978790E+008,  0.21399531419E+007,  0.19000000000E+002,  0.00000000000E+000,  0.10000000000E+001
  0.18253128790E+008,  0.21412135087E+007,  0.19000000000E+002,  0.00000000000E+000,  0.10000000000E+001
  0.18253278790E+008,  0.21424752226E+007,  0.19000000000E+002,  0.00000000000E+000,  0.10000000000E+001
  0.18253428790E+008,  0.21437382557E+007,  0.19000000000E+002,  0.00000000000E+000,  0.10000000000E+001
  0.18253578790E+008,  0.21450025804E+007,  0.19000000000E+002,  0.00000000000E+000,  0.10000000000E+001
  0.18253728790E+008,  0.21462681698E+007,  0.19000000000E+002,  0.00000000000E+000,  0.10000000000E+001
  0.18253878790E+008,  0.21475349972E+007,  0.19000000000E+002,  0.00000000000E+000,  0.10000000000E+001
  0.18254028790E+008,  0.21488030366E+007,  0.19000000000E+002,  0.00000000000E+000,  0.10000000000E+001
  0.18254178790E+008,  0.21500722622E+007,  0.19000000000E+002,  0.00000000000E+000,  0.10000000000E+001
  0.18254328790E+008,  0.21513426489E+007,  0.19000000000E+002,  0.00000000000E+000,  0.10000000000E+001
  0.18254478790E+008,  0.21526141718E+007,  0.19000000000E+002,  0.00000000000E+000,  0.10000000000E+001
  0.18254628790E+008,  0.21538868066E+007,  0.19000000000E+002,  0.00000000000E+000,  0.10000000000E+001
  0.18254778790E+008,  0.21551605293E+007,  0.19000000000E+002,  0.00000000000E+000,  0.10000000000E+001
  0.18254928790E+008,  0.21564353163E+007,  0.19000000000E+002,  0.00000000000E+000,  0.10000000000E+001
  0.18255078790E+008,  0.21577111446E+007,  0.19000000000E+002,  0.00000000000E+000,  0.10000000000E+001
  0.18255228790E+008,  0.21589879913E+007,  0.19000000000E+002,  0.00000000000E+000,  0.10000000000E+001
