"           TIME(S)","              PRES","              TEMP","             SAT_G","             SAT_L"
  0.17592150000E+008,  0.20999254734E+007,  0.19000000000E+002,  0.00000000000E+000,  0.10000000000E+001
  0.17592300000E+008,  0.20985625470E+007,  0.19000000000E+002,  0.00000000000E+000,  0.10000000000E+001
  0.17592450000E+008,  0.20966595639E+007,  0.19000000000E+002,  0.00000000000E+000,  0.10000000000E+001
  0.17592600000E+008,  0.20947231951E+007,  0.19000000000E+002,  0.00000000000E+000,  0.10000000000E+001
  0.17592750000E+008,  0.20929718032E+007,  0.19000000000E+002,  0.00000000000E+000,  0.10000000000E+001
  0.17592900000E+008,  0.20914511725E+007,  0.19000000000E+002,  0.00000000000E+000,  0.10000000000E+001
  0.17593050000E+008,  0.20901387191E+007,  0.19000000000E+002,  0.00000000000E+000,  0.10000000000E+001
  0.17593200000E+008,  0.20889946811E+007,  0.19000000000E+002,  0.00000000000E+000,  0.10000000000E+001
  0.17593350000E+008,  0.20879813101E+007,  0.19000000000E+002,  0.00000000000E+000,  0.10000000000E+001
  0.17593500000E+008,  0.20870680981E+007,  0.19000000000E+002,  0.00000000000E+000,  0.10000000000E+001
  0.17593650000E+008,  0.20862319327E+007,  0.19000000000E+002,  0.00000000000E+000,  0.10000000000E+001
  0.17593800000E+008,  0.20854557928E+007,  0.19000000000E+002,  0.00000000000E+000,  0.10000000000E+001
  0.17593950000E+008,  0.20847272786E+007,  0.19000000000E+002,  0.00000000000E+000,  0.10000000000E+001
  0.17594100000E+008,  0.20840373668E+007,  0.19000000000E+002,  0.00000000000E+000,  0.10000000000E+001
  0.17594250000E+008,  0.20833794557E+007,  0.19000000000E+002,  0.00000000000E+000,  0.10000000000E+001
  0.17594400000E+008,  0.20827486673E+007,  0.19000000000E+002,  0.00000000000E+000,  0.10000000000E+001
  0.17594550000E+008,  0.20821413479E+007,  0.19000000000E+002,  0.00000000000E+000,  0.10000000000E+001
  0.17594700000E+008,  0.20815547163E+007,  0.19000000000E+002,  0.00000000000E+000,  0.10000000000E+001
  0.17594850000E+008,  0.20809866163E+007,  0.19000000000E+002,  0.00000000000E+000,  0.10000000000E+001
  0.17595000000E+008,  0.20804353433E+007,  0.19000000000E+002,  0.00000000000E+000,  0.10000000000E+001
  0.17595150000E+008,  0.20798995240E+007,  0.19000000000E+002,  0.00000000000E+000,  0.10000000000E+001
  0.17595225000E+008,  0.20796353224E+007,  0.19000000000E+002,  0.00000000000E+000,  0.10000000000E+001
  0.17595262501E+008,  0.20795041300E+007,  0.19000000000E+002,  0.00000000000E+000,  0.10000000000E+001
  0.17595412501E+008,  0.20789929442E+007,  0.19000000000E+002,  0.00000000000E+000,  0.10000000000E+001
  0.17595487501E+008,  0.20787406336E+007,  0.19000000000E+002,  0.00000000000E+000,  0.10000000000E+001
  0.17595525002E+008,  0.20786152852E+007,  0.19000000000E+002,  0.00000000000E+000,  0.10000000000E+001
  0.17595543752E+008,  0.20785528109E+007,  0.19000000000E+002,  0.00000000000E+000,  0.10000000000E+001
  0.17595553127E+008,  0.20785216234E+007,  0.19000000000E+002,  0.00000000000E+000,  0.10000000000E+001
  0.17595557815E+008,  0.20785060421E+007,  0.19000000000E+002,  0.00000000000E+000,  0.10000000000E+001
  0.17595560159E+008,  0.20784982544E+007,  0.19000000000E+002,  0.00000000000E+000,  0.10000000000E+001
  0.17595571878E+008,  0.20784593934E+007,  0.19000000000E+002,  0.00000000000E+000,  0.10000000000E+001
  0.17595630474E+008,  0.20782669778E+007,  0.19000000000E+002,  0.00000000000E+000,  0.10000000000E+001
  0.17595780474E+008,  0.20777861372E+007,  0.19000000000E+002,  0.00000000000E+000,  0.10000000000E+001
  0.17595930474E+008,  0.20773164328E+007,  0.19000000000E+002,  0.00000000000E+000,  0.10000000000E+001
  0.17596080474E+008,  0.20768573306E+007,  0.19000000000E+002,  0.00000000000E+000,  0.10000000000E+001
  0.17596230474E+008,  0.20764083455E+007,  0.19000000000E+002,  0.00000000000E+000,  0.10000000000E+001
  0.17596380474E+008,  0.20759690360E+007,  0.19000000000E+002,  0.00000000000E+000,  0.10000000000E+001
  0.17596455475E+008,  0.20757517464E+007,  0.19000000000E+002,  0.00000000000E+000,  0.10000000000E+001
  0.17596492975E+008,  0.20756436862E+007,  0.19000000000E+002,  0.00000000000E+000,  0.10000000000E+001
  0.17596511725E+008,  0.20755898013E+007,  0.19000000000E+002,  0.00000000000E+000,  0.10000000000E+001
  0.17596521101E+008,  0.20755628950E+007,  0.19000000000E+002,  0.00000000000E+000,  0.10000000000E+001
  0.17596567977E+008,  0.20754292586E+007,  0.19000000000E+002,  0.00000000000E+000,  0.10000000000E+001
  0.17596717977E+008,  0.20750104474E+007,  0.19000000000E+002,  0.00000000000E+000,  0.10000000000E+001
  0.17596792977E+008,  0.20748032015E+007,  0.19000000000E+002,  0.00000000000E+000,  0.10000000000E+001
  0.17596830478E+008,  0.20747001129E+007,  0.19000000000E+002,  0.00000000000E+000,  0.10000000000E+001
  0.17596849228E+008,  0.20746487014E+007,  0.19000000000E+002,  0.00000000000E+000,  0.10000000000E+001
  0.17596858603E+008,  0.20746230286E+007,  0.19000000000E+002,  0.00000000000E+000,  0.10000000000E+001
  0.17596863291E+008,  0.20746102004E+007,  0.19000000000E+002,  0.00000000000E+000,  0.10000000000E+001
  0.17596886729E+008,  0.20745462656E+007,  0.19000000000E+002,  0.00000000000E+000,  0.10000000000E+001
  0.17596898449E+008,  0.20745143494E+007,  0.19000000000E+002,  0.00000000000E+000,  0.10000000000E+001
  0.17596957045E+008,  0.20743560336E+007,  0.19000000000E+002,  0.00000000000E+000,  0.10000000000E+001
  0.17597107045E+008,  0.20739587597E+007,  0.19000000000E+002,  0.00000000000E+000,  0.10000000000E+001
  0.17597257045E+008,  0.20735692031E+007,  0.19000000000E+002,  0.00000000000E+000,  0.10000000000E+001
  0.17597407045E+008,  0.20731870976E+007,  0.19000000000E+002,  0.00000000000E+000,  0.10000000000E+001
  0.17597557045E+008,  0.20728121931E+007,  0.19000000000E+002,  0.00000000000E+000,  0.10000000000E+001
  0.17597707045E+008,  0.20724442533E+007,  0.19000000000E+002,  0.00000000000E+000,  0.10000000000E+001
  0.17597857045E+008,  0.20720830548E+007,  0.19000000000E+002,  0.00000000000E+000,  0.10000000000E+001
  0.17598007045E+008,  0.20717283849E+007,  0.19000000000E+002,  0.00000000000E+000,  0.10000000000E+001
  0.17598157045E+008,  0.20713800410E+007,  0.19000000000E+002,  0.00000000000E+000,  0.10000000000E+001
  0.17598307045E+008,  0.20710378294E+007,  0.19000000000E+002,  0.00000000000E+000,  0.10000000000E+001
  0.17598457045E+008,  0.20707015645E+007,  0.19000000000E+002,  0.00000000000E+000,  0.10000000000E+001
  0.17598607045E+008,  0.20703710684E+007,  0.19000000000E+002,  0.00000000000E+000,  0.10000000000E+001
  0.17598757045E+008,  0.20700461699E+007,  0.19000000000E+002,  0.00000000000E+000,  0.10000000000E+001
  0.17598907045E+008,  0.20697267044E+007,  0.19000000000E+002,  0.00000000000E+000,  0.10000000000E+001
  0.17599057045E+008,  0.20694125134E+007,  0.19000000000E+002,  0.00000000000E+000,  0.10000000000E+001
  0.17599207045E+008,  0.20691034437E+007,  0.19000000000E+002,  0.00000000000E+000,  0.10000000000E+001
  0.17599357045E+008,  0.20687993478E+007,  0.19000000000E+002,  0.00000000000E+000,  0.10000000000E+001
  0.17599507045E+008,  0.20685000828E+007,  0.19000000000E+002,  0.00000000000E+000,  0.10000000000E+001
  0.17599657045E+008,  0.20682055105E+007,  0.19000000000E+002,  0.00000000000E+000,  0.10000000000E+001
  0.17599807045E+008,  0.20679154974E+007,  0.19000000000E+002,  0.00000000000E+000,  0.10000000000E+001
  0.17599957045E+008,  0.20676299138E+007,  0.19000000000E+002,  0.00000000000E+000,  0.10000000000E+001
  0.17600107045E+008,  0.20673486343E+007,  0.19000000000E+002,  0.00000000000E+000,  0.10000000000E+001
  0.17600257045E+008,  0.20670715370E+007,  0.19000000000E+002,  0.00000000000E+000,  0.10000000000E+001
  0.17600407045E+008,  0.20667985037E+007,  0.19000000000E+002,  0.00000000000E+000,  0.10000000000E+001
  0.17600557045E+008,  0.20665294197E+007,  0.19000000000E+002,  0.00000000000E+000,  0.10000000000E+001
  0.17600707045E+008,  0.20662641736E+007,  0.19000000000E+002,  0.00000000000E+000,  0.10000000000E+001
  0.17600857045E+008,  0.20660026571E+007,  0.19000000000E+002,  0.00000000000E+000,  0.10000000000E+001
  0.17601007045E+008,  0.20657447650E+007,  0.19000000000E+002,  0.00000000000E+000,  0.10000000000E+001
  0.17601157045E+008,  0.20654903950E+007,  0.19000000000E+002,  0.00000000000E+000,  0.10000000000E+001
  0.17601307045E+008,  0.20652394476E+007,  0.19000000000E+002,  0.00000000000E+000,  0.10000000000E+001
  0.17601457045E+008,  0.20649918261E+007,  0.19000000000E+002,  0.00000000000E+000,  0.10000000000E+001
  0.17601607045E+008,  0.20647474364E+007,  0.19000000000E+002,  0.00000000000E+000,  0.10000000000E+001
  0.17601757045E+008,  0.20645061870E+007,  0.19000000000E+002,  0.00000000000E+000,  0.10000000000E+001
  0.17601907045E+008,  0.20642679889E+007,  0.19000000000E+002,  0.00000000000E+000,  0.10000000000E+001
  0.17602057045E+008,  0.20640327553E+007,  0.19000000000E+002,  0.00000000000E+000,  0.10000000000E+001
  0.17602207045E+008,  0.20638004020E+007,  0.19000000000E+002,  0.00000000000E+000,  0.10000000000E+001
  0.17602357045E+008,  0.20635708469E+007,  0.19000000000E+002,  0.00000000000E+000,  0.10000000000E+001
  0.17602507045E+008,  0.20633440102E+007,  0.19000000000E+002,  0.00000000000E+000,  0.10000000000E+001
  0.17602657045E+008,  0.20631198142E+007,  0.19000000000E+002,  0.00000000000E+000,  0.10000000000E+001
  0.17602807045E+008,  0.20628981832E+007,  0.19000000000E+002,  0.00000000000E+000,  0.10000000000E+001
  0.17602957045E+008,  0.20626790437E+007,  0.19000000000E+002,  0.00000000000E+000,  0.10000000000E+001
  0.17603107045E+008,  0.20624623240E+007,  0.19000000000E+002,  0.00000000000E+000,  0.10000000000E+001
  0.17603257045E+008,  0.20622479546E+007,  0.19000000000E+002,  0.00000000000E+000,  0.10000000000E+001
  0.17603407045E+008,  0.20620358675E+007,  0.19000000000E+002,  0.00000000000E+000,  0.10000000000E+001
  0.17603557045E+008,  0.20618260000E+007,  0.19000000000E+002,  0.00000000000E+000,  0.10000000000E+001
  0.17603707045E+008,  0.20616183031E+007,  0.19000000000E+002,  0.00000000000E+000,  0.10000000000E+001
  0.17603857045E+008,  0.20614127407E+007,  0.19000000000E+002,  0.00000000000E+000,  0.10000000000E+001
  0.17604007045E+008,  0.20612092814E+007,  0.19000000000E+002,  0.00000000000E+000,  0.10000000000E+001
  0.17604157045E+008,  0.20610078974E+007,  0.19000000000E+002,  0.00000000000E+000,  0.10000000000E+001
  0.17604307045E+008,  0.20608085685E+007,  0.19000000000E+002,  0.00000000000E+000,  0.10000000000E+001
  0.17604457045E+008,  0.20606112802E+007,  0.19000000000E+002,  0.00000000000E+000,  0.10000000000E+001
  0.17604607045E+008,  0.20604160223E+007,  0.19000000000E+002,  0.00000000000E+000,  0.10000000000E+001
  0.17604757045E+008,  0.20602227899E+007,  0.19000000000E+002,  0.00000000000E+000,  0.10000000000E+001
  0.17604907045E+008,  0.20600315920E+007,  0.19000000000E+002,  0.00000000000E+000,  0.10000000000E+001
  0.17605057045E+008,  0.20598424459E+007,  0.19000000000E+002,  0.00000000000E+000,  0.10000000000E+001
  0.17605207045E+008,  0.20596553654E+007,  0.19000000000E+002,  0.00000000000E+000,  0.10000000000E+001
  0.17605357045E+008,  0.20594703530E+007,  0.19000000000E+002,  0.00000000000E+000,  0.10000000000E+001
  0.17605507045E+008,  0.20592873992E+007,  0.19000000000E+002,  0.00000000000E+000,  0.10000000000E+001
  0.17605657045E+008,  0.20591064849E+007,  0.19000000000E+002,  0.00000000000E+000,  0.10000000000E+001
  0.17605807045E+008,  0.20589275854E+007,  0.19000000000E+002,  0.00000000000E+000,  0.10000000000E+001
  0.17605957045E+008,  0.20587506733E+007,  0.19000000000E+002,  0.00000000000E+000,  0.10000000000E+001
  0.17606107045E+008,  0.20585757278E+007,  0.19000000000E+002,  0.00000000000E+000,  0.10000000000E+001
  0.17606257045E+008,  0.20584027341E+007,  0.19000000000E+002,  0.00000000000E+000,  0.10000000000E+001
  0.17606407045E+008,  0.20582316787E+007,  0.19000000000E+002,  0.00000000000E+000,  0.10000000000E+001
  0.17606557045E+008,  0.20580625479E+007,  0.19000000000E+002,  0.00000000000E+000,  0.10000000000E+001
  0.17606707045E+008,  0.20578953315E+007,  0.19000000000E+002,  0.00000000000E+000,  0.10000000000E+001
  0.17606857045E+008,  0.20577300208E+007,  0.19000000000E+002,  0.00000000000E+000,  0.10000000000E+001
  0.17607007045E+008,  0.20575666043E+007,  0.19000000000E+002,  0.00000000000E+000,  0.10000000000E+001
  0.17607157045E+008,  0.20574050648E+007,  0.19000000000E+002,  0.00000000000E+000,  0.10000000000E+001
  0.17607307045E+008,  0.20572453793E+007,  0.19000000000E+002,  0.00000000000E+000,  0.10000000000E+001
  0.17607457045E+008,  0.20570875214E+007,  0.19000000000E+002,  0.00000000000E+000,  0.10000000000E+001
  0.17607607045E+008,  0.20569314624E+007,  0.19000000000E+002,  0.00000000000E+000,  0.10000000000E+001
  0.17607757045E+008,  0.20567771736E+007,  0.19000000000E+002,  0.00000000000E+000,  0.10000000000E+001
  0.17607907045E+008,  0.20566246295E+007,  0.19000000000E+002,  0.00000000000E+000,  0.10000000000E+001
  0.17608057045E+008,  0.20564738089E+007,  0.19000000000E+002,  0.00000000000E+000,  0.10000000000E+001
  0.17608207045E+008,  0.20563246937E+007,  0.19000000000E+002,  0.00000000000E+000,  0.10000000000E+001
  0.17608357045E+008,  0.20561772671E+007,  0.19000000000E+002,  0.00000000000E+000,  0.10000000000E+001
  0.17608507045E+008,  0.20560315124E+007,  0.19000000000E+002,  0.00000000000E+000,  0.10000000000E+001
  0.17608657045E+008,  0.20558874163E+007,  0.19000000000E+002,  0.00000000000E+000,  0.10000000000E+001
  0.17608807045E+008,  0.20557449685E+007,  0.19000000000E+002,  0.00000000000E+000,  0.10000000000E+001
  0.17608957045E+008,  0.20556041574E+007,  0.19000000000E+002,  0.00000000000E+000,  0.10000000000E+001
  0.17609107045E+008,  0.20554649741E+007,  0.19000000000E+002,  0.00000000000E+000,  0.10000000000E+001
  0.17609257045E+008,  0.20553274129E+007,  0.19000000000E+002,  0.00000000000E+000,  0.10000000000E+001
  0.17609407045E+008,  0.20551914696E+007,  0.19000000000E+002,  0.00000000000E+000,  0.10000000000E+001
  0.17609557045E+008,  0.20550571374E+007,  0.19000000000E+002,  0.00000000000E+000,  0.10000000000E+001
  0.17609707045E+008,  0.20549244073E+007,  0.19000000000E+002,  0.00000000000E+000,  0.10000000000E+001
  0.17609857045E+008,  0.20547932663E+007,  0.19000000000E+002,  0.00000000000E+000,  0.10000000000E+001
  0.17610007045E+008,  0.20546636964E+007,  0.19000000000E+002,  0.00000000000E+000,  0.10000000000E+001
  0.17610157045E+008,  0.20545356749E+007,  0.19000000000E+002,  0.00000000000E+000,  0.10000000000E+001
  0.17610307045E+008,  0.20544091765E+007,  0.19000000000E+002,  0.00000000000E+000,  0.10000000000E+001
  0.17610457045E+008,  0.20542841748E+007,  0.19000000000E+002,  0.00000000000E+000,  0.10000000000E+001
  0.17610607045E+008,  0.20541606435E+007,  0.19000000000E+002,  0.00000000000E+000,  0.10000000000E+001
  0.17610757045E+008,  0.20540385569E+007,  0.19000000000E+002,  0.00000000000E+000,  0.10000000000E+001
  0.17610907045E+008,  0.20539178903E+007,  0.19000000000E+002,  0.00000000000E+000,  0.10000000000E+001
  0.17611057045E+008,  0.20537986198E+007,  0.19000000000E+002,  0.00000000000E+000,  0.10000000000E+001
  0.17611207045E+008,  0.20536807226E+007,  0.19000000000E+002,  0.00000000000E+000,  0.10000000000E+001
  0.17611357045E+008,  0.20535641765E+007,  0.19000000000E+002,  0.00000000000E+000,  0.10000000000E+001
  0.17611507045E+008,  0.20534489598E+007,  0.19000000000E+002,  0.00000000000E+000,  0.10000000000E+001
  0.17611657045E+008,  0.20533350517E+007,  0.19000000000E+002,  0.00000000000E+000,  0.10000000000E+001
  0.17611807045E+008,  0.20532224315E+007,  0.19000000000E+002,  0.00000000000E+000,  0.10000000000E+001
  0.17611957045E+008,  0.20531110791E+007,  0.19000000000E+002,  0.00000000000E+000,  0.10000000000E+001
  0.17612107045E+008,  0.20530009750E+007,  0.19000000000E+002,  0.00000000000E+000,  0.10000000000E+001
  0.17612257045E+008,  0.20528920996E+007,  0.19000000000E+002,  0.00000000000E+000,  0.10000000000E+001
  0.17612407045E+008,  0.20527844341E+007,  0.19000000000E+002,  0.00000000000E+000,  0.10000000000E+001
  0.17612557045E+008,  0.20526779595E+007,  0.19000000000E+002,  0.00000000000E+000,  0.10000000000E+001
  0.17612707045E+008,  0.20525726574E+007,  0.19000000000E+002,  0.00000000000E+000,  0.10000000000E+001
  0.17612857045E+008,  0.20524685098E+007,  0.19000000000E+002,  0.00000000000E+000,  0.10000000000E+001
  0.17613007045E+008,  0.20523654987E+007,  0.19000000000E+002,  0.00000000000E+000,  0.10000000000E+001
  0.17613157045E+008,  0.20522636064E+007,  0.19000000000E+002,  0.00000000000E+000,  0.10000000000E+001
  0.17613307045E+008,  0.20521628157E+007,  0.19000000000E+002,  0.00000000000E+000,  0.10000000000E+001
  0.17613457045E+008,  0.20520631096E+007,  0.19000000000E+002,  0.00000000000E+000,  0.10000000000E+001
  0.17613607045E+008,  0.20519644710E+007,  0.19000000000E+002,  0.00000000000E+000,  0.10000000000E+001
  0.17613757045E+008,  0.20518668837E+007,  0.19000000000E+002,  0.00000000000E+000,  0.10000000000E+001
  0.17613907045E+008,  0.20517703311E+007,  0.19000000000E+002,  0.00000000000E+000,  0.10000000000E+001
  0.17614057045E+008,  0.20516747975E+007,  0.19000000000E+002,  0.00000000000E+000,  0.10000000000E+001
  0.17614207045E+008,  0.20515802669E+007,  0.19000000000E+002,  0.00000000000E+000,  0.10000000000E+001
  0.17614357045E+008,  0.20514867238E+007,  0.19000000000E+002,  0.00000000000E+000,  0.10000000000E+001
  0.17614507045E+008,  0.20513941531E+007,  0.19000000000E+002,  0.00000000000E+000,  0.10000000000E+001
  0.17614657045E+008,  0.20513025397E+007,  0.19000000000E+002,  0.00000000000E+000,  0.10000000000E+001
  0.17614807045E+008,  0.20512118689E+007,  0.19000000000E+002,  0.00000000000E+000,  0.10000000000E+001
  0.17614957045E+008,  0.20511221262E+007,  0.19000000000E+002,  0.00000000000E+000,  0.10000000000E+001
  0.17615107045E+008,  0.20510332972E+007,  0.19000000000E+002,  0.00000000000E+000,  0.10000000000E+001
  0.17615257045E+008,  0.20509453679E+007,  0.19000000000E+002,  0.00000000000E+000,  0.10000000000E+001
  0.17615407045E+008,  0.20508583246E+007,  0.19000000000E+002,  0.00000000000E+000,  0.10000000000E+001
  0.17615557045E+008,  0.20507721537E+007,  0.19000000000E+002,  0.00000000000E+000,  0.10000000000E+001
  0.17615707045E+008,  0.20506868419E+007,  0.19000000000E+002,  0.00000000000E+000,  0.10000000000E+001
  0.17615857045E+008,  0.20506023760E+007,  0.19000000000E+002,  0.00000000000E+000,  0.10000000000E+001
  0.17616007045E+008,  0.20505187431E+007,  0.19000000000E+002,  0.00000000000E+000,  0.10000000000E+001
  0.17616157045E+008,  0.20504359306E+007,  0.19000000000E+002,  0.00000000000E+000,  0.10000000000E+001
  0.17616307045E+008,  0.20503539259E+007,  0.19000000000E+002,  0.00000000000E+000,  0.10000000000E+001
  0.17616457045E+008,  0.20502727170E+007,  0.19000000000E+002,  0.00000000000E+000,  0.10000000000E+001
  0.17616607045E+008,  0.20501922917E+007,  0.19000000000E+002,  0.00000000000E+000,  0.10000000000E+001
  0.17616757045E+008,  0.20501126381E+007,  0.19000000000E+002,  0.00000000000E+000,  0.10000000000E+001
  0.17616907045E+008,  0.20500337447E+007,  0.19000000000E+002,  0.00000000000E+000,  0.10000000000E+001
  0.17617057045E+008,  0.20499556000E+007,  0.19000000000E+002,  0.00000000000E+000,  0.10000000000E+001
  0.17617207045E+008,  0.20498781927E+007,  0.19000000000E+002,  0.00000000000E+000,  0.10000000000E+001
  0.17617357045E+008,  0.20498015118E+007,  0.19000000000E+002,  0.00000000000E+000,  0.10000000000E+001
  0.17617507045E+008,  0.20497255465E+007,  0.19000000000E+002,  0.00000000000E+000,  0.10000000000E+001
  0.17617657045E+008,  0.20496502860E+007,  0.19000000000E+002,  0.00000000000E+000,  0.10000000000E+001
