"           TIME(S)","              PRES","              TEMP","             SAT_G","             SAT_L"
  0.18228700500E+008,  0.20001124513E+007,  0.19000000000E+002,  0.99900000288E+000,  0.99999712028E-003
  0.18228702500E+008,  0.20001936055E+007,  0.19000000000E+002,  0.99900001725E+000,  0.99998275051E-003
  0.18228704500E+008,  0.20002353548E+007,  0.19000000000E+002,  0.99900003192E+000,  0.99996807625E-003
  0.18228706500E+008,  0.20002702062E+007,  0.19000000000E+002,  0.99900004665E+000,  0.99995334891E-003
  0.18228708500E+008,  0.20003032363E+007,  0.19000000000E+002,  0.99900006139E+000,  0.99993860772E-003
  0.18228710500E+008,  0.20003355160E+007,  0.19000000000E+002,  0.99900007614E+000,  0.99992386097E-003
  0.18228712500E+008,  0.20003673165E+007,  0.19000000000E+002,  0.99900009089E+000,  0.99990911052E-003
  0.18228714500E+008,  0.20003987200E+007,  0.19000000000E+002,  0.99900010564E+000,  0.99989435724E-003
  0.18228716500E+008,  0.20004297589E+007,  0.19000000000E+002,  0.99900012040E+000,  0.99987960139E-003
  0.18228718500E+008,  0.20004604502E+007,  0.19000000000E+002,  0.99900013516E+000,  0.99986484309E-003
  0.18228720500E+008,  0.20004908056E+007,  0.19000000000E+002,  0.99900014992E+000,  0.99985008243E-003
  0.18228722500E+008,  0.20005208345E+007,  0.19000000000E+002,  0.99900016468E+000,  0.99983531948E-003
  0.18228724500E+008,  0.20005505447E+007,  0.19000000000E+002,  0.99900017945E+000,  0.99982055428E-003
  0.18228726500E+008,  0.20005799436E+007,  0.19000000000E+002,  0.99900019421E+000,  0.99980578691E-003
  0.18228728500E+008,  0.20006090376E+007,  0.19000000000E+002,  0.99900020898E+000,  0.99979101739E-003
  0.18228730500E+008,  0.20006378331E+007,  0.19000000000E+002,  0.99900022375E+000,  0.99977624578E-003
  0.18228732500E+008,  0.20006663358E+007,  0.19000000000E+002,  0.99900023853E+000,  0.99976147211E-003
  0.18228734500E+008,  0.20006945514E+007,  0.19000000000E+002,  0.99900025330E+000,  0.99974669644E-003
  0.18228736500E+008,  0.20007224853E+007,  0.19000000000E+002,  0.99900026808E+000,  0.99973191880E-003
  0.18228738500E+008,  0.20007501425E+007,  0.19000000000E+002,  0.99900028286E+000,  0.99971713922E-003
  0.18228740500E+008,  0.20007775280E+007,  0.19000000000E+002,  0.99900029764E+000,  0.99970235774E-003
  0.18228742500E+008,  0.20008046466E+007,  0.19000000000E+002,  0.99900031243E+000,  0.99968757439E-003
  0.18228744500E+008,  0.20008315028E+007,  0.19000000000E+002,  0.99900032721E+000,  0.99967278922E-003
  0.18228746500E+008,  0.20008581010E+007,  0.19000000000E+002,  0.99900034200E+000,  0.99965800224E-003
  0.18228748500E+008,  0.20008844455E+007,  0.19000000000E+002,  0.99900035679E+000,  0.99964321350E-003
  0.18228750500E+008,  0.20009105403E+007,  0.19000000000E+002,  0.99900037158E+000,  0.99962842302E-003
  0.18228752500E+008,  0.20009363895E+007,  0.19000000000E+002,  0.99900038637E+000,  0.99961363083E-003
  0.18228754500E+008,  0.20009619969E+007,  0.19000000000E+002,  0.99900040116E+000,  0.99959883696E-003
  0.18228756500E+008,  0.20009873661E+007,  0.19000000000E+002,  0.99900041596E+000,  0.99958404143E-003
  0.18228758500E+008,  0.20010125008E+007,  0.19000000000E+002,  0.99900043076E+000,  0.99956924427E-003
  0.18228760500E+008,  0.20010374044E+007,  0.19000000000E+002,  0.99900044555E+000,  0.99955444551E-003
  0.18228762500E+008,  0.20010620803E+007,  0.19000000000E+002,  0.99900046035E+000,  0.99953964517E-003
  0.18228764500E+008,  0.20010865318E+007,  0.19000000000E+002,  0.99900047516E+000,  0.99952484328E-003
  0.18228766500E+008,  0.20011107620E+007,  0.19000000000E+002,  0.99900048996E+000,  0.99951003985E-003
  0.18228768500E+008,  0.20011347740E+007,  0.19000000000E+002,  0.99900050477E+000,  0.99949523491E-003
  0.18228770500E+008,  0.20011585707E+007,  0.19000000000E+002,  0.99900051957E+000,  0.99948042848E-003
  0.18228772500E+008,  0.20011821552E+007,  0.19000000000E+002,  0.99900053438E+000,  0.99946562059E-003
  0.18228774500E+008,  0.20012055302E+007,  0.19000000000E+002,  0.99900054919E+000,  0.99945081124E-003
  0.18228776500E+008,  0.20012286985E+007,  0.19000000000E+002,  0.99900056400E+000,  0.99943600047E-003
  0.18228778500E+008,  0.20012516628E+007,  0.19000000000E+002,  0.99900057881E+000,  0.99942118829E-003
  0.18228780500E+008,  0.20012744257E+007,  0.19000000000E+002,  0.99900059363E+000,  0.99940637472E-003
  0.18228782500E+008,  0.20012969897E+007,  0.19000000000E+002,  0.99900060844E+000,  0.99939155978E-003
  0.18228784500E+008,  0.20013193575E+007,  0.19000000000E+002,  0.99900062326E+000,  0.99937674349E-003
  0.18228786500E+008,  0.20013415313E+007,  0.19000000000E+002,  0.99900063807E+000,  0.99936192586E-003
  0.18228788500E+008,  0.20013635137E+007,  0.19000000000E+002,  0.99900065289E+000,  0.99934710691E-003
  0.18228790500E+008,  0.20013853070E+007,  0.19000000000E+002,  0.99900066771E+000,  0.99933228666E-003
  0.18228792500E+008,  0.20014069134E+007,  0.19000000000E+002,  0.99900068253E+000,  0.99931746513E-003
  0.18228794500E+008,  0.20014283353E+007,  0.19000000000E+002,  0.99900069736E+000,  0.99930264233E-003
  0.18228796500E+008,  0.20014495748E+007,  0.19000000000E+002,  0.99900071218E+000,  0.99928781827E-003
  0.18228798500E+008,  0.20014706341E+007,  0.19000000000E+002,  0.99900072701E+000,  0.99927299297E-003
  0.18228800500E+008,  0.20014915154E+007,  0.19000000000E+002,  0.99900074183E+000,  0.99925816646E-003
  0.18228802500E+008,  0.20015122206E+007,  0.19000000000E+002,  0.99900075666E+000,  0.99924333873E-003
  0.18228804500E+008,  0.20015327520E+007,  0.19000000000E+002,  0.99900077149E+000,  0.99922850981E-003
  0.18228806500E+008,  0.20015531115E+007,  0.19000000000E+002,  0.99900078632E+000,  0.99921367971E-003
  0.18228808500E+008,  0.20015733011E+007,  0.19000000000E+002,  0.99900080115E+000,  0.99919884845E-003
  0.18228810500E+008,  0.20015933227E+007,  0.19000000000E+002,  0.99900081598E+000,  0.99918401604E-003
  0.18228812500E+008,  0.20016131783E+007,  0.19000000000E+002,  0.99900083082E+000,  0.99916918249E-003
  0.18228814500E+008,  0.20016328698E+007,  0.19000000000E+002,  0.99900084565E+000,  0.99915434782E-003
  0.18228816500E+008,  0.20016523991E+007,  0.19000000000E+002,  0.99900086049E+000,  0.99913951203E-003
  0.18228818500E+008,  0.20016717679E+007,  0.19000000000E+002,  0.99900087532E+000,  0.99912467515E-003
  0.18228820500E+008,  0.20016909781E+007,  0.19000000000E+002,  0.99900089016E+000,  0.99910983719E-003
  0.18228822500E+008,  0.20017100315E+007,  0.19000000000E+002,  0.99900090500E+000,  0.99909499815E-003
  0.18228824500E+008,  0.20017289299E+007,  0.19000000000E+002,  0.99900091984E+000,  0.99908015805E-003
  0.18228826500E+008,  0.20017476749E+007,  0.19000000000E+002,  0.99900093468E+000,  0.99906531691E-003
  0.18228828500E+008,  0.20017662683E+007,  0.19000000000E+002,  0.99900094953E+000,  0.99905047473E-003
  0.18228830500E+008,  0.20017847118E+007,  0.19000000000E+002,  0.99900096437E+000,  0.99903563153E-003
  0.18228832500E+008,  0.20018030070E+007,  0.19000000000E+002,  0.99900097921E+000,  0.99902078732E-003
  0.18228834500E+008,  0.20018211557E+007,  0.19000000000E+002,  0.99900099406E+000,  0.99900594211E-003
  0.18228836500E+008,  0.20018391593E+007,  0.19000000000E+002,  0.99900100890E+000,  0.99899109591E-003
  0.18228838500E+008,  0.20018570196E+007,  0.19000000000E+002,  0.99900102375E+000,  0.99897624874E-003
  0.18228840500E+008,  0.20018747381E+007,  0.19000000000E+002,  0.99900103860E+000,  0.99896140060E-003
  0.18228842500E+008,  0.20018923163E+007,  0.19000000000E+002,  0.99900105345E+000,  0.99894655150E-003
  0.18228844500E+008,  0.20019097558E+007,  0.19000000000E+002,  0.99900106830E+000,  0.99893170147E-003
  0.18228846500E+008,  0.20019270582E+007,  0.19000000000E+002,  0.99900108315E+000,  0.99891685050E-003
  0.18228848500E+008,  0.20019442249E+007,  0.19000000000E+002,  0.99900109800E+000,  0.99890199860E-003
  0.18228850500E+008,  0.20019612574E+007,  0.19000000000E+002,  0.99900111285E+000,  0.99888714580E-003
  0.18228852500E+008,  0.20019781571E+007,  0.19000000000E+002,  0.99900112771E+000,  0.99887229210E-003
  0.18228854500E+008,  0.20019949256E+007,  0.19000000000E+002,  0.99900114256E+000,  0.99885743750E-003
  0.18228856500E+008,  0.20020115643E+007,  0.19000000000E+002,  0.99900115742E+000,  0.99884258202E-003
  0.18228858500E+008,  0.20020280745E+007,  0.19000000000E+002,  0.99900117227E+000,  0.99882772568E-003
  0.18228860500E+008,  0.20020444577E+007,  0.19000000000E+002,  0.99900118713E+000,  0.99881286847E-003
  0.18228862500E+008,  0.20020607152E+007,  0.19000000000E+002,  0.99900120199E+000,  0.99879801041E-003
  0.18228864500E+008,  0.20020768485E+007,  0.19000000000E+002,  0.99900121685E+000,  0.99878315151E-003
  0.18228866500E+008,  0.20020928588E+007,  0.19000000000E+002,  0.99900123171E+000,  0.99876829178E-003
  0.18228868500E+008,  0.20021087474E+007,  0.19000000000E+002,  0.99900124657E+000,  0.99875343123E-003
  0.18228870500E+008,  0.20021245158E+007,  0.19000000000E+002,  0.99900126143E+000,  0.99873856986E-003
  0.18228872500E+008,  0.20021401652E+007,  0.19000000000E+002,  0.99900127629E+000,  0.99872370769E-003
  0.18228874500E+008,  0.20021556969E+007,  0.19000000000E+002,  0.99900129116E+000,  0.99870884472E-003
  0.18228876500E+008,  0.20021711121E+007,  0.19000000000E+002,  0.99900130602E+000,  0.99869398097E-003
  0.18228878500E+008,  0.20021864122E+007,  0.19000000000E+002,  0.99900132088E+000,  0.99867911644E-003
  0.18228880500E+008,  0.20022015983E+007,  0.19000000000E+002,  0.99900133575E+000,  0.99866425114E-003
  0.18228882500E+008,  0.20022166716E+007,  0.19000000000E+002,  0.99900135061E+000,  0.99864938508E-003
  0.18228884500E+008,  0.20022316335E+007,  0.19000000000E+002,  0.99900136548E+000,  0.99863451827E-003
  0.18228886500E+008,  0.20022464850E+007,  0.19000000000E+002,  0.99900138035E+000,  0.99861965072E-003
  0.18228888500E+008,  0.20022612274E+007,  0.19000000000E+002,  0.99900139522E+000,  0.99860478243E-003
  0.18228890500E+008,  0.20022758619E+007,  0.19000000000E+002,  0.99900141009E+000,  0.99858991342E-003
  0.18228892500E+008,  0.20022903895E+007,  0.19000000000E+002,  0.99900142496E+000,  0.99857504369E-003
  0.18228894500E+008,  0.20023048115E+007,  0.19000000000E+002,  0.99900143983E+000,  0.99856017325E-003
  0.18228896500E+008,  0.20023191289E+007,  0.19000000000E+002,  0.99900145470E+000,  0.99854530211E-003
  0.18228898500E+008,  0.20023333429E+007,  0.19000000000E+002,  0.99900146957E+000,  0.99853043027E-003
  0.18228900500E+008,  0.20023474546E+007,  0.19000000000E+002,  0.99900148444E+000,  0.99851555775E-003
  0.18228902500E+008,  0.20023614651E+007,  0.19000000000E+002,  0.99900149932E+000,  0.99850068455E-003
  0.18228904500E+008,  0.20023753754E+007,  0.19000000000E+002,  0.99900151419E+000,  0.99848581067E-003
  0.18228906500E+008,  0.20023891866E+007,  0.19000000000E+002,  0.99900152906E+000,  0.99847093614E-003
  0.18228908500E+008,  0.20024028999E+007,  0.19000000000E+002,  0.99900154394E+000,  0.99845606095E-003
  0.18228910500E+008,  0.20024165161E+007,  0.19000000000E+002,  0.99900155881E+000,  0.99844118511E-003
  0.18228912500E+008,  0.20024300363E+007,  0.19000000000E+002,  0.99900157369E+000,  0.99842630862E-003
  0.18228914500E+008,  0.20024434617E+007,  0.19000000000E+002,  0.99900158857E+000,  0.99841143151E-003
  0.18228916500E+008,  0.20024567931E+007,  0.19000000000E+002,  0.99900160345E+000,  0.99839655376E-003
  0.18228918500E+008,  0.20024700315E+007,  0.19000000000E+002,  0.99900161832E+000,  0.99838167540E-003
  0.18228920500E+008,  0.20024831780E+007,  0.19000000000E+002,  0.99900163320E+000,  0.99836679643E-003
  0.18228922500E+008,  0.20024962335E+007,  0.19000000000E+002,  0.99900164808E+000,  0.99835191684E-003
  0.18228924500E+008,  0.20025091990E+007,  0.19000000000E+002,  0.99900166296E+000,  0.99833703666E-003
  0.18228926500E+008,  0.20025220754E+007,  0.19000000000E+002,  0.99900167784E+000,  0.99832215589E-003
  0.18228928500E+008,  0.20025348637E+007,  0.19000000000E+002,  0.99900169273E+000,  0.99830727452E-003
  0.18228930500E+008,  0.20025475648E+007,  0.19000000000E+002,  0.99900170761E+000,  0.99829239258E-003
  0.18228932500E+008,  0.20025601796E+007,  0.19000000000E+002,  0.99900172249E+000,  0.99827751007E-003
  0.18228934500E+008,  0.20025727090E+007,  0.19000000000E+002,  0.99900173737E+000,  0.99826262699E-003
  0.18228936500E+008,  0.20025851540E+007,  0.19000000000E+002,  0.99900175226E+000,  0.99824774334E-003
  0.18228938500E+008,  0.20025975153E+007,  0.19000000000E+002,  0.99900176714E+000,  0.99823285915E-003
  0.18228940500E+008,  0.20026097939E+007,  0.19000000000E+002,  0.99900178203E+000,  0.99821797440E-003
  0.18228942500E+008,  0.20026219907E+007,  0.19000000000E+002,  0.99900179691E+000,  0.99820308912E-003
  0.18228944500E+008,  0.20026341064E+007,  0.19000000000E+002,  0.99900181180E+000,  0.99818820329E-003
  0.18228946500E+008,  0.20026461421E+007,  0.19000000000E+002,  0.99900182668E+000,  0.99817331694E-003
  0.18228948500E+008,  0.20026580984E+007,  0.19000000000E+002,  0.99900184157E+000,  0.99815843006E-003
  0.18228950500E+008,  0.20026699762E+007,  0.19000000000E+002,  0.99900185646E+000,  0.99814354267E-003
  0.18228952500E+008,  0.20026817764E+007,  0.19000000000E+002,  0.99900187135E+000,  0.99812865476E-003
  0.18228954500E+008,  0.20026934997E+007,  0.19000000000E+002,  0.99900188623E+000,  0.99811376635E-003
  0.18228956500E+008,  0.20027051469E+007,  0.19000000000E+002,  0.99900190112E+000,  0.99809887743E-003
  0.18228958500E+008,  0.20027167189E+007,  0.19000000000E+002,  0.99900191601E+000,  0.99808398802E-003
  0.18228960500E+008,  0.20027282164E+007,  0.19000000000E+002,  0.99900193090E+000,  0.99806909812E-003
  0.18228962500E+008,  0.20027396402E+007,  0.19000000000E+002,  0.99900194579E+000,  0.99805420774E-003
  0.18228964500E+008,  0.20027509911E+007,  0.19000000000E+002,  0.99900196068E+000,  0.99803931687E-003
  0.18228966500E+008,  0.20027622697E+007,  0.19000000000E+002,  0.99900197557E+000,  0.99802442553E-003
  0.18228968500E+008,  0.20027734770E+007,  0.19000000000E+002,  0.99900199047E+000,  0.99800953372E-003
  0.18228970500E+008,  0.20027846135E+007,  0.19000000000E+002,  0.99900200536E+000,  0.99799464145E-003
  0.18228972500E+008,  0.20027956800E+007,  0.19000000000E+002,  0.99900202025E+000,  0.99797974872E-003
  0.18228974500E+008,  0.20028066773E+007,  0.19000000000E+002,  0.99900203514E+000,  0.99796485554E-003
  0.18228976500E+008,  0.20028176061E+007,  0.19000000000E+002,  0.99900205004E+000,  0.99794996190E-003
  0.18228978500E+008,  0.20028284670E+007,  0.19000000000E+002,  0.99900206493E+000,  0.99793506783E-003
  0.18228980500E+008,  0.20028392608E+007,  0.19000000000E+002,  0.99900207983E+000,  0.99792017331E-003
  0.18228982500E+008,  0.20028499882E+007,  0.19000000000E+002,  0.99900209472E+000,  0.99790527837E-003
  0.18228984500E+008,  0.20028606498E+007,  0.19000000000E+002,  0.99900210962E+000,  0.99789038299E-003
  0.18228986500E+008,  0.20028712463E+007,  0.19000000000E+002,  0.99900212451E+000,  0.99787548719E-003
  0.18228988500E+008,  0.20028817784E+007,  0.19000000000E+002,  0.99900213941E+000,  0.99786059097E-003
  0.18228990500E+008,  0.20028922468E+007,  0.19000000000E+002,  0.99900215431E+000,  0.99784569433E-003
  0.18228992500E+008,  0.20029026520E+007,  0.19000000000E+002,  0.99900216920E+000,  0.99783079729E-003
  0.18228994500E+008,  0.20029129948E+007,  0.19000000000E+002,  0.99900218410E+000,  0.99781589983E-003
  0.18228996500E+008,  0.20029232757E+007,  0.19000000000E+002,  0.99900219900E+000,  0.99780100198E-003
  0.18228998500E+008,  0.20029334954E+007,  0.19000000000E+002,  0.99900221390E+000,  0.99778610373E-003
  0.18229000500E+008,  0.20029436546E+007,  0.19000000000E+002,  0.99900222879E+000,  0.99777120509E-003
  0.18229002500E+008,  0.20029537538E+007,  0.19000000000E+002,  0.99900224369E+000,  0.99775630606E-003
  0.18229004500E+008,  0.20029637937E+007,  0.19000000000E+002,  0.99900225859E+000,  0.99774140664E-003
  0.18229006500E+008,  0.20029737748E+007,  0.19000000000E+002,  0.99900227349E+000,  0.99772650685E-003
  0.18229008500E+008,  0.20029836978E+007,  0.19000000000E+002,  0.99900228839E+000,  0.99771160668E-003
  0.18229010500E+008,  0.20029935632E+007,  0.19000000000E+002,  0.99900230329E+000,  0.99769670614E-003
  0.18229012500E+008,  0.20030033717E+007,  0.19000000000E+002,  0.99900231819E+000,  0.99768180523E-003
  0.18229014500E+008,  0.20030131237E+007,  0.19000000000E+002,  0.99900233310E+000,  0.99766690396E-003
  0.18229016500E+008,  0.20030228199E+007,  0.19000000000E+002,  0.99900234800E+000,  0.99765200233E-003
  0.18229018500E+008,  0.20030324609E+007,  0.19000000000E+002,  0.99900236290E+000,  0.99763710035E-003
  0.18229020500E+008,  0.20030420471E+007,  0.19000000000E+002,  0.99900237780E+000,  0.99762219801E-003
  0.18229022500E+008,  0.20030515791E+007,  0.19000000000E+002,  0.99900239270E+000,  0.99760729532E-003
  0.18229024500E+008,  0.20030610576E+007,  0.19000000000E+002,  0.99900240761E+000,  0.99759239230E-003
  0.18229026500E+008,  0.20030704829E+007,  0.19000000000E+002,  0.99900242251E+000,  0.99757748893E-003
  0.18229028500E+008,  0.20030798557E+007,  0.19000000000E+002,  0.99900243741E+000,  0.99756258522E-003
  0.18229030500E+008,  0.20030891765E+007,  0.19000000000E+002,  0.99900245232E+000,  0.99754768118E-003
  0.18229032500E+008,  0.20030984457E+007,  0.19000000000E+002,  0.99900246722E+000,  0.99753277682E-003
  0.18229034500E+008,  0.20031076640E+007,  0.19000000000E+002,  0.99900248213E+000,  0.99751787213E-003
  0.18229036500E+008,  0.20031168318E+007,  0.19000000000E+002,  0.99900249703E+000,  0.99750296711E-003
  0.18229038500E+008,  0.20031259496E+007,  0.19000000000E+002,  0.99900251194E+000,  0.99748806178E-003
  0.18229040500E+008,  0.20031350179E+007,  0.19000000000E+002,  0.99900252684E+000,  0.99747315613E-003
  0.18229042500E+008,  0.20031440372E+007,  0.19000000000E+002,  0.99900254175E+000,  0.99745825018E-003
  0.18229044500E+008,  0.20031530080E+007,  0.19000000000E+002,  0.99900255666E+000,  0.99744334391E-003
  0.18229046500E+008,  0.20031619308E+007,  0.19000000000E+002,  0.99900257156E+000,  0.99742843734E-003
  0.18229048500E+008,  0.20031708061E+007,  0.19000000000E+002,  0.99900258647E+000,  0.99741353047E-003
  0.18229050500E+008,  0.20031796342E+007,  0.19000000000E+002,  0.99900260138E+000,  0.99739862330E-003
  0.18229052500E+008,  0.20031884158E+007,  0.19000000000E+002,  0.99900261628E+000,  0.99738371583E-003
  0.18229054500E+008,  0.20031971512E+007,  0.19000000000E+002,  0.99900263119E+000,  0.99736880807E-003
  0.18229056500E+008,  0.20032058408E+007,  0.19000000000E+002,  0.99900264610E+000,  0.99735390003E-003
  0.18229058500E+008,  0.20032144853E+007,  0.19000000000E+002,  0.99900266101E+000,  0.99733899170E-003
  0.18229060500E+008,  0.20032230849E+007,  0.19000000000E+002,  0.99900267592E+000,  0.99732408309E-003
  0.18229062500E+008,  0.20032316401E+007,  0.19000000000E+002,  0.99900269083E+000,  0.99730917420E-003
  0.18229064500E+008,  0.20032401514E+007,  0.19000000000E+002,  0.99900270573E+000,  0.99729426503E-003
  0.18229066500E+008,  0.20032486192E+007,  0.19000000000E+002,  0.99900272064E+000,  0.99727935559E-003
  0.18229068500E+008,  0.20032570439E+007,  0.19000000000E+002,  0.99900273555E+000,  0.99726444588E-003
  0.18229070500E+008,  0.20032654259E+007,  0.19000000000E+002,  0.99900275046E+000,  0.99724953590E-003
  0.18229072500E+008,  0.20032737657E+007,  0.19000000000E+002,  0.99900276537E+000,  0.99723462566E-003
  0.18229074500E+008,  0.20032820637E+007,  0.19000000000E+002,  0.99900278028E+000,  0.99721971515E-003
  0.18229076500E+008,  0.20032903202E+007,  0.19000000000E+002,  0.99900279520E+000,  0.99720480439E-003
