"           TIME(S)","              PRES","              TEMP","             SAT_G","             SAT_L"
  0.18228700500E+008,  0.20000006801E+007,  0.19000000000E+002,  0.00000000000E+000,  0.10000000000E+001
  0.18228702500E+008,  0.20000242642E+007,  0.19000000000E+002,  0.00000000000E+000,  0.10000000000E+001
  0.18228704500E+008,  0.20000591454E+007,  0.19000000000E+002,  0.00000000000E+000,  0.10000000000E+001
  0.18228706500E+008,  0.20000960989E+007,  0.19000000000E+002,  0.00000000000E+000,  0.10000000000E+001
  0.18228708500E+008,  0.20001303028E+007,  0.19000000000E+002,  0.00000000000E+000,  0.10000000000E+001
  0.18228710500E+008,  0.20001600847E+007,  0.19000000000E+002,  0.00000000000E+000,  0.10000000000E+001
  0.18228712500E+008,  0.20001853304E+007,  0.19000000000E+002,  0.00000000000E+000,  0.10000000000E+001
  0.18228714500E+008,  0.20002065283E+007,  0.19000000000E+002,  0.00000000000E+000,  0.10000000000E+001
  0.18228716500E+008,  0.20002243175E+007,  0.19000000000E+002,  0.00000000000E+000,  0.10000000000E+001
  0.18228718500E+008,  0.20002393048E+007,  0.19000000000E+002,  0.00000000000E+000,  0.10000000000E+001
  0.18228720500E+008,  0.20002520090E+007,  0.19000000000E+002,  0.00000000000E+000,  0.10000000000E+001
  0.18228722500E+008,  0.20002628538E+007,  0.19000000000E+002,  0.00000000000E+000,  0.10000000000E+001
  0.18228724500E+008,  0.20002721781E+007,  0.19000000000E+002,  0.00000000000E+000,  0.10000000000E+001
  0.18228726500E+008,  0.20002802521E+007,  0.19000000000E+002,  0.00000000000E+000,  0.10000000000E+001
  0.18228728500E+008,  0.20002872907E+007,  0.19000000000E+002,  0.00000000000E+000,  0.10000000000E+001
  0.18228730500E+008,  0.20002934663E+007,  0.19000000000E+002,  0.00000000000E+000,  0.10000000000E+001
  0.18228732500E+008,  0.20002989172E+007,  0.19000000000E+002,  0.00000000000E+000,  0.10000000000E+001
  0.18228734500E+008,  0.20003037561E+007,  0.19000000000E+002,  0.00000000000E+000,  0.10000000000E+001
  0.18228736500E+008,  0.20003080748E+007,  0.19000000000E+002,  0.00000000000E+000,  0.10000000000E+001
  0.18228738500E+008,  0.20003119491E+007,  0.19000000000E+002,  0.00000000000E+000,  0.10000000000E+001
  0.18228740500E+008,  0.20003154420E+007,  0.19000000000E+002,  0.00000000000E+000,  0.10000000000E+001
  0.18228742500E+008,  0.20003186060E+007,  0.19000000000E+002,  0.00000000000E+000,  0.10000000000E+001
  0.18228744500E+008,  0.20003214854E+007,  0.19000000000E+002,  0.00000000000E+000,  0.10000000000E+001
  0.18228746500E+008,  0.20003241177E+007,  0.19000000000E+002,  0.00000000000E+000,  0.10000000000E+001
  0.18228748500E+008,  0.20003265349E+007,  0.19000000000E+002,  0.00000000000E+000,  0.10000000000E+001
  0.18228750500E+008,  0.20003287644E+007,  0.19000000000E+002,  0.00000000000E+000,  0.10000000000E+001
  0.18228752500E+008,  0.20003308297E+007,  0.19000000000E+002,  0.00000000000E+000,  0.10000000000E+001
  0.18228754500E+008,  0.20003327512E+007,  0.19000000000E+002,  0.00000000000E+000,  0.10000000000E+001
  0.18228756500E+008,  0.20003345466E+007,  0.19000000000E+002,  0.00000000000E+000,  0.10000000000E+001
  0.18228758500E+008,  0.20003362314E+007,  0.19000000000E+002,  0.00000000000E+000,  0.10000000000E+001
  0.18228760500E+008,  0.20003378191E+007,  0.19000000000E+002,  0.00000000000E+000,  0.10000000000E+001
  0.18228762500E+008,  0.20003393215E+007,  0.19000000000E+002,  0.00000000000E+000,  0.10000000000E+001
  0.18228764500E+008,  0.20003407491E+007,  0.19000000000E+002,  0.00000000000E+000,  0.10000000000E+001
  0.18228766500E+008,  0.20003421110E+007,  0.19000000000E+002,  0.00000000000E+000,  0.10000000000E+001
  0.18228768500E+008,  0.20003434154E+007,  0.19000000000E+002,  0.00000000000E+000,  0.10000000000E+001
  0.18228770500E+008,  0.20003446696E+007,  0.19000000000E+002,  0.00000000000E+000,  0.10000000000E+001
  0.18228772500E+008,  0.20003458798E+007,  0.19000000000E+002,  0.00000000000E+000,  0.10000000000E+001
  0.18228774500E+008,  0.20003470519E+007,  0.19000000000E+002,  0.00000000000E+000,  0.10000000000E+001
  0.18228776500E+008,  0.20003481909E+007,  0.19000000000E+002,  0.00000000000E+000,  0.10000000000E+001
  0.18228778500E+008,  0.20003493013E+007,  0.19000000000E+002,  0.00000000000E+000,  0.10000000000E+001
  0.18228780500E+008,  0.20003503872E+007,  0.19000000000E+002,  0.00000000000E+000,  0.10000000000E+001
  0.18228782500E+008,  0.20003514522E+007,  0.19000000000E+002,  0.00000000000E+000,  0.10000000000E+001
  0.18228784500E+008,  0.20003524996E+007,  0.19000000000E+002,  0.00000000000E+000,  0.10000000000E+001
  0.18228786500E+008,  0.20003535322E+007,  0.19000000000E+002,  0.00000000000E+000,  0.10000000000E+001
  0.18228788500E+008,  0.20003545526E+007,  0.19000000000E+002,  0.00000000000E+000,  0.10000000000E+001
  0.18228790500E+008,  0.20003555632E+007,  0.19000000000E+002,  0.00000000000E+000,  0.10000000000E+001
  0.18228792500E+008,  0.20003565661E+007,  0.19000000000E+002,  0.00000000000E+000,  0.10000000000E+001
  0.18228794500E+008,  0.20003575632E+007,  0.19000000000E+002,  0.00000000000E+000,  0.10000000000E+001
  0.18228796500E+008,  0.20003585561E+007,  0.19000000000E+002,  0.00000000000E+000,  0.10000000000E+001
  0.18228798500E+008,  0.20003595463E+007,  0.19000000000E+002,  0.00000000000E+000,  0.10000000000E+001
  0.18228800500E+008,  0.20003605353E+007,  0.19000000000E+002,  0.00000000000E+000,  0.10000000000E+001
  0.18228802500E+008,  0.20003615241E+007,  0.19000000000E+002,  0.00000000000E+000,  0.10000000000E+001
  0.18228804500E+008,  0.20003625140E+007,  0.19000000000E+002,  0.00000000000E+000,  0.10000000000E+001
  0.18228806500E+008,  0.20003635059E+007,  0.19000000000E+002,  0.00000000000E+000,  0.10000000000E+001
  0.18228808500E+008,  0.20003645007E+007,  0.19000000000E+002,  0.00000000000E+000,  0.10000000000E+001
  0.18228810500E+008,  0.20003654991E+007,  0.19000000000E+002,  0.00000000000E+000,  0.10000000000E+001
  0.18228812500E+008,  0.20003665018E+007,  0.19000000000E+002,  0.00000000000E+000,  0.10000000000E+001
  0.18228814500E+008,  0.20003675095E+007,  0.19000000000E+002,  0.00000000000E+000,  0.10000000000E+001
  0.18228816500E+008,  0.20003685228E+007,  0.19000000000E+002,  0.00000000000E+000,  0.10000000000E+001
  0.18228818500E+008,  0.20003695421E+007,  0.19000000000E+002,  0.00000000000E+000,  0.10000000000E+001
  0.18228820500E+008,  0.20003705678E+007,  0.19000000000E+002,  0.00000000000E+000,  0.10000000000E+001
  0.18228822500E+008,  0.20003716004E+007,  0.19000000000E+002,  0.00000000000E+000,  0.10000000000E+001
  0.18228824500E+008,  0.20003726402E+007,  0.19000000000E+002,  0.00000000000E+000,  0.10000000000E+001
  0.18228826500E+008,  0.20003736875E+007,  0.19000000000E+002,  0.00000000000E+000,  0.10000000000E+001
  0.18228828500E+008,  0.20003747425E+007,  0.19000000000E+002,  0.00000000000E+000,  0.10000000000E+001
  0.18228830500E+008,  0.20003758055E+007,  0.19000000000E+002,  0.00000000000E+000,  0.10000000000E+001
  0.18228832500E+008,  0.20003768766E+007,  0.19000000000E+002,  0.00000000000E+000,  0.10000000000E+001
  0.18228834500E+008,  0.20003779561E+007,  0.19000000000E+002,  0.00000000000E+000,  0.10000000000E+001
  0.18228836500E+008,  0.20003790441E+007,  0.19000000000E+002,  0.00000000000E+000,  0.10000000000E+001
  0.18228838500E+008,  0.20003801407E+007,  0.19000000000E+002,  0.00000000000E+000,  0.10000000000E+001
  0.18228840500E+008,  0.20003812459E+007,  0.19000000000E+002,  0.00000000000E+000,  0.10000000000E+001
  0.18228842500E+008,  0.20003823600E+007,  0.19000000000E+002,  0.00000000000E+000,  0.10000000000E+001
  0.18228844500E+008,  0.20003834828E+007,  0.19000000000E+002,  0.00000000000E+000,  0.10000000000E+001
  0.18228846500E+008,  0.20003846146E+007,  0.19000000000E+002,  0.00000000000E+000,  0.10000000000E+001
  0.18228848500E+008,  0.20003857552E+007,  0.19000000000E+002,  0.00000000000E+000,  0.10000000000E+001
  0.18228850500E+008,  0.20003869048E+007,  0.19000000000E+002,  0.00000000000E+000,  0.10000000000E+001
  0.18228852500E+008,  0.20003880633E+007,  0.19000000000E+002,  0.00000000000E+000,  0.10000000000E+001
  0.18228854500E+008,  0.20003892307E+007,  0.19000000000E+002,  0.00000000000E+000,  0.10000000000E+001
  0.18228856500E+008,  0.20003904071E+007,  0.19000000000E+002,  0.00000000000E+000,  0.10000000000E+001
  0.18228858500E+008,  0.20003915923E+007,  0.19000000000E+002,  0.00000000000E+000,  0.10000000000E+001
  0.18228860500E+008,  0.20003927864E+007,  0.19000000000E+002,  0.00000000000E+000,  0.10000000000E+001
  0.18228862500E+008,  0.20003939893E+007,  0.19000000000E+002,  0.00000000000E+000,  0.10000000000E+001
  0.18228864500E+008,  0.20003952010E+007,  0.19000000000E+002,  0.00000000000E+000,  0.10000000000E+001
  0.18228866500E+008,  0.20003964214E+007,  0.19000000000E+002,  0.00000000000E+000,  0.10000000000E+001
  0.18228868500E+008,  0.20003976505E+007,  0.19000000000E+002,  0.00000000000E+000,  0.10000000000E+001
  0.18228870500E+008,  0.20003988882E+007,  0.19000000000E+002,  0.00000000000E+000,  0.10000000000E+001
  0.18228872500E+008,  0.20004001344E+007,  0.19000000000E+002,  0.00000000000E+000,  0.10000000000E+001
  0.18228874500E+008,  0.20004013891E+007,  0.19000000000E+002,  0.00000000000E+000,  0.10000000000E+001
  0.18228876500E+008,  0.20004026523E+007,  0.19000000000E+002,  0.00000000000E+000,  0.10000000000E+001
  0.18228878500E+008,  0.20004039237E+007,  0.19000000000E+002,  0.00000000000E+000,  0.10000000000E+001
  0.18228880500E+008,  0.20004052034E+007,  0.19000000000E+002,  0.00000000000E+000,  0.10000000000E+001
  0.18228882500E+008,  0.20004064913E+007,  0.19000000000E+002,  0.00000000000E+000,  0.10000000000E+001
  0.18228884500E+008,  0.20004077872E+007,  0.19000000000E+002,  0.00000000000E+000,  0.10000000000E+001
  0.18228886500E+008,  0.20004090912E+007,  0.19000000000E+002,  0.00000000000E+000,  0.10000000000E+001
  0.18228888500E+008,  0.20004104031E+007,  0.19000000000E+002,  0.00000000000E+000,  0.10000000000E+001
  0.18228890500E+008,  0.20004117228E+007,  0.19000000000E+002,  0.00000000000E+000,  0.10000000000E+001
  0.18228892500E+008,  0.20004130503E+007,  0.19000000000E+002,  0.00000000000E+000,  0.10000000000E+001
  0.18228894500E+008,  0.20004143855E+007,  0.19000000000E+002,  0.00000000000E+000,  0.10000000000E+001
  0.18228896500E+008,  0.20004157282E+007,  0.19000000000E+002,  0.00000000000E+000,  0.10000000000E+001
  0.18228898500E+008,  0.20004170784E+007,  0.19000000000E+002,  0.00000000000E+000,  0.10000000000E+001
  0.18228900500E+008,  0.20004184360E+007,  0.19000000000E+002,  0.00000000000E+000,  0.10000000000E+001
  0.18228902500E+008,  0.20004198009E+007,  0.19000000000E+002,  0.00000000000E+000,  0.10000000000E+001
  0.18228904500E+008,  0.20004211730E+007,  0.19000000000E+002,  0.00000000000E+000,  0.10000000000E+001
  0.18228906500E+008,  0.20004225522E+007,  0.19000000000E+002,  0.00000000000E+000,  0.10000000000E+001
  0.18228908500E+008,  0.20004239385E+007,  0.19000000000E+002,  0.00000000000E+000,  0.10000000000E+001
  0.18228910500E+008,  0.20004253316E+007,  0.19000000000E+002,  0.00000000000E+000,  0.10000000000E+001
  0.18228912500E+008,  0.20004267317E+007,  0.19000000000E+002,  0.00000000000E+000,  0.10000000000E+001
  0.18228914500E+008,  0.20004281385E+007,  0.19000000000E+002,  0.00000000000E+000,  0.10000000000E+001
  0.18228916500E+008,  0.20004295519E+007,  0.19000000000E+002,  0.00000000000E+000,  0.10000000000E+001
  0.18228918500E+008,  0.20004309719E+007,  0.19000000000E+002,  0.00000000000E+000,  0.10000000000E+001
  0.18228920500E+008,  0.20004323984E+007,  0.19000000000E+002,  0.00000000000E+000,  0.10000000000E+001
  0.18228922500E+008,  0.20004338313E+007,  0.19000000000E+002,  0.00000000000E+000,  0.10000000000E+001
  0.18228924500E+008,  0.20004352705E+007,  0.19000000000E+002,  0.00000000000E+000,  0.10000000000E+001
  0.18228926500E+008,  0.20004367159E+007,  0.19000000000E+002,  0.00000000000E+000,  0.10000000000E+001
  0.18228928500E+008,  0.20004381674E+007,  0.19000000000E+002,  0.00000000000E+000,  0.10000000000E+001
  0.18228930500E+008,  0.20004396250E+007,  0.19000000000E+002,  0.00000000000E+000,  0.10000000000E+001
  0.18228932500E+008,  0.20004410885E+007,  0.19000000000E+002,  0.00000000000E+000,  0.10000000000E+001
  0.18228934500E+008,  0.20004425578E+007,  0.19000000000E+002,  0.00000000000E+000,  0.10000000000E+001
  0.18228936500E+008,  0.20004440330E+007,  0.19000000000E+002,  0.00000000000E+000,  0.10000000000E+001
  0.18228938500E+008,  0.20004455138E+007,  0.19000000000E+002,  0.00000000000E+000,  0.10000000000E+001
  0.18228940500E+008,  0.20004470002E+007,  0.19000000000E+002,  0.00000000000E+000,  0.10000000000E+001
  0.18228942500E+008,  0.20004484921E+007,  0.19000000000E+002,  0.00000000000E+000,  0.10000000000E+001
  0.18228944500E+008,  0.20004499895E+007,  0.19000000000E+002,  0.00000000000E+000,  0.10000000000E+001
  0.18228946500E+008,  0.20004514922E+007,  0.19000000000E+002,  0.00000000000E+000,  0.10000000000E+001
  0.18228948500E+008,  0.20004530002E+007,  0.19000000000E+002,  0.00000000000E+000,  0.10000000000E+001
  0.18228950500E+008,  0.20004545133E+007,  0.19000000000E+002,  0.00000000000E+000,  0.10000000000E+001
  0.18228952500E+008,  0.20004560316E+007,  0.19000000000E+002,  0.00000000000E+000,  0.10000000000E+001
  0.18228954500E+008,  0.20004575548E+007,  0.19000000000E+002,  0.00000000000E+000,  0.10000000000E+001
  0.18228956500E+008,  0.20004590830E+007,  0.19000000000E+002,  0.00000000000E+000,  0.10000000000E+001
  0.18228958500E+008,  0.20004606161E+007,  0.19000000000E+002,  0.00000000000E+000,  0.10000000000E+001
  0.18228960500E+008,  0.20004621540E+007,  0.19000000000E+002,  0.00000000000E+000,  0.10000000000E+001
  0.18228962500E+008,  0.20004636965E+007,  0.19000000000E+002,  0.00000000000E+000,  0.10000000000E+001
  0.18228964500E+008,  0.20004652437E+007,  0.19000000000E+002,  0.00000000000E+000,  0.10000000000E+001
  0.18228966500E+008,  0.20004667954E+007,  0.19000000000E+002,  0.00000000000E+000,  0.10000000000E+001
  0.18228968500E+008,  0.20004683516E+007,  0.19000000000E+002,  0.00000000000E+000,  0.10000000000E+001
  0.18228970500E+008,  0.20004699121E+007,  0.19000000000E+002,  0.00000000000E+000,  0.10000000000E+001
  0.18228972500E+008,  0.20004714771E+007,  0.19000000000E+002,  0.00000000000E+000,  0.10000000000E+001
  0.18228974500E+008,  0.20004730462E+007,  0.19000000000E+002,  0.00000000000E+000,  0.10000000000E+001
  0.18228976500E+008,  0.20004746195E+007,  0.19000000000E+002,  0.00000000000E+000,  0.10000000000E+001
  0.18228978500E+008,  0.20004761970E+007,  0.19000000000E+002,  0.00000000000E+000,  0.10000000000E+001
  0.18228980500E+008,  0.20004777784E+007,  0.19000000000E+002,  0.00000000000E+000,  0.10000000000E+001
  0.18228982500E+008,  0.20004793639E+007,  0.19000000000E+002,  0.00000000000E+000,  0.10000000000E+001
  0.18228984500E+008,  0.20004809532E+007,  0.19000000000E+002,  0.00000000000E+000,  0.10000000000E+001
  0.18228986500E+008,  0.20004825463E+007,  0.19000000000E+002,  0.00000000000E+000,  0.10000000000E+001
  0.18228988500E+008,  0.20004841432E+007,  0.19000000000E+002,  0.00000000000E+000,  0.10000000000E+001
  0.18228990500E+008,  0.20004857438E+007,  0.19000000000E+002,  0.00000000000E+000,  0.10000000000E+001
  0.18228992500E+008,  0.20004873480E+007,  0.19000000000E+002,  0.00000000000E+000,  0.10000000000E+001
  0.18228994500E+008,  0.20004889557E+007,  0.19000000000E+002,  0.00000000000E+000,  0.10000000000E+001
  0.18228996500E+008,  0.20004905669E+007,  0.19000000000E+002,  0.00000000000E+000,  0.10000000000E+001
  0.18228998500E+008,  0.20004921816E+007,  0.19000000000E+002,  0.00000000000E+000,  0.10000000000E+001
  0.18229000500E+008,  0.20004937996E+007,  0.19000000000E+002,  0.00000000000E+000,  0.10000000000E+001
  0.18229002500E+008,  0.20004954208E+007,  0.19000000000E+002,  0.00000000000E+000,  0.10000000000E+001
  0.18229004500E+008,  0.20004970454E+007,  0.19000000000E+002,  0.00000000000E+000,  0.10000000000E+001
  0.18229006500E+008,  0.20004986730E+007,  0.19000000000E+002,  0.00000000000E+000,  0.10000000000E+001
  0.18229008500E+008,  0.20005003038E+007,  0.19000000000E+002,  0.00000000000E+000,  0.10000000000E+001
  0.18229010500E+008,  0.20005019377E+007,  0.19000000000E+002,  0.00000000000E+000,  0.10000000000E+001
  0.18229012500E+008,  0.20005035745E+007,  0.19000000000E+002,  0.00000000000E+000,  0.10000000000E+001
  0.18229014500E+008,  0.20005052142E+007,  0.19000000000E+002,  0.00000000000E+000,  0.10000000000E+001
  0.18229016500E+008,  0.20005068568E+007,  0.19000000000E+002,  0.00000000000E+000,  0.10000000000E+001
  0.18229018500E+008,  0.20005085022E+007,  0.19000000000E+002,  0.00000000000E+000,  0.10000000000E+001
  0.18229020500E+008,  0.20005101503E+007,  0.19000000000E+002,  0.00000000000E+000,  0.10000000000E+001
  0.18229022500E+008,  0.20005118012E+007,  0.19000000000E+002,  0.00000000000E+000,  0.10000000000E+001
  0.18229024500E+008,  0.20005134547E+007,  0.19000000000E+002,  0.00000000000E+000,  0.10000000000E+001
  0.18229026500E+008,  0.20005151107E+007,  0.19000000000E+002,  0.00000000000E+000,  0.10000000000E+001
  0.18229028500E+008,  0.20005167693E+007,  0.19000000000E+002,  0.00000000000E+000,  0.10000000000E+001
  0.18229030500E+008,  0.20005184303E+007,  0.19000000000E+002,  0.00000000000E+000,  0.10000000000E+001
  0.18229032500E+008,  0.20005200938E+007,  0.19000000000E+002,  0.00000000000E+000,  0.10000000000E+001
  0.18229034500E+008,  0.20005217596E+007,  0.19000000000E+002,  0.00000000000E+000,  0.10000000000E+001
  0.18229036500E+008,  0.20005234277E+007,  0.19000000000E+002,  0.00000000000E+000,  0.10000000000E+001
  0.18229038500E+008,  0.20005250980E+007,  0.19000000000E+002,  0.00000000000E+000,  0.10000000000E+001
  0.18229040500E+008,  0.20005267706E+007,  0.19000000000E+002,  0.00000000000E+000,  0.10000000000E+001
  0.18229042500E+008,  0.20005284453E+007,  0.19000000000E+002,  0.00000000000E+000,  0.10000000000E+001
  0.18229044500E+008,  0.20005301222E+007,  0.19000000000E+002,  0.00000000000E+000,  0.10000000000E+001
  0.18229046500E+008,  0.20005318010E+007,  0.19000000000E+002,  0.00000000000E+000,  0.10000000000E+001
  0.18229048500E+008,  0.20005334819E+007,  0.19000000000E+002,  0.00000000000E+000,  0.10000000000E+001
  0.18229050500E+008,  0.20005351647E+007,  0.19000000000E+002,  0.00000000000E+000,  0.10000000000E+001
  0.18229052500E+008,  0.20005368495E+007,  0.19000000000E+002,  0.00000000000E+000,  0.10000000000E+001
  0.18229054500E+008,  0.20005385361E+007,  0.19000000000E+002,  0.00000000000E+000,  0.10000000000E+001
  0.18229056500E+008,  0.20005402245E+007,  0.19000000000E+002,  0.00000000000E+000,  0.10000000000E+001
  0.18229058500E+008,  0.20005419146E+007,  0.19000000000E+002,  0.00000000000E+000,  0.10000000000E+001
  0.18229060500E+008,  0.20005436065E+007,  0.19000000000E+002,  0.00000000000E+000,  0.10000000000E+001
  0.18229062500E+008,  0.20005453000E+007,  0.19000000000E+002,  0.00000000000E+000,  0.10000000000E+001
  0.18229064500E+008,  0.20005469952E+007,  0.19000000000E+002,  0.00000000000E+000,  0.10000000000E+001
  0.18229066500E+008,  0.20005486920E+007,  0.19000000000E+002,  0.00000000000E+000,  0.10000000000E+001
  0.18229068500E+008,  0.20005503903E+007,  0.19000000000E+002,  0.00000000000E+000,  0.10000000000E+001
  0.18229070500E+008,  0.20005520901E+007,  0.19000000000E+002,  0.00000000000E+000,  0.10000000000E+001
  0.18229072500E+008,  0.20005537913E+007,  0.19000000000E+002,  0.00000000000E+000,  0.10000000000E+001
  0.18229074500E+008,  0.20005554939E+007,  0.19000000000E+002,  0.00000000000E+000,  0.10000000000E+001
  0.18229076500E+008,  0.20005571979E+007,  0.19000000000E+002,  0.00000000000E+000,  0.10000000000E+001
