"           TIME(S)","              PRES","              TEMP","             SAT_G","             SAT_L"
  0.19073486328E-005,  0.20000000000E+007,  0.19000000000E+002,  0.00000000000E+000,  0.10000000000E+001
  0.11444091797E-004,  0.20000000000E+007,  0.19000000000E+002,  0.00000000000E+000,  0.10000000000E+001
  0.59127807617E-004,  0.20000000000E+007,  0.19000000000E+002,  0.00000000000E+000,  0.10000000000E+001
  0.29754638672E-003,  0.20000000000E+007,  0.19000000000E+002,  0.00000000000E+000,  0.10000000000E+001
  0.14896392822E-002,  0.20000000000E+007,  0.19000000000E+002,  0.00000000000E+000,  0.10000000000E+001
  0.74501037598E-002,  0.20000000000E+007,  0.19000000000E+002,  0.00000000000E+000,  0.10000000000E+001
  0.37252426147E-001,  0.20000000000E+007,  0.19000000000E+002,  0.00000000000E+000,  0.10000000000E+001
  0.18626403809E+000,  0.20000000000E+007,  0.19000000000E+002,  0.00000000000E+000,  0.10000000000E+001
  0.93132209778E+000,  0.19999998372E+007,  0.19000000000E+002,  0.00000000000E+000,  0.10000000000E+001
  0.29313220978E+001,  0.19999016881E+007,  0.19000000000E+002,  0.00000000000E+000,  0.10000000000E+001
  0.49313220978E+001,  0.19994820184E+007,  0.19000000000E+002,  0.00000000000E+000,  0.10000000000E+001
  0.69313220978E+001,  0.19984380262E+007,  0.19000000000E+002,  0.00000000000E+000,  0.10000000000E+001
  0.71813220978E+001,  0.19982971635E+007,  0.19000000000E+002,  0.00000000000E+000,  0.10000000000E+001
  0.84313220978E+001,  0.19972554283E+007,  0.19000000000E+002,  0.00000000000E+000,  0.10000000000E+001
  0.85094471647E+001,  0.19971889826E+007,  0.19000000000E+002,  0.00000000000E+000,  0.10000000000E+001
  0.89000724996E+001,  0.19968209440E+007,  0.19000000000E+002,  0.00000000000E+000,  0.10000000000E+001
  0.90953853672E+001,  0.19966276760E+007,  0.19000000000E+002,  0.00000000000E+000,  0.10000000000E+001
  0.91930419052E+001,  0.19965286930E+007,  0.19000000000E+002,  0.00000000000E+000,  0.10000000000E+001
  0.96813245951E+001,  0.19959706222E+007,  0.19000000000E+002,  0.00000000000E+000,  0.10000000000E+001
  0.11681324595E+002,  0.19924324373E+007,  0.19000000000E+002,  0.00000000000E+000,  0.10000000000E+001
  0.13681324595E+002,  0.19875761987E+007,  0.19000000000E+002,  0.00000000000E+000,  0.10000000000E+001
  0.15681324595E+002,  0.19814444677E+007,  0.19000000000E+002,  0.00000000000E+000,  0.10000000000E+001
  0.17681324595E+002,  0.19741535047E+007,  0.19000000000E+002,  0.00000000000E+000,  0.10000000000E+001
  0.19681324595E+002,  0.19658575086E+007,  0.19000000000E+002,  0.00000000000E+000,  0.10000000000E+001
  0.21681324595E+002,  0.19567226297E+007,  0.19000000000E+002,  0.00000000000E+000,  0.10000000000E+001
  0.23681324595E+002,  0.19469126651E+007,  0.19000000000E+002,  0.00000000000E+000,  0.10000000000E+001
  0.25681324595E+002,  0.19365823660E+007,  0.19000000000E+002,  0.00000000000E+000,  0.10000000000E+001
  0.26681324936E+002,  0.19313058142E+007,  0.19000000000E+002,  0.00000000000E+000,  0.10000000000E+001
  0.28681324936E+002,  0.19204425792E+007,  0.19000000000E+002,  0.00000000000E+000,  0.10000000000E+001
  0.30681324936E+002,  0.19093895219E+007,  0.19000000000E+002,  0.00000000000E+000,  0.10000000000E+001
  0.32681324936E+002,  0.18982500940E+007,  0.19000000000E+002,  0.00000000000E+000,  0.10000000000E+001
  0.34681324936E+002,  0.18871103545E+007,  0.19000000000E+002,  0.00000000000E+000,  0.10000000000E+001
  0.36681324936E+002,  0.18760394063E+007,  0.19000000000E+002,  0.00000000000E+000,  0.10000000000E+001
  0.38681324936E+002,  0.18650910307E+007,  0.19000000000E+002,  0.00000000000E+000,  0.10000000000E+001
  0.40681324936E+002,  0.18543063039E+007,  0.19000000000E+002,  0.00000000000E+000,  0.10000000000E+001
  0.42681324936E+002,  0.18437165605E+007,  0.19000000000E+002,  0.00000000000E+000,  0.10000000000E+001
  0.44681324936E+002,  0.18333460322E+007,  0.19000000000E+002,  0.00000000000E+000,  0.10000000000E+001
  0.46681324936E+002,  0.18232134206E+007,  0.19000000000E+002,  0.00000000000E+000,  0.10000000000E+001
  0.48681324936E+002,  0.18133327080E+007,  0.19000000000E+002,  0.00000000000E+000,  0.10000000000E+001
  0.50681324936E+002,  0.18037134943E+007,  0.19000000000E+002,  0.00000000000E+000,  0.10000000000E+001
  0.52681324936E+002,  0.17943611432E+007,  0.19000000000E+002,  0.00000000000E+000,  0.10000000000E+001
  0.54681324936E+002,  0.17852769690E+007,  0.19000000000E+002,  0.00000000000E+000,  0.10000000000E+001
  0.56681324936E+002,  0.17764586300E+007,  0.19000000000E+002,  0.00000000000E+000,  0.10000000000E+001
  0.58681324936E+002,  0.17679006296E+007,  0.19000000000E+002,  0.00000000000E+000,  0.10000000000E+001
  0.58931324936E+002,  0.17668349438E+007,  0.19000000000E+002,  0.00000000000E+000,  0.10000000000E+001
  0.60181324936E+002,  0.17616060328E+007,  0.19000000000E+002,  0.00000000000E+000,  0.10000000000E+001
  0.62181324936E+002,  0.17534846559E+007,  0.19000000000E+002,  0.00000000000E+000,  0.10000000000E+001
  0.63181325727E+002,  0.17494838416E+007,  0.19000000000E+002,  0.00000000000E+000,  0.10000000000E+001
  0.63681326790E+002,  0.17474982231E+007,  0.19000000000E+002,  0.00000000000E+000,  0.10000000000E+001
  0.65681326790E+002,  0.17397798925E+007,  0.19000000000E+002,  0.00000000000E+000,  0.10000000000E+001
  0.67681326790E+002,  0.17322733366E+007,  0.19000000000E+002,  0.00000000000E+000,  0.10000000000E+001
  0.69681326790E+002,  0.17249672186E+007,  0.19000000000E+002,  0.00000000000E+000,  0.10000000000E+001
  0.71681326790E+002,  0.17178517811E+007,  0.19000000000E+002,  0.00000000000E+000,  0.10000000000E+001
  0.73681326790E+002,  0.17109186740E+007,  0.19000000000E+002,  0.00000000000E+000,  0.10000000000E+001
  0.74681326989E+002,  0.17074967433E+007,  0.19000000000E+002,  0.00000000000E+000,  0.10000000000E+001
  0.75181327102E+002,  0.17057968163E+007,  0.19000000000E+002,  0.00000000000E+000,  0.10000000000E+001
  0.75431327279E+002,  0.17049495975E+007,  0.19000000000E+002,  0.00000000000E+000,  0.10000000000E+001
  0.76681328164E+002,  0.17007804324E+007,  0.19000000000E+002,  0.00000000000E+000,  0.10000000000E+001
  0.78681328164E+002,  0.16942755903E+007,  0.19000000000E+002,  0.00000000000E+000,  0.10000000000E+001
  0.80681328164E+002,  0.16879327158E+007,  0.19000000000E+002,  0.00000000000E+000,  0.10000000000E+001
  0.82681328164E+002,  0.16817493248E+007,  0.19000000000E+002,  0.00000000000E+000,  0.10000000000E+001
  0.84681328164E+002,  0.16757236466E+007,  0.19000000000E+002,  0.00000000000E+000,  0.10000000000E+001
  0.86681328164E+002,  0.16698539081E+007,  0.19000000000E+002,  0.00000000000E+000,  0.10000000000E+001
  0.88681328164E+002,  0.16641377461E+007,  0.19000000000E+002,  0.00000000000E+000,  0.10000000000E+001
  0.90681328164E+002,  0.16585718500E+007,  0.19000000000E+002,  0.00000000000E+000,  0.10000000000E+001
  0.92681328164E+002,  0.16531519497E+007,  0.19000000000E+002,  0.00000000000E+000,  0.10000000000E+001
  0.94681328164E+002,  0.16478730112E+007,  0.19000000000E+002,  0.00000000000E+000,  0.10000000000E+001
  0.96681328164E+002,  0.16427294713E+007,  0.19000000000E+002,  0.00000000000E+000,  0.10000000000E+001
  0.98681328164E+002,  0.16377154438E+007,  0.19000000000E+002,  0.00000000000E+000,  0.10000000000E+001
  0.10068132816E+003,  0.16328249044E+007,  0.19000000000E+002,  0.00000000000E+000,  0.10000000000E+001
  0.10268132816E+003,  0.16280518651E+007,  0.19000000000E+002,  0.00000000000E+000,  0.10000000000E+001
  0.10468132816E+003,  0.16233905404E+007,  0.19000000000E+002,  0.00000000000E+000,  0.10000000000E+001
  0.10568132874E+003,  0.16210871063E+007,  0.19000000000E+002,  0.00000000000E+000,  0.10000000000E+001
  0.10618132920E+003,  0.16199421097E+007,  0.19000000000E+002,  0.00000000000E+000,  0.10000000000E+001
  0.10818132920E+003,  0.16154648596E+007,  0.19000000000E+002,  0.00000000000E+000,  0.10000000000E+001
  0.11018132920E+003,  0.16110867590E+007,  0.19000000000E+002,  0.00000000000E+000,  0.10000000000E+001
  0.11218132920E+003,  0.16068054632E+007,  0.19000000000E+002,  0.00000000000E+000,  0.10000000000E+001
  0.11318132939E+003,  0.16046888028E+007,  0.19000000000E+002,  0.00000000000E+000,  0.10000000000E+001
  0.11518132939E+003,  0.16005504468E+007,  0.19000000000E+002,  0.00000000000E+000,  0.10000000000E+001
  0.11718132939E+003,  0.15965063385E+007,  0.19000000000E+002,  0.00000000000E+000,  0.10000000000E+001
  0.11818133014E+003,  0.15945077558E+007,  0.19000000000E+002,  0.00000000000E+000,  0.10000000000E+001
  0.12018133014E+003,  0.15906033380E+007,  0.19000000000E+002,  0.00000000000E+000,  0.10000000000E+001
  0.12218133014E+003,  0.15867900783E+007,  0.19000000000E+002,  0.00000000000E+000,  0.10000000000E+001
  0.12418133014E+003,  0.15830659709E+007,  0.19000000000E+002,  0.00000000000E+000,  0.10000000000E+001
  0.12618133014E+003,  0.15794286756E+007,  0.19000000000E+002,  0.00000000000E+000,  0.10000000000E+001
  0.12818133014E+003,  0.15758755697E+007,  0.19000000000E+002,  0.00000000000E+000,  0.10000000000E+001
  0.12918133064E+003,  0.15741197222E+007,  0.19000000000E+002,  0.00000000000E+000,  0.10000000000E+001
  0.13118133064E+003,  0.15706879347E+007,  0.19000000000E+002,  0.00000000000E+000,  0.10000000000E+001
  0.13318133064E+003,  0.15673331523E+007,  0.19000000000E+002,  0.00000000000E+000,  0.10000000000E+001
  0.13418133084E+003,  0.15656746556E+007,  0.19000000000E+002,  0.00000000000E+000,  0.10000000000E+001
  0.13618133084E+003,  0.15624304859E+007,  0.19000000000E+002,  0.00000000000E+000,  0.10000000000E+001
  0.13818133084E+003,  0.15592565127E+007,  0.19000000000E+002,  0.00000000000E+000,  0.10000000000E+001
  0.14018133084E+003,  0.15561501325E+007,  0.19000000000E+002,  0.00000000000E+000,  0.10000000000E+001
  0.14218133084E+003,  0.15531086958E+007,  0.19000000000E+002,  0.00000000000E+000,  0.10000000000E+001
  0.14418133084E+003,  0.15501294707E+007,  0.19000000000E+002,  0.00000000000E+000,  0.10000000000E+001
  0.14618133084E+003,  0.15472096526E+007,  0.19000000000E+002,  0.00000000000E+000,  0.10000000000E+001
  0.14818133084E+003,  0.15443468757E+007,  0.19000000000E+002,  0.00000000000E+000,  0.10000000000E+001
  0.15018133084E+003,  0.15415394902E+007,  0.19000000000E+002,  0.00000000000E+000,  0.10000000000E+001
  0.15218133084E+003,  0.15387863168E+007,  0.19000000000E+002,  0.00000000000E+000,  0.10000000000E+001
  0.15418133084E+003,  0.15360861846E+007,  0.19000000000E+002,  0.00000000000E+000,  0.10000000000E+001
  0.15618133084E+003,  0.15334378813E+007,  0.19000000000E+002,  0.00000000000E+000,  0.10000000000E+001
  0.15818133084E+003,  0.15308403138E+007,  0.19000000000E+002,  0.00000000000E+000,  0.10000000000E+001
  0.15918133181E+003,  0.15295540897E+007,  0.19000000000E+002,  0.00000000000E+000,  0.10000000000E+001
  0.15968133290E+003,  0.15289141024E+007,  0.19000000000E+002,  0.00000000000E+000,  0.10000000000E+001
  0.15993133377E+003,  0.15285948879E+007,  0.19000000000E+002,  0.00000000000E+000,  0.10000000000E+001
  0.16118133814E+003,  0.15270180999E+007,  0.19000000000E+002,  0.00000000000E+000,  0.10000000000E+001
  0.16318133814E+003,  0.15245438850E+007,  0.19000000000E+002,  0.00000000000E+000,  0.10000000000E+001
  0.16418133817E+003,  0.15233188604E+007,  0.19000000000E+002,  0.00000000000E+000,  0.10000000000E+001
  0.16468133853E+003,  0.15227093598E+007,  0.19000000000E+002,  0.00000000000E+000,  0.10000000000E+001
  0.16668133853E+003,  0.15203198182E+007,  0.19000000000E+002,  0.00000000000E+000,  0.10000000000E+001
  0.16868133853E+003,  0.15179796538E+007,  0.19000000000E+002,  0.00000000000E+000,  0.10000000000E+001
  0.17068133853E+003,  0.15156897307E+007,  0.19000000000E+002,  0.00000000000E+000,  0.10000000000E+001
  0.17268133853E+003,  0.15134501730E+007,  0.19000000000E+002,  0.00000000000E+000,  0.10000000000E+001
  0.17468133853E+003,  0.15112600057E+007,  0.19000000000E+002,  0.00000000000E+000,  0.10000000000E+001
  0.17668133853E+003,  0.15091171915E+007,  0.19000000000E+002,  0.00000000000E+000,  0.10000000000E+001
  0.17868133853E+003,  0.15070189451E+007,  0.19000000000E+002,  0.00000000000E+000,  0.10000000000E+001
  0.18068133853E+003,  0.15049622634E+007,  0.19000000000E+002,  0.00000000000E+000,  0.10000000000E+001
  0.18168133867E+003,  0.15039439481E+007,  0.19000000000E+002,  0.00000000000E+000,  0.10000000000E+001
  0.18218133912E+003,  0.15034372521E+007,  0.19000000000E+002,  0.00000000000E+000,  0.10000000000E+001
  0.18418133912E+003,  0.15014481770E+007,  0.19000000000E+002,  0.00000000000E+000,  0.10000000000E+001
  0.18618133912E+003,  0.14994962780E+007,  0.19000000000E+002,  0.00000000000E+000,  0.10000000000E+001
  0.18818133912E+003,  0.14975815768E+007,  0.19000000000E+002,  0.00000000000E+000,  0.10000000000E+001
  0.18918134006E+003,  0.14966335435E+007,  0.19000000000E+002,  0.00000000000E+000,  0.10000000000E+001
  0.19118134006E+003,  0.14947747537E+007,  0.19000000000E+002,  0.00000000000E+000,  0.10000000000E+001
  0.19318134006E+003,  0.14929528910E+007,  0.19000000000E+002,  0.00000000000E+000,  0.10000000000E+001
  0.19518134006E+003,  0.14911671455E+007,  0.19000000000E+002,  0.00000000000E+000,  0.10000000000E+001
  0.19718134006E+003,  0.14894163219E+007,  0.19000000000E+002,  0.00000000000E+000,  0.10000000000E+001
  0.19818134017E+003,  0.14885494729E+007,  0.19000000000E+002,  0.00000000000E+000,  0.10000000000E+001
  0.20018134017E+003,  0.14868486411E+007,  0.19000000000E+002,  0.00000000000E+000,  0.10000000000E+001
  0.20118134053E+003,  0.14860062769E+007,  0.19000000000E+002,  0.00000000000E+000,  0.10000000000E+001
  0.20318134053E+003,  0.14843526900E+007,  0.19000000000E+002,  0.00000000000E+000,  0.10000000000E+001
  0.20518134053E+003,  0.14827294194E+007,  0.19000000000E+002,  0.00000000000E+000,  0.10000000000E+001
  0.20718134053E+003,  0.14811357464E+007,  0.19000000000E+002,  0.00000000000E+000,  0.10000000000E+001
  0.20918134053E+003,  0.14795709416E+007,  0.19000000000E+002,  0.00000000000E+000,  0.10000000000E+001
  0.21118134053E+003,  0.14780342144E+007,  0.19000000000E+002,  0.00000000000E+000,  0.10000000000E+001
  0.21318134053E+003,  0.14765248117E+007,  0.19000000000E+002,  0.00000000000E+000,  0.10000000000E+001
  0.21418134081E+003,  0.14757768564E+007,  0.19000000000E+002,  0.00000000000E+000,  0.10000000000E+001
  0.21618134081E+003,  0.14743076560E+007,  0.19000000000E+002,  0.00000000000E+000,  0.10000000000E+001
  0.21818134081E+003,  0.14728653735E+007,  0.19000000000E+002,  0.00000000000E+000,  0.10000000000E+001
  0.22018134081E+003,  0.14714505076E+007,  0.19000000000E+002,  0.00000000000E+000,  0.10000000000E+001
  0.22218134081E+003,  0.14700635558E+007,  0.19000000000E+002,  0.00000000000E+000,  0.10000000000E+001
  0.22418134081E+003,  0.14687050301E+007,  0.19000000000E+002,  0.00000000000E+000,  0.10000000000E+001
  0.22618134081E+003,  0.14673754227E+007,  0.19000000000E+002,  0.00000000000E+000,  0.10000000000E+001
  0.22818134081E+003,  0.14660750611E+007,  0.19000000000E+002,  0.00000000000E+000,  0.10000000000E+001
  0.23018134081E+003,  0.14648039892E+007,  0.19000000000E+002,  0.00000000000E+000,  0.10000000000E+001
  0.23218134081E+003,  0.14635620141E+007,  0.19000000000E+002,  0.00000000000E+000,  0.10000000000E+001
  0.23418134081E+003,  0.14623488674E+007,  0.19000000000E+002,  0.00000000000E+000,  0.10000000000E+001
  0.23618134081E+003,  0.14611643489E+007,  0.19000000000E+002,  0.00000000000E+000,  0.10000000000E+001
  0.23818134081E+003,  0.14600083483E+007,  0.19000000000E+002,  0.00000000000E+000,  0.10000000000E+001
  0.24018134081E+003,  0.14588807684E+007,  0.19000000000E+002,  0.00000000000E+000,  0.10000000000E+001
  0.24218134081E+003,  0.14577814606E+007,  0.19000000000E+002,  0.00000000000E+000,  0.10000000000E+001
  0.24318134246E+003,  0.14572388551E+007,  0.19000000000E+002,  0.00000000000E+000,  0.10000000000E+001
  0.24518134246E+003,  0.14561818536E+007,  0.19000000000E+002,  0.00000000000E+000,  0.10000000000E+001
  0.24718134246E+003,  0.14551533225E+007,  0.19000000000E+002,  0.00000000000E+000,  0.10000000000E+001
  0.24918134246E+003,  0.14541537007E+007,  0.19000000000E+002,  0.00000000000E+000,  0.10000000000E+001
  0.25118134246E+003,  0.14531834233E+007,  0.19000000000E+002,  0.00000000000E+000,  0.10000000000E+001
  0.25218134464E+003,  0.14527056677E+007,  0.19000000000E+002,  0.00000000000E+000,  0.10000000000E+001
  0.25418134464E+003,  0.14517798292E+007,  0.19000000000E+002,  0.00000000000E+000,  0.10000000000E+001
  0.25518134652E+003,  0.14513243262E+007,  0.19000000000E+002,  0.00000000000E+000,  0.10000000000E+001
  0.25568134882E+003,  0.14510984270E+007,  0.19000000000E+002,  0.00000000000E+000,  0.10000000000E+001
  0.25768134882E+003,  0.14502241414E+007,  0.19000000000E+002,  0.00000000000E+000,  0.10000000000E+001
  0.25868135080E+003,  0.14497942692E+007,  0.19000000000E+002,  0.00000000000E+000,  0.10000000000E+001
  0.26068135080E+003,  0.14489630495E+007,  0.19000000000E+002,  0.00000000000E+000,  0.10000000000E+001
  0.26268135080E+003,  0.14481597537E+007,  0.19000000000E+002,  0.00000000000E+000,  0.10000000000E+001
  0.26468135080E+003,  0.14473837914E+007,  0.19000000000E+002,  0.00000000000E+000,  0.10000000000E+001
  0.26668135080E+003,  0.14466345998E+007,  0.19000000000E+002,  0.00000000000E+000,  0.10000000000E+001
  0.26868135080E+003,  0.14459116446E+007,  0.19000000000E+002,  0.00000000000E+000,  0.10000000000E+001
  0.27068135080E+003,  0.14452144146E+007,  0.19000000000E+002,  0.00000000000E+000,  0.10000000000E+001
  0.27268135080E+003,  0.14445424759E+007,  0.19000000000E+002,  0.00000000000E+000,  0.10000000000E+001
  0.27468135080E+003,  0.14438955648E+007,  0.19000000000E+002,  0.00000000000E+000,  0.10000000000E+001
  0.27668135080E+003,  0.14432736010E+007,  0.19000000000E+002,  0.00000000000E+000,  0.10000000000E+001
  0.27868135080E+003,  0.14426765844E+007,  0.19000000000E+002,  0.00000000000E+000,  0.10000000000E+001
  0.28068135080E+003,  0.14421044624E+007,  0.19000000000E+002,  0.00000000000E+000,  0.10000000000E+001
  0.28168135301E+003,  0.14418246110E+007,  0.19000000000E+002,  0.00000000000E+000,  0.10000000000E+001
  0.28368135301E+003,  0.14412894865E+007,  0.19000000000E+002,  0.00000000000E+000,  0.10000000000E+001
  0.28568135301E+003,  0.14407785455E+007,  0.19000000000E+002,  0.00000000000E+000,  0.10000000000E+001
  0.28768135301E+003,  0.14402913551E+007,  0.19000000000E+002,  0.00000000000E+000,  0.10000000000E+001
  0.28968135301E+003,  0.14398275016E+007,  0.19000000000E+002,  0.00000000000E+000,  0.10000000000E+001
  0.29168135301E+003,  0.14393865919E+007,  0.19000000000E+002,  0.00000000000E+000,  0.10000000000E+001
  0.29368135301E+003,  0.14389682303E+007,  0.19000000000E+002,  0.00000000000E+000,  0.10000000000E+001
  0.29568135301E+003,  0.14385719999E+007,  0.19000000000E+002,  0.00000000000E+000,  0.10000000000E+001
  0.29768135301E+003,  0.14381974583E+007,  0.19000000000E+002,  0.00000000000E+000,  0.10000000000E+001
  0.29968135301E+003,  0.14378441432E+007,  0.19000000000E+002,  0.00000000000E+000,  0.10000000000E+001
  0.30168135301E+003,  0.14375115834E+007,  0.19000000000E+002,  0.00000000000E+000,  0.10000000000E+001
  0.30268135595E+003,  0.14373504329E+007,  0.19000000000E+002,  0.00000000000E+000,  0.10000000000E+001
  0.30468135595E+003,  0.14370481999E+007,  0.19000000000E+002,  0.00000000000E+000,  0.10000000000E+001
  0.30668135595E+003,  0.14367656287E+007,  0.19000000000E+002,  0.00000000000E+000,  0.10000000000E+001
  0.30868135595E+003,  0.14365023702E+007,  0.19000000000E+002,  0.00000000000E+000,  0.10000000000E+001
  0.31068135595E+003,  0.14362581193E+007,  0.19000000000E+002,  0.00000000000E+000,  0.10000000000E+001
