"           TIME(S)","              PRES","              TEMP","             SAT_G","             SAT_L"
  0.17593600000E+008,  0.20999535355E+007,  0.19000000000E+002,  0.10000000000E+001,  0.00000000000E+000
  0.17601100000E+008,  0.20998023787E+007,  0.19000000000E+002,  0.10000000000E+001,  0.00000000000E+000
  0.17616100000E+008,  0.20998017726E+007,  0.19000000000E+002,  0.10000000000E+001,  0.00000000000E+000
  0.17631100000E+008,  0.20998011274E+007,  0.19000000000E+002,  0.10000000000E+001,  0.00000000000E+000
  0.17646100000E+008,  0.20998007528E+007,  0.19000000000E+002,  0.10000000000E+001,  0.00000000000E+000
  0.17661100000E+008,  0.20998005293E+007,  0.19000000000E+002,  0.10000000000E+001,  0.00000000000E+000
  0.17676100000E+008,  0.20998003930E+007,  0.19000000000E+002,  0.10000000000E+001,  0.00000000000E+000
  0.17691100000E+008,  0.20998003092E+007,  0.19000000000E+002,  0.10000000000E+001,  0.00000000000E+000
  0.17706100000E+008,  0.20998002573E+007,  0.19000000000E+002,  0.10000000000E+001,  0.00000000000E+000
  0.17721100000E+008,  0.20998002250E+007,  0.19000000000E+002,  0.10000000000E+001,  0.00000000000E+000
  0.17736100000E+008,  0.20998002049E+007,  0.19000000000E+002,  0.10000000000E+001,  0.00000000000E+000
  0.17751100000E+008,  0.20998001924E+007,  0.19000000000E+002,  0.10000000000E+001,  0.00000000000E+000
  0.17766100000E+008,  0.20998001846E+007,  0.19000000000E+002,  0.10000000000E+001,  0.00000000000E+000
  0.17781100000E+008,  0.20998001797E+007,  0.19000000000E+002,  0.10000000000E+001,  0.00000000000E+000
  0.17796100000E+008,  0.20998001766E+007,  0.19000000000E+002,  0.10000000000E+001,  0.00000000000E+000
  0.17811100000E+008,  0.20998001748E+007,  0.19000000000E+002,  0.10000000000E+001,  0.00000000000E+000
  0.17826100000E+008,  0.20998001736E+007,  0.19000000000E+002,  0.10000000000E+001,  0.00000000000E+000
  0.17841100000E+008,  0.20998001728E+007,  0.19000000000E+002,  0.10000000000E+001,  0.00000000000E+000
  0.17856100000E+008,  0.20998001724E+007,  0.19000000000E+002,  0.10000000000E+001,  0.00000000000E+000
  0.17871100000E+008,  0.21035567141E+007,  0.19000000000E+002,  0.10000000000E+001,  0.00000000000E+000
  0.17886100000E+008,  0.21069077082E+007,  0.19000000000E+002,  0.10000000000E+001,  0.00000000000E+000
  0.17901100000E+008,  0.21102122790E+007,  0.19000000000E+002,  0.10000000000E+001,  0.00000000000E+000
  0.17916100000E+008,  0.21150797650E+007,  0.19000000000E+002,  0.10000000000E+001,  0.00000000000E+000
  0.17931100000E+008,  0.21219591377E+007,  0.19000000000E+002,  0.10000000000E+001,  0.00000000000E+000
  0.17946100000E+008,  0.21284469104E+007,  0.19000000000E+002,  0.10000000000E+001,  0.00000000000E+000
  0.17961100000E+008,  0.21349314924E+007,  0.19000000000E+002,  0.10000000000E+001,  0.00000000000E+000
  0.17976100000E+008,  0.21413637481E+007,  0.19000000000E+002,  0.10000000000E+001,  0.00000000000E+000
  0.17991100000E+008,  0.21477977690E+007,  0.19000000000E+002,  0.10000000000E+001,  0.00000000000E+000
  0.18006100000E+008,  0.21542330929E+007,  0.19000000000E+002,  0.10000000000E+001,  0.00000000000E+000
  0.18021100000E+008,  0.21607097104E+007,  0.19000000000E+002,  0.10000000000E+001,  0.00000000000E+000
  0.18036100000E+008,  0.21672571230E+007,  0.19000000000E+002,  0.10000000000E+001,  0.00000000000E+000
  0.18051100000E+008,  0.21737914546E+007,  0.19000000000E+002,  0.10000000000E+001,  0.00000000000E+000
  0.18066100000E+008,  0.21803257060E+007,  0.19000000000E+002,  0.10000000000E+001,  0.00000000000E+000
  0.18081100000E+008,  0.21910363589E+007,  0.19000000000E+002,  0.10000000000E+001,  0.00000000000E+000
  0.18096100000E+008,  0.22020082769E+007,  0.19000000000E+002,  0.10000000000E+001,  0.00000000000E+000
  0.18111100000E+008,  0.22128157481E+007,  0.19000000000E+002,  0.10000000000E+001,  0.00000000000E+000
  0.18126100000E+008,  0.22255963350E+007,  0.19000000000E+002,  0.10000000000E+001,  0.00000000000E+000
  0.18141100000E+008,  0.22431215710E+007,  0.19000000000E+002,  0.10000000000E+001,  0.00000000000E+000
  0.18156100000E+008,  0.22598129013E+007,  0.19000000000E+002,  0.10000000000E+001,  0.00000000000E+000
  0.18171100000E+008,  0.22764981114E+007,  0.19000000000E+002,  0.10000000000E+001,  0.00000000000E+000
  0.18186100000E+008,  0.22933980877E+007,  0.19000000000E+002,  0.10000000000E+001,  0.00000000000E+000
  0.18201100000E+008,  0.23103340192E+007,  0.19000000000E+002,  0.10000000000E+001,  0.00000000000E+000
  0.18216100000E+008,  0.23272588071E+007,  0.19000000000E+002,  0.10000000000E+001,  0.00000000000E+000
  0.18231100000E+008,  0.23442676158E+007,  0.19000000000E+002,  0.10000000000E+001,  0.00000000000E+000
  0.18246100000E+008,  0.23615601652E+007,  0.19000000000E+002,  0.10000000000E+001,  0.00000000000E+000
  0.18261100000E+008,  0.23788062103E+007,  0.19000000000E+002,  0.10000000000E+001,  0.00000000000E+000
  0.18276100000E+008,  0.23960517531E+007,  0.19000000000E+002,  0.10000000000E+001,  0.00000000000E+000
  0.18291100000E+008,  0.24136887845E+007,  0.19000000000E+002,  0.10000000000E+001,  0.00000000000E+000
  0.18306100000E+008,  0.24314440200E+007,  0.19000000000E+002,  0.10000000000E+001,  0.00000000000E+000
  0.18321100000E+008,  0.24491717399E+007,  0.19000000000E+002,  0.10000000000E+001,  0.00000000000E+000
  0.18336100000E+008,  0.24669459690E+007,  0.19000000000E+002,  0.10000000000E+001,  0.00000000000E+000
  0.18351100000E+008,  0.24849695426E+007,  0.19000000000E+002,  0.10000000000E+001,  0.00000000000E+000
  0.18366100000E+008,  0.25029547510E+007,  0.19000000000E+002,  0.10000000000E+001,  0.00000000000E+000
  0.18381100000E+008,  0.25209399575E+007,  0.19000000000E+002,  0.10000000000E+001,  0.00000000000E+000
  0.18396100000E+008,  0.25392922630E+007,  0.19000000000E+002,  0.10000000000E+001,  0.00000000000E+000
  0.18411100000E+008,  0.25578088646E+007,  0.19000000000E+002,  0.10000000000E+001,  0.00000000000E+000
  0.18426100000E+008,  0.25762932549E+007,  0.19000000000E+002,  0.10000000000E+001,  0.00000000000E+000
  0.18441100000E+008,  0.25948158750E+007,  0.19000000000E+002,  0.10000000000E+001,  0.00000000000E+000
  0.18456100000E+008,  0.26137038228E+007,  0.19000000000E+002,  0.10000000000E+001,  0.00000000000E+000
  0.18471100000E+008,  0.26325384695E+007,  0.19000000000E+002,  0.10000000000E+001,  0.00000000000E+000
  0.18486100000E+008,  0.26513730132E+007,  0.19000000000E+002,  0.10000000000E+001,  0.00000000000E+000
  0.18501100000E+008,  0.26704407700E+007,  0.19000000000E+002,  0.10000000000E+001,  0.00000000000E+000
  0.18516100000E+008,  0.26896586008E+007,  0.19000000000E+002,  0.10000000000E+001,  0.00000000000E+000
  0.18531100000E+008,  0.27088506867E+007,  0.19000000000E+002,  0.10000000000E+001,  0.00000000000E+000
  0.18546100000E+008,  0.27280566604E+007,  0.19000000000E+002,  0.10000000000E+001,  0.00000000000E+000
  0.18561100000E+008,  0.27477648109E+007,  0.19000000000E+002,  0.10000000000E+001,  0.00000000000E+000
  0.18576100000E+008,  0.27674034424E+007,  0.19000000000E+002,  0.10000000000E+001,  0.00000000000E+000
  0.18591100000E+008,  0.27870418654E+007,  0.19000000000E+002,  0.10000000000E+001,  0.00000000000E+000
  0.18606100000E+008,  0.28068008853E+007,  0.19000000000E+002,  0.10000000000E+001,  0.00000000000E+000
  0.18621100000E+008,  0.28266640285E+007,  0.19000000000E+002,  0.10000000000E+001,  0.00000000000E+000
  0.18636100000E+008,  0.28465110424E+007,  0.19000000000E+002,  0.10000000000E+001,  0.00000000000E+000
  0.18651100000E+008,  0.28663581690E+007,  0.19000000000E+002,  0.10000000000E+001,  0.00000000000E+000
  0.18666100000E+008,  0.28869066161E+007,  0.19000000000E+002,  0.10000000000E+001,  0.00000000000E+000
  0.18681100000E+008,  0.29073863931E+007,  0.19000000000E+002,  0.10000000000E+001,  0.00000000000E+000
  0.18696100000E+008,  0.29278626346E+007,  0.19000000000E+002,  0.10000000000E+001,  0.00000000000E+000
  0.18698900000E+008,  0.29316848861E+007,  0.19000000000E+002,  0.10000000000E+001,  0.00000000000E+000
  0.18713900000E+008,  0.29523795854E+007,  0.19000000000E+002,  0.10000000000E+001,  0.00000000000E+000
  0.18728900000E+008,  0.29731797207E+007,  0.19000000000E+002,  0.10000000000E+001,  0.00000000000E+000
  0.18743900000E+008,  0.29940367872E+007,  0.19000000000E+002,  0.10000000000E+001,  0.00000000000E+000
  0.18758900000E+008,  0.30150029295E+007,  0.19000000000E+002,  0.10000000000E+001,  0.00000000000E+000
  0.18773900000E+008,  0.30363148285E+007,  0.19000000000E+002,  0.10000000000E+001,  0.00000000000E+000
  0.18788900000E+008,  0.30575809909E+007,  0.19000000000E+002,  0.10000000000E+001,  0.00000000000E+000
  0.18803900000E+008,  0.30788470771E+007,  0.19000000000E+002,  0.10000000000E+001,  0.00000000000E+000
  0.18818900000E+008,  0.31003738812E+007,  0.19000000000E+002,  0.10000000000E+001,  0.00000000000E+000
  0.18833900000E+008,  0.31220728861E+007,  0.19000000000E+002,  0.10000000000E+001,  0.00000000000E+000
  0.18848900000E+008,  0.31437465162E+007,  0.19000000000E+002,  0.10000000000E+001,  0.00000000000E+000
  0.18863900000E+008,  0.31654354855E+007,  0.19000000000E+002,  0.10000000000E+001,  0.00000000000E+000
  0.18878900000E+008,  0.31876810863E+007,  0.19000000000E+002,  0.10000000000E+001,  0.00000000000E+000
  0.18893900000E+008,  0.32098588249E+007,  0.19000000000E+002,  0.10000000000E+001,  0.00000000000E+000
  0.18908900000E+008,  0.32320363553E+007,  0.19000000000E+002,  0.10000000000E+001,  0.00000000000E+000
  0.18923900000E+008,  0.32545027362E+007,  0.19000000000E+002,  0.10000000000E+001,  0.00000000000E+000
  0.18938900000E+008,  0.32772309861E+007,  0.19000000000E+002,  0.10000000000E+001,  0.00000000000E+000
  0.18953900000E+008,  0.32999239744E+007,  0.19000000000E+002,  0.10000000000E+001,  0.00000000000E+000
  0.18968900000E+008,  0.33226169245E+007,  0.19000000000E+002,  0.10000000000E+001,  0.00000000000E+000
  0.18983900000E+008,  0.33459794707E+007,  0.19000000000E+002,  0.10000000000E+001,  0.00000000000E+000
  0.18998900000E+008,  0.33692918443E+007,  0.19000000000E+002,  0.10000000000E+001,  0.00000000000E+000
  0.19013900000E+008,  0.33926007170E+007,  0.19000000000E+002,  0.10000000000E+001,  0.00000000000E+000
  0.19028900000E+008,  0.34160857933E+007,  0.19000000000E+002,  0.10000000000E+001,  0.00000000000E+000
  0.19043900000E+008,  0.34397808938E+007,  0.19000000000E+002,  0.10000000000E+001,  0.00000000000E+000
  0.19058900000E+008,  0.34634497932E+007,  0.19000000000E+002,  0.10000000000E+001,  0.00000000000E+000
  0.19073900000E+008,  0.34871186857E+007,  0.19000000000E+002,  0.10000000000E+001,  0.00000000000E+000
  0.19088900000E+008,  0.35114380725E+007,  0.19000000000E+002,  0.10000000000E+001,  0.00000000000E+000
  0.19103900000E+008,  0.35357569694E+007,  0.19000000000E+002,  0.10000000000E+001,  0.00000000000E+000
  0.19118900000E+008,  0.35600675841E+007,  0.19000000000E+002,  0.10000000000E+001,  0.00000000000E+000
  0.19133900000E+008,  0.35845730430E+007,  0.19000000000E+002,  0.10000000000E+001,  0.00000000000E+000
  0.19148900000E+008,  0.36093933718E+007,  0.19000000000E+002,  0.10000000000E+001,  0.00000000000E+000
  0.19163900000E+008,  0.36341769627E+007,  0.19000000000E+002,  0.10000000000E+001,  0.00000000000E+000
  0.19178900000E+008,  0.36589604757E+007,  0.19000000000E+002,  0.10000000000E+001,  0.00000000000E+000
  0.19193900000E+008,  0.36843700345E+007,  0.19000000000E+002,  0.10000000000E+001,  0.00000000000E+000
  0.19208900000E+008,  0.37098376038E+007,  0.19000000000E+002,  0.10000000000E+001,  0.00000000000E+000
  0.19223900000E+008,  0.37352915984E+007,  0.19000000000E+002,  0.10000000000E+001,  0.00000000000E+000
  0.19238900000E+008,  0.37608838263E+007,  0.19000000000E+002,  0.10000000000E+001,  0.00000000000E+000
  0.19253900000E+008,  0.37867738303E+007,  0.19000000000E+002,  0.10000000000E+001,  0.00000000000E+000
  0.19268900000E+008,  0.38126311342E+007,  0.19000000000E+002,  0.10000000000E+001,  0.00000000000E+000
  0.19283900000E+008,  0.38384883586E+007,  0.19000000000E+002,  0.10000000000E+001,  0.00000000000E+000
  0.19298900000E+008,  0.38650315736E+007,  0.19000000000E+002,  0.10000000000E+001,  0.00000000000E+000
  0.19313900000E+008,  0.38917051920E+007,  0.19000000000E+002,  0.10000000000E+001,  0.00000000000E+000
  0.19328900000E+008,  0.39183580049E+007,  0.19000000000E+002,  0.10000000000E+001,  0.00000000000E+000
  0.19343900000E+008,  0.39452026947E+007,  0.19000000000E+002,  0.10000000000E+001,  0.00000000000E+000
  0.19358900000E+008,  0.39726353651E+007,  0.19000000000E+002,  0.10000000000E+001,  0.00000000000E+000
  0.19373900000E+008,  0.40000070210E+007,  0.19000000000E+002,  0.10000000000E+001,  0.00000000000E+000
  0.19388900000E+008,  0.40273784473E+007,  0.19000000000E+002,  0.10000000000E+001,  0.00000000000E+000
  0.19403900000E+008,  0.40339743597E+007,  0.19000000000E+002,  0.10000000000E+001,  0.00000000000E+000
  0.19418900000E+008,  0.40339901701E+007,  0.19000000000E+002,  0.10000000000E+001,  0.00000000000E+000
  0.19433900000E+008,  0.40348639507E+007,  0.19000000000E+002,  0.10000000000E+001,  0.00000000000E+000
  0.19448900000E+008,  0.40355663864E+007,  0.19000000000E+002,  0.10000000000E+001,  0.00000000000E+000
  0.19463900000E+008,  0.40354869784E+007,  0.19000000000E+002,  0.10000000000E+001,  0.00000000000E+000
  0.19478900000E+008,  0.40354863457E+007,  0.19000000000E+002,  0.10000000000E+001,  0.00000000000E+000
  0.19493900000E+008,  0.40354861528E+007,  0.19000000000E+002,  0.10000000000E+001,  0.00000000000E+000
  0.19508900000E+008,  0.40360467281E+007,  0.19000000000E+002,  0.10000000000E+001,  0.00000000000E+000
  0.19523900000E+008,  0.40368585792E+007,  0.19000000000E+002,  0.10000000000E+001,  0.00000000000E+000
  0.19538900000E+008,  0.40376400952E+007,  0.19000000000E+002,  0.10000000000E+001,  0.00000000000E+000
  0.19553900000E+008,  0.40383232259E+007,  0.19000000000E+002,  0.10000000000E+001,  0.00000000000E+000
  0.19568900000E+008,  0.40382472741E+007,  0.19000000000E+002,  0.10000000000E+001,  0.00000000000E+000
  0.19583900000E+008,  0.40382468950E+007,  0.19000000000E+002,  0.10000000000E+001,  0.00000000000E+000
  0.19598900000E+008,  0.40382468633E+007,  0.19000000000E+002,  0.10000000000E+001,  0.00000000000E+000
  0.19613900000E+008,  0.40383726413E+007,  0.19000000000E+002,  0.10000000000E+001,  0.00000000000E+000
  0.19628900000E+008,  0.40385771603E+007,  0.19000000000E+002,  0.10000000000E+001,  0.00000000000E+000
  0.19643900000E+008,  0.40387726782E+007,  0.19000000000E+002,  0.10000000000E+001,  0.00000000000E+000
  0.19658900000E+008,  0.40390260022E+007,  0.19000000000E+002,  0.10000000000E+001,  0.00000000000E+000
  0.19673900000E+008,  0.40403003722E+007,  0.19000000000E+002,  0.10000000000E+001,  0.00000000000E+000
  0.19688900000E+008,  0.40414738626E+007,  0.19000000000E+002,  0.10000000000E+001,  0.00000000000E+000
  0.19703900000E+008,  0.40426468943E+007,  0.19000000000E+002,  0.10000000000E+001,  0.00000000000E+000
  0.19718900000E+008,  0.40431432209E+007,  0.19000000000E+002,  0.10000000000E+001,  0.00000000000E+000
  0.19733900000E+008,  0.40430813116E+007,  0.19000000000E+002,  0.10000000000E+001,  0.00000000000E+000
  0.19748900000E+008,  0.40430810021E+007,  0.19000000000E+002,  0.10000000000E+001,  0.00000000000E+000
  0.19763900000E+008,  0.40430809769E+007,  0.19000000000E+002,  0.10000000000E+001,  0.00000000000E+000
  0.19778900000E+008,  0.40431880142E+007,  0.19000000000E+002,  0.10000000000E+001,  0.00000000000E+000
  0.19793900000E+008,  0.40432859972E+007,  0.19000000000E+002,  0.10000000000E+001,  0.00000000000E+000
  0.19805800000E+008,  0.40433635824E+007,  0.19000000000E+002,  0.10000000000E+001,  0.00000000000E+000
  0.19820800000E+008,  0.40434346161E+007,  0.19000000000E+002,  0.10000000000E+001,  0.00000000000E+000
  0.19835800000E+008,  0.40434265418E+007,  0.19000000000E+002,  0.10000000000E+001,  0.00000000000E+000
  0.19850800000E+008,  0.40434265009E+007,  0.19000000000E+002,  0.10000000000E+001,  0.00000000000E+000
  0.19865800000E+008,  0.40434264971E+007,  0.19000000000E+002,  0.10000000000E+001,  0.00000000000E+000
  0.19880800000E+008,  0.40441299638E+007,  0.19000000000E+002,  0.10000000000E+001,  0.00000000000E+000
  0.19895800000E+008,  0.40450379593E+007,  0.19000000000E+002,  0.10000000000E+001,  0.00000000000E+000
  0.19910800000E+008,  0.40459188005E+007,  0.19000000000E+002,  0.10000000000E+001,  0.00000000000E+000
  0.19925800000E+008,  0.40468198131E+007,  0.19000000000E+002,  0.10000000000E+001,  0.00000000000E+000
  0.19940800000E+008,  0.40478073228E+007,  0.19000000000E+002,  0.10000000000E+001,  0.00000000000E+000
  0.19955800000E+008,  0.40487862216E+007,  0.19000000000E+002,  0.10000000000E+001,  0.00000000000E+000
  0.19970800000E+008,  0.40497650699E+007,  0.19000000000E+002,  0.10000000000E+001,  0.00000000000E+000
  0.19985800000E+008,  0.40500345605E+007,  0.19000000000E+002,  0.10000000000E+001,  0.00000000000E+000
  0.20000800000E+008,  0.40499971657E+007,  0.19000000000E+002,  0.10000000000E+001,  0.00000000000E+000
  0.20015800000E+008,  0.40499969679E+007,  0.19000000000E+002,  0.10000000000E+001,  0.00000000000E+000
  0.20030800000E+008,  0.40499969458E+007,  0.19000000000E+002,  0.10000000000E+001,  0.00000000000E+000
  0.20045800000E+008,  0.40499969322E+007,  0.19000000000E+002,  0.10000000000E+001,  0.00000000000E+000
  0.20060800000E+008,  0.40499969231E+007,  0.19000000000E+002,  0.10000000000E+001,  0.00000000000E+000
  0.20075800000E+008,  0.40499969170E+007,  0.19000000000E+002,  0.10000000000E+001,  0.00000000000E+000
  0.20090800000E+008,  0.40505125790E+007,  0.19000000000E+002,  0.10000000000E+001,  0.00000000000E+000
  0.20105800000E+008,  0.40513311352E+007,  0.19000000000E+002,  0.10000000000E+001,  0.00000000000E+000
  0.20120800000E+008,  0.40521148346E+007,  0.19000000000E+002,  0.10000000000E+001,  0.00000000000E+000
  0.20135800000E+008,  0.40528462287E+007,  0.19000000000E+002,  0.10000000000E+001,  0.00000000000E+000
  0.20150800000E+008,  0.40527658292E+007,  0.19000000000E+002,  0.10000000000E+001,  0.00000000000E+000
  0.20165800000E+008,  0.40527654478E+007,  0.19000000000E+002,  0.10000000000E+001,  0.00000000000E+000
  0.20180800000E+008,  0.40527654270E+007,  0.19000000000E+002,  0.10000000000E+001,  0.00000000000E+000
  0.20195800000E+008,  0.40527654156E+007,  0.19000000000E+002,  0.10000000000E+001,  0.00000000000E+000
  0.20210800000E+008,  0.40527654080E+007,  0.19000000000E+002,  0.10000000000E+001,  0.00000000000E+000
  0.20225800000E+008,  0.40527654029E+007,  0.19000000000E+002,  0.10000000000E+001,  0.00000000000E+000
  0.20240800000E+008,  0.40527653995E+007,  0.19000000000E+002,  0.10000000000E+001,  0.00000000000E+000
  0.20255800000E+008,  0.40527653972E+007,  0.19000000000E+002,  0.10000000000E+001,  0.00000000000E+000
  0.20270800000E+008,  0.40527653956E+007,  0.19000000000E+002,  0.10000000000E+001,  0.00000000000E+000
  0.20285800000E+008,  0.40527653946E+007,  0.19000000000E+002,  0.10000000000E+001,  0.00000000000E+000
  0.20300800000E+008,  0.40531206653E+007,  0.19000000000E+002,  0.10000000000E+001,  0.00000000000E+000
  0.20315800000E+008,  0.40538471586E+007,  0.19000000000E+002,  0.10000000000E+001,  0.00000000000E+000
  0.20330800000E+008,  0.40545337359E+007,  0.19000000000E+002,  0.10000000000E+001,  0.00000000000E+000
  0.20345800000E+008,  0.40552201284E+007,  0.19000000000E+002,  0.10000000000E+001,  0.00000000000E+000
  0.20360800000E+008,  0.40551960192E+007,  0.19000000000E+002,  0.10000000000E+001,  0.00000000000E+000
  0.20375800000E+008,  0.40551906986E+007,  0.19000000000E+002,  0.10000000000E+001,  0.00000000000E+000
  0.20390800000E+008,  0.40551906578E+007,  0.19000000000E+002,  0.10000000000E+001,  0.00000000000E+000
