"           TIME(S)","              PRES","              TEMP","             SAT_G","             SAT_L"
  0.18228740000E+008,  0.20000083544E+007,  0.19000000000E+002,  0.00000000000E+000,  0.10000000000E+001
  0.18228890000E+008,  0.20000436438E+007,  0.19000000000E+002,  0.00000000000E+000,  0.10000000000E+001
  0.18229040000E+008,  0.20000684284E+007,  0.19000000000E+002,  0.00000000000E+000,  0.10000000000E+001
  0.18229190000E+008,  0.20000868458E+007,  0.19000000000E+002,  0.00000000000E+000,  0.10000000000E+001
  0.18229340000E+008,  0.20001017193E+007,  0.19000000000E+002,  0.00000000000E+000,  0.10000000000E+001
  0.18229490000E+008,  0.20001144428E+007,  0.19000000000E+002,  0.00000000000E+000,  0.10000000000E+001
  0.18229640000E+008,  0.20001257531E+007,  0.19000000000E+002,  0.00000000000E+000,  0.10000000000E+001
  0.18229790000E+008,  0.20001360843E+007,  0.19000000000E+002,  0.00000000000E+000,  0.10000000000E+001
  0.18229940000E+008,  0.20001457134E+007,  0.19000000000E+002,  0.00000000000E+000,  0.10000000000E+001
  0.18230090000E+008,  0.20001548278E+007,  0.19000000000E+002,  0.00000000000E+000,  0.10000000000E+001
  0.18230240000E+008,  0.20001635588E+007,  0.19000000000E+002,  0.00000000000E+000,  0.10000000000E+001
  0.18230390000E+008,  0.20001720008E+007,  0.19000000000E+002,  0.00000000000E+000,  0.10000000000E+001
  0.18230540000E+008,  0.20001802233E+007,  0.19000000000E+002,  0.00000000000E+000,  0.10000000000E+001
  0.18230690000E+008,  0.20001882777E+007,  0.19000000000E+002,  0.00000000000E+000,  0.10000000000E+001
  0.18230840000E+008,  0.20001962023E+007,  0.19000000000E+002,  0.00000000000E+000,  0.10000000000E+001
  0.18230990000E+008,  0.20002040266E+007,  0.19000000000E+002,  0.00000000000E+000,  0.10000000000E+001
  0.18231140000E+008,  0.20002117725E+007,  0.19000000000E+002,  0.00000000000E+000,  0.10000000000E+001
  0.18231290000E+008,  0.20002194574E+007,  0.19000000000E+002,  0.00000000000E+000,  0.10000000000E+001
  0.18231440000E+008,  0.20002270940E+007,  0.19000000000E+002,  0.00000000000E+000,  0.10000000000E+001
  0.18231590000E+008,  0.20002346926E+007,  0.19000000000E+002,  0.00000000000E+000,  0.10000000000E+001
  0.18231740000E+008,  0.20002422608E+007,  0.19000000000E+002,  0.00000000000E+000,  0.10000000000E+001
  0.18231890000E+008,  0.20002498048E+007,  0.19000000000E+002,  0.00000000000E+000,  0.10000000000E+001
  0.18232040000E+008,  0.20002573293E+007,  0.19000000000E+002,  0.00000000000E+000,  0.10000000000E+001
  0.18232190000E+008,  0.20002648378E+007,  0.19000000000E+002,  0.00000000000E+000,  0.10000000000E+001
  0.18232340000E+008,  0.20002723332E+007,  0.19000000000E+002,  0.00000000000E+000,  0.10000000000E+001
  0.18232490000E+008,  0.20002798179E+007,  0.19000000000E+002,  0.00000000000E+000,  0.10000000000E+001
  0.18232640000E+008,  0.20002872933E+007,  0.19000000000E+002,  0.00000000000E+000,  0.10000000000E+001
  0.18232790000E+008,  0.20002947610E+007,  0.19000000000E+002,  0.00000000000E+000,  0.10000000000E+001
  0.18232940000E+008,  0.20003022220E+007,  0.19000000000E+002,  0.00000000000E+000,  0.10000000000E+001
  0.18233090000E+008,  0.20003096771E+007,  0.19000000000E+002,  0.00000000000E+000,  0.10000000000E+001
  0.18233240000E+008,  0.20003171270E+007,  0.19000000000E+002,  0.00000000000E+000,  0.10000000000E+001
  0.18233390000E+008,  0.20003245722E+007,  0.19000000000E+002,  0.00000000000E+000,  0.10000000000E+001
  0.18233540000E+008,  0.20003320137E+007,  0.19000000000E+002,  0.00000000000E+000,  0.10000000000E+001
  0.18233690000E+008,  0.20003394526E+007,  0.19000000000E+002,  0.00000000000E+000,  0.10000000000E+001
  0.18233840000E+008,  0.20003468877E+007,  0.19000000000E+002,  0.00000000000E+000,  0.10000000000E+001
  0.18233990000E+008,  0.20003543205E+007,  0.19000000000E+002,  0.00000000000E+000,  0.10000000000E+001
  0.18234140000E+008,  0.20003617526E+007,  0.19000000000E+002,  0.00000000000E+000,  0.10000000000E+001
  0.18234290000E+008,  0.20003691819E+007,  0.19000000000E+002,  0.00000000000E+000,  0.10000000000E+001
  0.18234440000E+008,  0.20003766080E+007,  0.19000000000E+002,  0.00000000000E+000,  0.10000000000E+001
  0.18234590000E+008,  0.20003840310E+007,  0.19000000000E+002,  0.00000000000E+000,  0.10000000000E+001
  0.18234740000E+008,  0.20003914509E+007,  0.19000000000E+002,  0.00000000000E+000,  0.10000000000E+001
  0.18234890000E+008,  0.20003988677E+007,  0.19000000000E+002,  0.00000000000E+000,  0.10000000000E+001
  0.18235040000E+008,  0.20004062815E+007,  0.19000000000E+002,  0.00000000000E+000,  0.10000000000E+001
  0.18235190000E+008,  0.20004136923E+007,  0.19000000000E+002,  0.00000000000E+000,  0.10000000000E+001
  0.18235340000E+008,  0.20004211002E+007,  0.19000000000E+002,  0.00000000000E+000,  0.10000000000E+001
  0.18235490000E+008,  0.20004285051E+007,  0.19000000000E+002,  0.00000000000E+000,  0.10000000000E+001
  0.18235640000E+008,  0.20004424559E+007,  0.19000000000E+002,  0.00000000000E+000,  0.10000000000E+001
  0.18235715000E+008,  0.20004443433E+007,  0.19000000000E+002,  0.00000000000E+000,  0.10000000000E+001
  0.18235865000E+008,  0.20004439429E+007,  0.19000000000E+002,  0.00000000000E+000,  0.10000000000E+001
  0.18236015000E+008,  0.20004492858E+007,  0.19000000000E+002,  0.00000000000E+000,  0.10000000000E+001
  0.18236165000E+008,  0.20004561526E+007,  0.19000000000E+002,  0.00000000000E+000,  0.10000000000E+001
  0.18236315000E+008,  0.20004634054E+007,  0.19000000000E+002,  0.00000000000E+000,  0.10000000000E+001
  0.18236465000E+008,  0.20004707443E+007,  0.19000000000E+002,  0.00000000000E+000,  0.10000000000E+001
  0.18236615000E+008,  0.20004781020E+007,  0.19000000000E+002,  0.00000000000E+000,  0.10000000000E+001
  0.18236765000E+008,  0.20004854623E+007,  0.19000000000E+002,  0.00000000000E+000,  0.10000000000E+001
  0.18236915000E+008,  0.20004928215E+007,  0.19000000000E+002,  0.00000000000E+000,  0.10000000000E+001
  0.18237065000E+008,  0.20005001783E+007,  0.19000000000E+002,  0.00000000000E+000,  0.10000000000E+001
  0.18237215000E+008,  0.20005075326E+007,  0.19000000000E+002,  0.00000000000E+000,  0.10000000000E+001
  0.18237365000E+008,  0.20005148842E+007,  0.19000000000E+002,  0.00000000000E+000,  0.10000000000E+001
  0.18237515000E+008,  0.20005222333E+007,  0.19000000000E+002,  0.00000000000E+000,  0.10000000000E+001
  0.18237665000E+008,  0.20005295794E+007,  0.19000000000E+002,  0.00000000000E+000,  0.10000000000E+001
  0.18237815000E+008,  0.20005369229E+007,  0.19000000000E+002,  0.00000000000E+000,  0.10000000000E+001
  0.18237965000E+008,  0.20005442636E+007,  0.19000000000E+002,  0.00000000000E+000,  0.10000000000E+001
  0.18238115000E+008,  0.20005516016E+007,  0.19000000000E+002,  0.00000000000E+000,  0.10000000000E+001
  0.18238265000E+008,  0.20005589366E+007,  0.19000000000E+002,  0.00000000000E+000,  0.10000000000E+001
  0.18238415000E+008,  0.20005662688E+007,  0.19000000000E+002,  0.00000000000E+000,  0.10000000000E+001
  0.18238565000E+008,  0.20005735985E+007,  0.19000000000E+002,  0.00000000000E+000,  0.10000000000E+001
  0.18238715000E+008,  0.20005809253E+007,  0.19000000000E+002,  0.00000000000E+000,  0.10000000000E+001
  0.18238865000E+008,  0.20005882499E+007,  0.19000000000E+002,  0.00000000000E+000,  0.10000000000E+001
  0.18239015000E+008,  0.20005955718E+007,  0.19000000000E+002,  0.00000000000E+000,  0.10000000000E+001
  0.18239165000E+008,  0.20006028909E+007,  0.19000000000E+002,  0.00000000000E+000,  0.10000000000E+001
  0.18239315000E+008,  0.20006102072E+007,  0.19000000000E+002,  0.00000000000E+000,  0.10000000000E+001
  0.18239465000E+008,  0.20006175207E+007,  0.19000000000E+002,  0.00000000000E+000,  0.10000000000E+001
  0.18239615000E+008,  0.20006248311E+007,  0.19000000000E+002,  0.00000000000E+000,  0.10000000000E+001
  0.18239765000E+008,  0.20006321388E+007,  0.19000000000E+002,  0.00000000000E+000,  0.10000000000E+001
  0.18239915000E+008,  0.20006394437E+007,  0.19000000000E+002,  0.00000000000E+000,  0.10000000000E+001
  0.18240065000E+008,  0.20006467457E+007,  0.19000000000E+002,  0.00000000000E+000,  0.10000000000E+001
  0.18240215000E+008,  0.20006540452E+007,  0.19000000000E+002,  0.00000000000E+000,  0.10000000000E+001
  0.18240365000E+008,  0.20006613417E+007,  0.19000000000E+002,  0.00000000000E+000,  0.10000000000E+001
  0.18240515000E+008,  0.20006686354E+007,  0.19000000000E+002,  0.00000000000E+000,  0.10000000000E+001
  0.18240665000E+008,  0.20006759263E+007,  0.19000000000E+002,  0.00000000000E+000,  0.10000000000E+001
  0.18240815000E+008,  0.20006832149E+007,  0.19000000000E+002,  0.00000000000E+000,  0.10000000000E+001
  0.18240965000E+008,  0.20006905014E+007,  0.19000000000E+002,  0.00000000000E+000,  0.10000000000E+001
  0.18241115000E+008,  0.20006977852E+007,  0.19000000000E+002,  0.00000000000E+000,  0.10000000000E+001
  0.18241265000E+008,  0.20007050661E+007,  0.19000000000E+002,  0.00000000000E+000,  0.10000000000E+001
  0.18241415000E+008,  0.20007123441E+007,  0.19000000000E+002,  0.00000000000E+000,  0.10000000000E+001
  0.18241565000E+008,  0.20007196193E+007,  0.19000000000E+002,  0.00000000000E+000,  0.10000000000E+001
  0.18241715000E+008,  0.20007268913E+007,  0.19000000000E+002,  0.00000000000E+000,  0.10000000000E+001
  0.18241865000E+008,  0.20007341604E+007,  0.19000000000E+002,  0.00000000000E+000,  0.10000000000E+001
  0.18242015000E+008,  0.20007414266E+007,  0.19000000000E+002,  0.00000000000E+000,  0.10000000000E+001
  0.18242165000E+008,  0.20007486898E+007,  0.19000000000E+002,  0.00000000000E+000,  0.10000000000E+001
  0.18242315000E+008,  0.20007559502E+007,  0.19000000000E+002,  0.00000000000E+000,  0.10000000000E+001
  0.18242465000E+008,  0.20007632077E+007,  0.19000000000E+002,  0.00000000000E+000,  0.10000000000E+001
  0.18242615000E+008,  0.20007704622E+007,  0.19000000000E+002,  0.00000000000E+000,  0.10000000000E+001
  0.18242765000E+008,  0.20007777137E+007,  0.19000000000E+002,  0.00000000000E+000,  0.10000000000E+001
  0.18242915000E+008,  0.20007849624E+007,  0.19000000000E+002,  0.00000000000E+000,  0.10000000000E+001
  0.18243065000E+008,  0.20007922082E+007,  0.19000000000E+002,  0.00000000000E+000,  0.10000000000E+001
  0.18243215000E+008,  0.20007994509E+007,  0.19000000000E+002,  0.00000000000E+000,  0.10000000000E+001
  0.18243365000E+008,  0.20008066906E+007,  0.19000000000E+002,  0.00000000000E+000,  0.10000000000E+001
  0.18243515000E+008,  0.20008139145E+007,  0.19000000000E+002,  0.00000000000E+000,  0.10000000000E+001
  0.18243665000E+008,  0.20008211124E+007,  0.19000000000E+002,  0.00000000000E+000,  0.10000000000E+001
  0.18243815000E+008,  0.20008282943E+007,  0.19000000000E+002,  0.00000000000E+000,  0.10000000000E+001
  0.18243965000E+008,  0.20008354515E+007,  0.19000000000E+002,  0.00000000000E+000,  0.10000000000E+001
  0.18244115000E+008,  0.20008426025E+007,  0.19000000000E+002,  0.00000000000E+000,  0.10000000000E+001
  0.18244265000E+008,  0.20008497496E+007,  0.19000000000E+002,  0.00000000000E+000,  0.10000000000E+001
  0.18244415000E+008,  0.20008568935E+007,  0.19000000000E+002,  0.00000000000E+000,  0.10000000000E+001
  0.18244565000E+008,  0.20008640342E+007,  0.19000000000E+002,  0.00000000000E+000,  0.10000000000E+001
  0.18244715000E+008,  0.20008711719E+007,  0.19000000000E+002,  0.00000000000E+000,  0.10000000000E+001
  0.18244865000E+008,  0.20008783064E+007,  0.19000000000E+002,  0.00000000000E+000,  0.10000000000E+001
  0.18245015000E+008,  0.20008854384E+007,  0.19000000000E+002,  0.00000000000E+000,  0.10000000000E+001
  0.18245165000E+008,  0.20008925472E+007,  0.19000000000E+002,  0.00000000000E+000,  0.10000000000E+001
  0.18245315000E+008,  0.20008996302E+007,  0.19000000000E+002,  0.00000000000E+000,  0.10000000000E+001
  0.18245465000E+008,  0.20009067067E+007,  0.19000000000E+002,  0.00000000000E+000,  0.10000000000E+001
  0.18245615000E+008,  0.20009137792E+007,  0.19000000000E+002,  0.00000000000E+000,  0.10000000000E+001
  0.18245765000E+008,  0.20009208485E+007,  0.19000000000E+002,  0.00000000000E+000,  0.10000000000E+001
  0.18245915000E+008,  0.20009279146E+007,  0.19000000000E+002,  0.00000000000E+000,  0.10000000000E+001
  0.18246065000E+008,  0.20009349783E+007,  0.19000000000E+002,  0.00000000000E+000,  0.10000000000E+001
  0.18246215000E+008,  0.20009420392E+007,  0.19000000000E+002,  0.00000000000E+000,  0.10000000000E+001
  0.18246365000E+008,  0.20009490972E+007,  0.19000000000E+002,  0.00000000000E+000,  0.10000000000E+001
  0.18246515000E+008,  0.20009561523E+007,  0.19000000000E+002,  0.00000000000E+000,  0.10000000000E+001
  0.18246665000E+008,  0.20009632046E+007,  0.19000000000E+002,  0.00000000000E+000,  0.10000000000E+001
  0.18246815000E+008,  0.20009702540E+007,  0.19000000000E+002,  0.00000000000E+000,  0.10000000000E+001
  0.18246965000E+008,  0.20009773002E+007,  0.19000000000E+002,  0.00000000000E+000,  0.10000000000E+001
  0.18247115000E+008,  0.20009843431E+007,  0.19000000000E+002,  0.00000000000E+000,  0.10000000000E+001
  0.18247265000E+008,  0.20009913827E+007,  0.19000000000E+002,  0.00000000000E+000,  0.10000000000E+001
  0.18247415000E+008,  0.20009984189E+007,  0.19000000000E+002,  0.00000000000E+000,  0.10000000000E+001
  0.18247565000E+008,  0.20010054519E+007,  0.19000000000E+002,  0.00000000000E+000,  0.10000000000E+001
  0.18247715000E+008,  0.20010124813E+007,  0.19000000000E+002,  0.00000000000E+000,  0.10000000000E+001
  0.18247865000E+008,  0.20010195073E+007,  0.19000000000E+002,  0.00000000000E+000,  0.10000000000E+001
  0.18248015000E+008,  0.20010265300E+007,  0.19000000000E+002,  0.00000000000E+000,  0.10000000000E+001
  0.18248165000E+008,  0.20010335494E+007,  0.19000000000E+002,  0.00000000000E+000,  0.10000000000E+001
  0.18248315000E+008,  0.20010405654E+007,  0.19000000000E+002,  0.00000000000E+000,  0.10000000000E+001
  0.18248465000E+008,  0.20010475783E+007,  0.19000000000E+002,  0.00000000000E+000,  0.10000000000E+001
  0.18248615000E+008,  0.20010545880E+007,  0.19000000000E+002,  0.00000000000E+000,  0.10000000000E+001
  0.18248765000E+008,  0.20010615943E+007,  0.19000000000E+002,  0.00000000000E+000,  0.10000000000E+001
  0.18248915000E+008,  0.20010685974E+007,  0.19000000000E+002,  0.00000000000E+000,  0.10000000000E+001
  0.18249065000E+008,  0.20010755970E+007,  0.19000000000E+002,  0.00000000000E+000,  0.10000000000E+001
  0.18249215000E+008,  0.20010825932E+007,  0.19000000000E+002,  0.00000000000E+000,  0.10000000000E+001
  0.18249365000E+008,  0.20010895863E+007,  0.19000000000E+002,  0.00000000000E+000,  0.10000000000E+001
  0.18249515000E+008,  0.20010965759E+007,  0.19000000000E+002,  0.00000000000E+000,  0.10000000000E+001
  0.18249665000E+008,  0.20011035622E+007,  0.19000000000E+002,  0.00000000000E+000,  0.10000000000E+001
  0.18249815000E+008,  0.20011105447E+007,  0.19000000000E+002,  0.00000000000E+000,  0.10000000000E+001
  0.18249965000E+008,  0.20011175238E+007,  0.19000000000E+002,  0.00000000000E+000,  0.10000000000E+001
  0.18250115000E+008,  0.20011244995E+007,  0.19000000000E+002,  0.00000000000E+000,  0.10000000000E+001
  0.18250265000E+008,  0.20011314716E+007,  0.19000000000E+002,  0.00000000000E+000,  0.10000000000E+001
  0.18250415000E+008,  0.20011384403E+007,  0.19000000000E+002,  0.00000000000E+000,  0.10000000000E+001
  0.18250565000E+008,  0.20011484484E+007,  0.19000000000E+002,  0.00000000000E+000,  0.10000000000E+001
  0.18250640001E+008,  0.20011507136E+007,  0.19000000000E+002,  0.00000000000E+000,  0.10000000000E+001
  0.18250790001E+008,  0.20011553391E+007,  0.19000000000E+002,  0.00000000000E+000,  0.10000000000E+001
  0.18250940001E+008,  0.20011632598E+007,  0.19000000000E+002,  0.00000000000E+000,  0.10000000000E+001
  0.18251015001E+008,  0.20011662600E+007,  0.19000000000E+002,  0.00000000000E+000,  0.10000000000E+001
  0.18251165001E+008,  0.20011709209E+007,  0.19000000000E+002,  0.00000000000E+000,  0.10000000000E+001
  0.18251315001E+008,  0.20011768099E+007,  0.19000000000E+002,  0.00000000000E+000,  0.10000000000E+001
  0.18251465001E+008,  0.20011833155E+007,  0.19000000000E+002,  0.00000000000E+000,  0.10000000000E+001
  0.18251615001E+008,  0.20011900753E+007,  0.19000000000E+002,  0.00000000000E+000,  0.10000000000E+001
  0.18251765001E+008,  0.20011977019E+007,  0.19000000000E+002,  0.00000000000E+000,  0.10000000000E+001
  0.18251840002E+008,  0.20012046757E+007,  0.19000000000E+002,  0.00000000000E+000,  0.10000000000E+001
  0.18251990002E+008,  0.20012081141E+007,  0.19000000000E+002,  0.00000000000E+000,  0.10000000000E+001
  0.18252140002E+008,  0.20012131733E+007,  0.19000000000E+002,  0.00000000000E+000,  0.10000000000E+001
  0.18252290002E+008,  0.20012192068E+007,  0.19000000000E+002,  0.00000000000E+000,  0.10000000000E+001
  0.18252440002E+008,  0.20012257222E+007,  0.19000000000E+002,  0.00000000000E+000,  0.10000000000E+001
  0.18252590002E+008,  0.20012324475E+007,  0.19000000000E+002,  0.00000000000E+000,  0.10000000000E+001
  0.18252740002E+008,  0.20012392558E+007,  0.19000000000E+002,  0.00000000000E+000,  0.10000000000E+001
  0.18252890002E+008,  0.20012460952E+007,  0.19000000000E+002,  0.00000000000E+000,  0.10000000000E+001
  0.18253040002E+008,  0.20012529104E+007,  0.19000000000E+002,  0.00000000000E+000,  0.10000000000E+001
  0.18253190002E+008,  0.20012597137E+007,  0.19000000000E+002,  0.00000000000E+000,  0.10000000000E+001
  0.18253340002E+008,  0.20012665104E+007,  0.19000000000E+002,  0.00000000000E+000,  0.10000000000E+001
  0.18253490002E+008,  0.20012732783E+007,  0.19000000000E+002,  0.00000000000E+000,  0.10000000000E+001
  0.18253640002E+008,  0.20012800380E+007,  0.19000000000E+002,  0.00000000000E+000,  0.10000000000E+001
  0.18253790002E+008,  0.20012867722E+007,  0.19000000000E+002,  0.00000000000E+000,  0.10000000000E+001
  0.18253940002E+008,  0.20012934975E+007,  0.19000000000E+002,  0.00000000000E+000,  0.10000000000E+001
  0.18254090002E+008,  0.20013002165E+007,  0.19000000000E+002,  0.00000000000E+000,  0.10000000000E+001
  0.18254240002E+008,  0.20013069149E+007,  0.19000000000E+002,  0.00000000000E+000,  0.10000000000E+001
  0.18254390002E+008,  0.20013135763E+007,  0.19000000000E+002,  0.00000000000E+000,  0.10000000000E+001
  0.18254540002E+008,  0.20013202220E+007,  0.19000000000E+002,  0.00000000000E+000,  0.10000000000E+001
  0.18254690002E+008,  0.20013268590E+007,  0.19000000000E+002,  0.00000000000E+000,  0.10000000000E+001
  0.18254840002E+008,  0.20013334901E+007,  0.19000000000E+002,  0.00000000000E+000,  0.10000000000E+001
  0.18254990002E+008,  0.20013401168E+007,  0.19000000000E+002,  0.00000000000E+000,  0.10000000000E+001
  0.18255140002E+008,  0.20013467394E+007,  0.19000000000E+002,  0.00000000000E+000,  0.10000000000E+001
  0.18255290002E+008,  0.20013533582E+007,  0.19000000000E+002,  0.00000000000E+000,  0.10000000000E+001
  0.18255440002E+008,  0.20013599733E+007,  0.19000000000E+002,  0.00000000000E+000,  0.10000000000E+001
  0.18255590002E+008,  0.20013665849E+007,  0.19000000000E+002,  0.00000000000E+000,  0.10000000000E+001
  0.18255740002E+008,  0.20013731929E+007,  0.19000000000E+002,  0.00000000000E+000,  0.10000000000E+001
  0.18255890002E+008,  0.20013797973E+007,  0.19000000000E+002,  0.00000000000E+000,  0.10000000000E+001
  0.18256040002E+008,  0.20013863983E+007,  0.19000000000E+002,  0.00000000000E+000,  0.10000000000E+001
  0.18256190002E+008,  0.20013929958E+007,  0.19000000000E+002,  0.00000000000E+000,  0.10000000000E+001
  0.18256340002E+008,  0.20013995897E+007,  0.19000000000E+002,  0.00000000000E+000,  0.10000000000E+001
  0.18256490002E+008,  0.20014061805E+007,  0.19000000000E+002,  0.00000000000E+000,  0.10000000000E+001
  0.18256640002E+008,  0.20014127618E+007,  0.19000000000E+002,  0.00000000000E+000,  0.10000000000E+001
