"           TIME(S)","              PRES","              TEMP","             SAT_G","             SAT_L"
  0.17592105000E+008,  0.21000000000E+007,  0.19000000000E+002,  0.00000000000E+000,  0.10000000000E+001
  0.17592130000E+008,  0.21000000220E+007,  0.19000000000E+002,  0.00000000000E+000,  0.10000000000E+001
  0.17592255000E+008,  0.20999996623E+007,  0.19000000000E+002,  0.00000000000E+000,  0.10000000000E+001
  0.17592405000E+008,  0.20999893328E+007,  0.19000000000E+002,  0.00000000000E+000,  0.10000000000E+001
  0.17592555000E+008,  0.20999601609E+007,  0.19000000000E+002,  0.00000000000E+000,  0.10000000000E+001
  0.17592705000E+008,  0.20999072191E+007,  0.19000000000E+002,  0.00000000000E+000,  0.10000000000E+001
  0.17592855000E+008,  0.20998299836E+007,  0.19000000000E+002,  0.00000000000E+000,  0.10000000000E+001
  0.17593005000E+008,  0.20997304581E+007,  0.19000000000E+002,  0.00000000000E+000,  0.10000000000E+001
  0.17593155000E+008,  0.20996121637E+007,  0.19000000000E+002,  0.00000000000E+000,  0.10000000000E+001
  0.17593305000E+008,  0.20994788032E+007,  0.19000000000E+002,  0.00000000000E+000,  0.10000000000E+001
  0.17593455000E+008,  0.20993335741E+007,  0.19000000000E+002,  0.00000000000E+000,  0.10000000000E+001
  0.17593605000E+008,  0.20991790472E+007,  0.19000000000E+002,  0.00000000000E+000,  0.10000000000E+001
  0.17593755000E+008,  0.20990172277E+007,  0.19000000000E+002,  0.00000000000E+000,  0.10000000000E+001
  0.17593905000E+008,  0.20988496670E+007,  0.19000000000E+002,  0.00000000000E+000,  0.10000000000E+001
  0.17594055000E+008,  0.20986775776E+007,  0.19000000000E+002,  0.00000000000E+000,  0.10000000000E+001
  0.17594205000E+008,  0.20985019273E+007,  0.19000000000E+002,  0.00000000000E+000,  0.10000000000E+001
  0.17594355000E+008,  0.20983235099E+007,  0.19000000000E+002,  0.00000000000E+000,  0.10000000000E+001
  0.17594505000E+008,  0.20981429927E+007,  0.19000000000E+002,  0.00000000000E+000,  0.10000000000E+001
  0.17594655000E+008,  0.20979609489E+007,  0.19000000000E+002,  0.00000000000E+000,  0.10000000000E+001
  0.17594805000E+008,  0.20977778768E+007,  0.19000000000E+002,  0.00000000000E+000,  0.10000000000E+001
  0.17594955000E+008,  0.20975942136E+007,  0.19000000000E+002,  0.00000000000E+000,  0.10000000000E+001
  0.17595105000E+008,  0.20974103430E+007,  0.19000000000E+002,  0.00000000000E+000,  0.10000000000E+001
  0.17595255000E+008,  0.20972266023E+007,  0.19000000000E+002,  0.00000000000E+000,  0.10000000000E+001
  0.17595405000E+008,  0.20970432864E+007,  0.19000000000E+002,  0.00000000000E+000,  0.10000000000E+001
  0.17595407344E+008,  0.20970404222E+007,  0.19000000000E+002,  0.00000000000E+000,  0.10000000000E+001
  0.17595408809E+008,  0.20970386321E+007,  0.19000000000E+002,  0.00000000000E+000,  0.10000000000E+001
  0.17595409724E+008,  0.20970375134E+007,  0.19000000000E+002,  0.00000000000E+000,  0.10000000000E+001
  0.17595414302E+008,  0.20970319197E+007,  0.19000000000E+002,  0.00000000000E+000,  0.10000000000E+001
  0.17595414659E+008,  0.20970314827E+007,  0.19000000000E+002,  0.00000000000E+000,  0.10000000000E+001
  0.17595414883E+008,  0.20970312096E+007,  0.19000000000E+002,  0.00000000000E+000,  0.10000000000E+001
  0.17595415023E+008,  0.20970310389E+007,  0.19000000000E+002,  0.00000000000E+000,  0.10000000000E+001
  0.17595415110E+008,  0.20970309322E+007,  0.19000000000E+002,  0.00000000000E+000,  0.10000000000E+001
  0.17595415546E+008,  0.20970303988E+007,  0.19000000000E+002,  0.00000000000E+000,  0.10000000000E+001
  0.17595415547E+008,  0.20970303988E+007,  0.19000000000E+002,  0.00000000000E+000,  0.10000000000E+001
  0.17595415547E+008,  0.20970303988E+007,  0.19000000000E+002,  0.00000000000E+000,  0.10000000000E+001
  0.17595415548E+008,  0.20970303988E+007,  0.19000000000E+002,  0.00000000000E+000,  0.10000000000E+001
