"           TIME(S)","              PRES","              TEMP","             SAT_G","             SAT_L"
  0.50000000000E+000,  0.19999995696E+007,  0.19000000000E+002,  0.00000000000E+000,  0.10000000000E+001
  0.25000000000E+001,  0.19999981990E+007,  0.19000000000E+002,  0.00000000000E+000,  0.10000000000E+001
  0.45000000000E+001,  0.19999975253E+007,  0.19000000000E+002,  0.00000000000E+000,  0.10000000000E+001
  0.65000000000E+001,  0.19999972916E+007,  0.19000000000E+002,  0.00000000000E+000,  0.10000000000E+001
  0.85000000000E+001,  0.19999973216E+007,  0.19000000000E+002,  0.00000000000E+000,  0.10000000000E+001
  0.10500000000E+002,  0.19999975208E+007,  0.19000000000E+002,  0.00000000000E+000,  0.10000000000E+001
  0.12500000000E+002,  0.19999978379E+007,  0.19000000000E+002,  0.00000000000E+000,  0.10000000000E+001
  0.14500000000E+002,  0.19999982430E+007,  0.19000000000E+002,  0.00000000000E+000,  0.10000000000E+001
  0.16500000000E+002,  0.19999987172E+007,  0.19000000000E+002,  0.00000000000E+000,  0.10000000000E+001
  0.18500000000E+002,  0.19999992479E+007,  0.19000000000E+002,  0.00000000000E+000,  0.10000000000E+001
  0.20500000000E+002,  0.19999998266E+007,  0.19000000000E+002,  0.00000000000E+000,  0.10000000000E+001
  0.22500000000E+002,  0.20000004470E+007,  0.19000000000E+002,  0.00000000000E+000,  0.10000000000E+001
  0.24500000000E+002,  0.20000011045E+007,  0.19000000000E+002,  0.00000000000E+000,  0.10000000000E+001
  0.26500000000E+002,  0.20000017958E+007,  0.19000000000E+002,  0.00000000000E+000,  0.10000000000E+001
  0.28500000000E+002,  0.20000025180E+007,  0.19000000000E+002,  0.00000000000E+000,  0.10000000000E+001
  0.30500000000E+002,  0.20000032691E+007,  0.19000000000E+002,  0.00000000000E+000,  0.10000000000E+001
  0.32500000000E+002,  0.20000040472E+007,  0.19000000000E+002,  0.00000000000E+000,  0.10000000000E+001
  0.34500000000E+002,  0.20000048507E+007,  0.19000000000E+002,  0.00000000000E+000,  0.10000000000E+001
  0.36500000000E+002,  0.20000056782E+007,  0.19000000000E+002,  0.00000000000E+000,  0.10000000000E+001
  0.38500000000E+002,  0.20000065283E+007,  0.19000000000E+002,  0.00000000000E+000,  0.10000000000E+001
  0.40500000000E+002,  0.20000073995E+007,  0.19000000000E+002,  0.00000000000E+000,  0.10000000000E+001
  0.42500000000E+002,  0.20000082907E+007,  0.19000000000E+002,  0.00000000000E+000,  0.10000000000E+001
  0.44500000000E+002,  0.20000092005E+007,  0.19000000000E+002,  0.00000000000E+000,  0.10000000000E+001
  0.46500000000E+002,  0.20000101276E+007,  0.19000000000E+002,  0.00000000000E+000,  0.10000000000E+001
  0.48500000000E+002,  0.20000110708E+007,  0.19000000000E+002,  0.00000000000E+000,  0.10000000000E+001
  0.50500000000E+002,  0.20000120286E+007,  0.19000000000E+002,  0.00000000000E+000,  0.10000000000E+001
  0.52500000000E+002,  0.20000129999E+007,  0.19000000000E+002,  0.00000000000E+000,  0.10000000000E+001
  0.54500000000E+002,  0.20000139836E+007,  0.19000000000E+002,  0.00000000000E+000,  0.10000000000E+001
  0.56500000000E+002,  0.20000149784E+007,  0.19000000000E+002,  0.00000000000E+000,  0.10000000000E+001
  0.58500000000E+002,  0.20000159835E+007,  0.19000000000E+002,  0.00000000000E+000,  0.10000000000E+001
  0.60500000000E+002,  0.20000169978E+007,  0.19000000000E+002,  0.00000000000E+000,  0.10000000000E+001
  0.62500000000E+002,  0.20000180205E+007,  0.19000000000E+002,  0.00000000000E+000,  0.10000000000E+001
  0.64500000000E+002,  0.20000190508E+007,  0.19000000000E+002,  0.00000000000E+000,  0.10000000000E+001
  0.66500000000E+002,  0.20000200880E+007,  0.19000000000E+002,  0.00000000000E+000,  0.10000000000E+001
  0.68500000000E+002,  0.20000211313E+007,  0.19000000000E+002,  0.00000000000E+000,  0.10000000000E+001
  0.70500000000E+002,  0.20000221800E+007,  0.19000000000E+002,  0.00000000000E+000,  0.10000000000E+001
  0.72500000000E+002,  0.20000232339E+007,  0.19000000000E+002,  0.00000000000E+000,  0.10000000000E+001
  0.74500000000E+002,  0.20000242927E+007,  0.19000000000E+002,  0.00000000000E+000,  0.10000000000E+001
  0.76500000000E+002,  0.20000253555E+007,  0.19000000000E+002,  0.00000000000E+000,  0.10000000000E+001
  0.78500000000E+002,  0.20000264218E+007,  0.19000000000E+002,  0.00000000000E+000,  0.10000000000E+001
  0.80500000000E+002,  0.20000274910E+007,  0.19000000000E+002,  0.00000000000E+000,  0.10000000000E+001
  0.82500000000E+002,  0.20000285632E+007,  0.19000000000E+002,  0.00000000000E+000,  0.10000000000E+001
  0.84500000000E+002,  0.20000296388E+007,  0.19000000000E+002,  0.00000000000E+000,  0.10000000000E+001
  0.86500000000E+002,  0.20000307166E+007,  0.19000000000E+002,  0.00000000000E+000,  0.10000000000E+001
  0.88500000000E+002,  0.20000317971E+007,  0.19000000000E+002,  0.00000000000E+000,  0.10000000000E+001
  0.90500000000E+002,  0.20000328789E+007,  0.19000000000E+002,  0.00000000000E+000,  0.10000000000E+001
  0.92500000000E+002,  0.20000339660E+007,  0.19000000000E+002,  0.00000000000E+000,  0.10000000000E+001
  0.94500000000E+002,  0.20000350535E+007,  0.19000000000E+002,  0.00000000000E+000,  0.10000000000E+001
  0.96500000000E+002,  0.20000361410E+007,  0.19000000000E+002,  0.00000000000E+000,  0.10000000000E+001
  0.98500000000E+002,  0.20000372282E+007,  0.19000000000E+002,  0.00000000000E+000,  0.10000000000E+001
  0.10050000000E+003,  0.20000383152E+007,  0.19000000000E+002,  0.00000000000E+000,  0.10000000000E+001
  0.10250000000E+003,  0.20000394018E+007,  0.19000000000E+002,  0.00000000000E+000,  0.10000000000E+001
  0.10450000000E+003,  0.20000404879E+007,  0.19000000000E+002,  0.00000000000E+000,  0.10000000000E+001
  0.10650000000E+003,  0.20000415735E+007,  0.19000000000E+002,  0.00000000000E+000,  0.10000000000E+001
  0.10850000000E+003,  0.20000426587E+007,  0.19000000000E+002,  0.00000000000E+000,  0.10000000000E+001
  0.11050000000E+003,  0.20000437432E+007,  0.19000000000E+002,  0.00000000000E+000,  0.10000000000E+001
  0.11250000000E+003,  0.20000448272E+007,  0.19000000000E+002,  0.00000000000E+000,  0.10000000000E+001
  0.11450000000E+003,  0.20000459107E+007,  0.19000000000E+002,  0.00000000000E+000,  0.10000000000E+001
  0.11650000000E+003,  0.20000469936E+007,  0.19000000000E+002,  0.00000000000E+000,  0.10000000000E+001
  0.11850000000E+003,  0.20000480759E+007,  0.19000000000E+002,  0.00000000000E+000,  0.10000000000E+001
  0.12050000000E+003,  0.20000491576E+007,  0.19000000000E+002,  0.00000000000E+000,  0.10000000000E+001
  0.12250000000E+003,  0.20000502388E+007,  0.19000000000E+002,  0.00000000000E+000,  0.10000000000E+001
  0.12450000000E+003,  0.20000513195E+007,  0.19000000000E+002,  0.00000000000E+000,  0.10000000000E+001
  0.12650000000E+003,  0.20000523997E+007,  0.19000000000E+002,  0.00000000000E+000,  0.10000000000E+001
  0.12850000000E+003,  0.20000534794E+007,  0.19000000000E+002,  0.00000000000E+000,  0.10000000000E+001
  0.13050000000E+003,  0.20000545586E+007,  0.19000000000E+002,  0.00000000000E+000,  0.10000000000E+001
  0.13250000000E+003,  0.20000556374E+007,  0.19000000000E+002,  0.00000000000E+000,  0.10000000000E+001
  0.13450000000E+003,  0.20000567157E+007,  0.19000000000E+002,  0.00000000000E+000,  0.10000000000E+001
  0.13650000000E+003,  0.20000577937E+007,  0.19000000000E+002,  0.00000000000E+000,  0.10000000000E+001
  0.13850000000E+003,  0.20000588712E+007,  0.19000000000E+002,  0.00000000000E+000,  0.10000000000E+001
  0.14050000000E+003,  0.20000599484E+007,  0.19000000000E+002,  0.00000000000E+000,  0.10000000000E+001
  0.14250000000E+003,  0.20000610253E+007,  0.19000000000E+002,  0.00000000000E+000,  0.10000000000E+001
  0.14450000000E+003,  0.20000621018E+007,  0.19000000000E+002,  0.00000000000E+000,  0.10000000000E+001
  0.14650000000E+003,  0.20000631780E+007,  0.19000000000E+002,  0.00000000000E+000,  0.10000000000E+001
  0.14850000000E+003,  0.20000642539E+007,  0.19000000000E+002,  0.00000000000E+000,  0.10000000000E+001
  0.15050000000E+003,  0.20000653296E+007,  0.19000000000E+002,  0.00000000000E+000,  0.10000000000E+001
  0.15250000000E+003,  0.20000664050E+007,  0.19000000000E+002,  0.00000000000E+000,  0.10000000000E+001
  0.15450000000E+003,  0.20000674801E+007,  0.19000000000E+002,  0.00000000000E+000,  0.10000000000E+001
  0.15650000000E+003,  0.20000685551E+007,  0.19000000000E+002,  0.00000000000E+000,  0.10000000000E+001
  0.15850000000E+003,  0.20000696298E+007,  0.19000000000E+002,  0.00000000000E+000,  0.10000000000E+001
  0.16050000000E+003,  0.20000707043E+007,  0.19000000000E+002,  0.00000000000E+000,  0.10000000000E+001
  0.16250000000E+003,  0.20000717786E+007,  0.19000000000E+002,  0.00000000000E+000,  0.10000000000E+001
  0.16450000000E+003,  0.20000728528E+007,  0.19000000000E+002,  0.00000000000E+000,  0.10000000000E+001
  0.16650000000E+003,  0.20000739267E+007,  0.19000000000E+002,  0.00000000000E+000,  0.10000000000E+001
  0.16850000000E+003,  0.20000750006E+007,  0.19000000000E+002,  0.00000000000E+000,  0.10000000000E+001
  0.17050000000E+003,  0.20000760743E+007,  0.19000000000E+002,  0.00000000000E+000,  0.10000000000E+001
  0.17250000000E+003,  0.20000771478E+007,  0.19000000000E+002,  0.00000000000E+000,  0.10000000000E+001
  0.17450000000E+003,  0.20000782212E+007,  0.19000000000E+002,  0.00000000000E+000,  0.10000000000E+001
  0.17650000000E+003,  0.20000792944E+007,  0.19000000000E+002,  0.00000000000E+000,  0.10000000000E+001
  0.17850000000E+003,  0.20000803676E+007,  0.19000000000E+002,  0.00000000000E+000,  0.10000000000E+001
  0.18050000000E+003,  0.20000814406E+007,  0.19000000000E+002,  0.00000000000E+000,  0.10000000000E+001
  0.18250000000E+003,  0.20000825135E+007,  0.19000000000E+002,  0.00000000000E+000,  0.10000000000E+001
  0.18450000000E+003,  0.20000835863E+007,  0.19000000000E+002,  0.00000000000E+000,  0.10000000000E+001
  0.18650000000E+003,  0.20000846590E+007,  0.19000000000E+002,  0.00000000000E+000,  0.10000000000E+001
  0.18850000000E+003,  0.20000857316E+007,  0.19000000000E+002,  0.00000000000E+000,  0.10000000000E+001
  0.19050000000E+003,  0.20000868041E+007,  0.19000000000E+002,  0.00000000000E+000,  0.10000000000E+001
  0.19250000000E+003,  0.20000878764E+007,  0.19000000000E+002,  0.00000000000E+000,  0.10000000000E+001
  0.19450000000E+003,  0.20000889487E+007,  0.19000000000E+002,  0.00000000000E+000,  0.10000000000E+001
  0.19650000000E+003,  0.20000900208E+007,  0.19000000000E+002,  0.00000000000E+000,  0.10000000000E+001
  0.19850000000E+003,  0.20000910928E+007,  0.19000000000E+002,  0.00000000000E+000,  0.10000000000E+001
  0.20050000000E+003,  0.20000921647E+007,  0.19000000000E+002,  0.00000000000E+000,  0.10000000000E+001
  0.20250000000E+003,  0.20000932365E+007,  0.19000000000E+002,  0.00000000000E+000,  0.10000000000E+001
  0.20450000000E+003,  0.20000943082E+007,  0.19000000000E+002,  0.00000000000E+000,  0.10000000000E+001
  0.20650000000E+003,  0.20000953797E+007,  0.19000000000E+002,  0.00000000000E+000,  0.10000000000E+001
  0.20850000000E+003,  0.20000964511E+007,  0.19000000000E+002,  0.00000000000E+000,  0.10000000000E+001
  0.21050000000E+003,  0.20000975224E+007,  0.19000000000E+002,  0.00000000000E+000,  0.10000000000E+001
  0.21250000000E+003,  0.20000985935E+007,  0.19000000000E+002,  0.00000000000E+000,  0.10000000000E+001
  0.21450000000E+003,  0.20000996645E+007,  0.19000000000E+002,  0.00000000000E+000,  0.10000000000E+001
  0.21650000000E+003,  0.20001007354E+007,  0.19000000000E+002,  0.00000000000E+000,  0.10000000000E+001
  0.21850000000E+003,  0.20001018061E+007,  0.19000000000E+002,  0.00000000000E+000,  0.10000000000E+001
  0.22050000000E+003,  0.20001028766E+007,  0.19000000000E+002,  0.00000000000E+000,  0.10000000000E+001
  0.22250000000E+003,  0.20001039470E+007,  0.19000000000E+002,  0.00000000000E+000,  0.10000000000E+001
  0.22450000000E+003,  0.20001050172E+007,  0.19000000000E+002,  0.00000000000E+000,  0.10000000000E+001
  0.22650000000E+003,  0.20001060873E+007,  0.19000000000E+002,  0.00000000000E+000,  0.10000000000E+001
  0.22850000000E+003,  0.20001071571E+007,  0.19000000000E+002,  0.00000000000E+000,  0.10000000000E+001
  0.23050000000E+003,  0.20001082268E+007,  0.19000000000E+002,  0.00000000000E+000,  0.10000000000E+001
  0.23250000000E+003,  0.20001092963E+007,  0.19000000000E+002,  0.00000000000E+000,  0.10000000000E+001
  0.23450000000E+003,  0.20001103656E+007,  0.19000000000E+002,  0.00000000000E+000,  0.10000000000E+001
  0.23650000000E+003,  0.20001114347E+007,  0.19000000000E+002,  0.00000000000E+000,  0.10000000000E+001
  0.23850000000E+003,  0.20001125036E+007,  0.19000000000E+002,  0.00000000000E+000,  0.10000000000E+001
  0.24050000000E+003,  0.20001135722E+007,  0.19000000000E+002,  0.00000000000E+000,  0.10000000000E+001
  0.24250000000E+003,  0.20001146407E+007,  0.19000000000E+002,  0.00000000000E+000,  0.10000000000E+001
  0.24450000000E+003,  0.20001157089E+007,  0.19000000000E+002,  0.00000000000E+000,  0.10000000000E+001
  0.24650000000E+003,  0.20001167769E+007,  0.19000000000E+002,  0.00000000000E+000,  0.10000000000E+001
  0.24850000000E+003,  0.20001178446E+007,  0.19000000000E+002,  0.00000000000E+000,  0.10000000000E+001
  0.25050000000E+003,  0.20001189121E+007,  0.19000000000E+002,  0.00000000000E+000,  0.10000000000E+001
  0.25250000000E+003,  0.20001199793E+007,  0.19000000000E+002,  0.00000000000E+000,  0.10000000000E+001
  0.25450000000E+003,  0.20001210463E+007,  0.19000000000E+002,  0.00000000000E+000,  0.10000000000E+001
  0.25650000000E+003,  0.20001221130E+007,  0.19000000000E+002,  0.00000000000E+000,  0.10000000000E+001
  0.25850000000E+003,  0.20001231794E+007,  0.19000000000E+002,  0.00000000000E+000,  0.10000000000E+001
  0.26050000000E+003,  0.20001242455E+007,  0.19000000000E+002,  0.00000000000E+000,  0.10000000000E+001
  0.26250000000E+003,  0.20001253113E+007,  0.19000000000E+002,  0.00000000000E+000,  0.10000000000E+001
  0.26450000000E+003,  0.20001263769E+007,  0.19000000000E+002,  0.00000000000E+000,  0.10000000000E+001
  0.26650000000E+003,  0.20001274421E+007,  0.19000000000E+002,  0.00000000000E+000,  0.10000000000E+001
  0.26850000000E+003,  0.20001285070E+007,  0.19000000000E+002,  0.00000000000E+000,  0.10000000000E+001
  0.27050000000E+003,  0.20001295717E+007,  0.19000000000E+002,  0.00000000000E+000,  0.10000000000E+001
  0.27250000000E+003,  0.20001306359E+007,  0.19000000000E+002,  0.00000000000E+000,  0.10000000000E+001
  0.27450000000E+003,  0.20001316999E+007,  0.19000000000E+002,  0.00000000000E+000,  0.10000000000E+001
  0.27650000000E+003,  0.20001327635E+007,  0.19000000000E+002,  0.00000000000E+000,  0.10000000000E+001
  0.27850000000E+003,  0.20001338268E+007,  0.19000000000E+002,  0.00000000000E+000,  0.10000000000E+001
  0.28050000000E+003,  0.20001348897E+007,  0.19000000000E+002,  0.00000000000E+000,  0.10000000000E+001
  0.28250000000E+003,  0.20001359523E+007,  0.19000000000E+002,  0.00000000000E+000,  0.10000000000E+001
  0.28450000000E+003,  0.20001370145E+007,  0.19000000000E+002,  0.00000000000E+000,  0.10000000000E+001
  0.28650000000E+003,  0.20001380764E+007,  0.19000000000E+002,  0.00000000000E+000,  0.10000000000E+001
  0.28850000000E+003,  0.20001391379E+007,  0.19000000000E+002,  0.00000000000E+000,  0.10000000000E+001
  0.29050000000E+003,  0.20001401990E+007,  0.19000000000E+002,  0.00000000000E+000,  0.10000000000E+001
  0.29250000000E+003,  0.20001412597E+007,  0.19000000000E+002,  0.00000000000E+000,  0.10000000000E+001
  0.29450000000E+003,  0.20001423200E+007,  0.19000000000E+002,  0.00000000000E+000,  0.10000000000E+001
  0.29650000000E+003,  0.20001433799E+007,  0.19000000000E+002,  0.00000000000E+000,  0.10000000000E+001
  0.29850000000E+003,  0.20001444395E+007,  0.19000000000E+002,  0.00000000000E+000,  0.10000000000E+001
  0.30050000000E+003,  0.20001454986E+007,  0.19000000000E+002,  0.00000000000E+000,  0.10000000000E+001
  0.30250000000E+003,  0.20001465573E+007,  0.19000000000E+002,  0.00000000000E+000,  0.10000000000E+001
  0.30450000000E+003,  0.20001476156E+007,  0.19000000000E+002,  0.00000000000E+000,  0.10000000000E+001
  0.30650000000E+003,  0.20001486734E+007,  0.19000000000E+002,  0.00000000000E+000,  0.10000000000E+001
  0.30850000000E+003,  0.20001497309E+007,  0.19000000000E+002,  0.00000000000E+000,  0.10000000000E+001
  0.31050000000E+003,  0.20001507879E+007,  0.19000000000E+002,  0.00000000000E+000,  0.10000000000E+001
  0.31250000000E+003,  0.20001518444E+007,  0.19000000000E+002,  0.00000000000E+000,  0.10000000000E+001
  0.31450000000E+003,  0.20001529005E+007,  0.19000000000E+002,  0.00000000000E+000,  0.10000000000E+001
  0.31650000000E+003,  0.20001539562E+007,  0.19000000000E+002,  0.00000000000E+000,  0.10000000000E+001
  0.31850000000E+003,  0.20001550114E+007,  0.19000000000E+002,  0.00000000000E+000,  0.10000000000E+001
  0.32050000000E+003,  0.20001560662E+007,  0.19000000000E+002,  0.00000000000E+000,  0.10000000000E+001
  0.32250000000E+003,  0.20001571204E+007,  0.19000000000E+002,  0.00000000000E+000,  0.10000000000E+001
  0.32450000000E+003,  0.20001581743E+007,  0.19000000000E+002,  0.00000000000E+000,  0.10000000000E+001
  0.32650000000E+003,  0.20001592276E+007,  0.19000000000E+002,  0.00000000000E+000,  0.10000000000E+001
  0.32850000000E+003,  0.20001602805E+007,  0.19000000000E+002,  0.00000000000E+000,  0.10000000000E+001
  0.33050000000E+003,  0.20001613329E+007,  0.19000000000E+002,  0.00000000000E+000,  0.10000000000E+001
  0.33250000000E+003,  0.20001623848E+007,  0.19000000000E+002,  0.00000000000E+000,  0.10000000000E+001
  0.33450000000E+003,  0.20001634362E+007,  0.19000000000E+002,  0.00000000000E+000,  0.10000000000E+001
  0.33650000000E+003,  0.20001644871E+007,  0.19000000000E+002,  0.00000000000E+000,  0.10000000000E+001
  0.33850000000E+003,  0.20001655375E+007,  0.19000000000E+002,  0.00000000000E+000,  0.10000000000E+001
  0.34050000000E+003,  0.20001665874E+007,  0.19000000000E+002,  0.00000000000E+000,  0.10000000000E+001
  0.34250000000E+003,  0.20001676368E+007,  0.19000000000E+002,  0.00000000000E+000,  0.10000000000E+001
  0.34450000000E+003,  0.20001686856E+007,  0.19000000000E+002,  0.00000000000E+000,  0.10000000000E+001
  0.34650000000E+003,  0.20001697340E+007,  0.19000000000E+002,  0.00000000000E+000,  0.10000000000E+001
  0.34850000000E+003,  0.20001707819E+007,  0.19000000000E+002,  0.00000000000E+000,  0.10000000000E+001
  0.35050000000E+003,  0.20001718292E+007,  0.19000000000E+002,  0.00000000000E+000,  0.10000000000E+001
  0.35250000000E+003,  0.20001728760E+007,  0.19000000000E+002,  0.00000000000E+000,  0.10000000000E+001
  0.35450000000E+003,  0.20001739223E+007,  0.19000000000E+002,  0.00000000000E+000,  0.10000000000E+001
  0.35650000000E+003,  0.20001749680E+007,  0.19000000000E+002,  0.00000000000E+000,  0.10000000000E+001
  0.35850000000E+003,  0.20001760132E+007,  0.19000000000E+002,  0.00000000000E+000,  0.10000000000E+001
  0.36050000000E+003,  0.20001770578E+007,  0.19000000000E+002,  0.00000000000E+000,  0.10000000000E+001
  0.36250000000E+003,  0.20001781019E+007,  0.19000000000E+002,  0.00000000000E+000,  0.10000000000E+001
  0.36450000000E+003,  0.20001791455E+007,  0.19000000000E+002,  0.00000000000E+000,  0.10000000000E+001
  0.36650000000E+003,  0.20001801885E+007,  0.19000000000E+002,  0.00000000000E+000,  0.10000000000E+001
  0.36850000000E+003,  0.20001812309E+007,  0.19000000000E+002,  0.00000000000E+000,  0.10000000000E+001
  0.37050000000E+003,  0.20001822728E+007,  0.19000000000E+002,  0.00000000000E+000,  0.10000000000E+001
  0.37250000000E+003,  0.20001833142E+007,  0.19000000000E+002,  0.00000000000E+000,  0.10000000000E+001
  0.37450000000E+003,  0.20001843549E+007,  0.19000000000E+002,  0.00000000000E+000,  0.10000000000E+001
  0.37650000000E+003,  0.20001853951E+007,  0.19000000000E+002,  0.00000000000E+000,  0.10000000000E+001
