"           TIME(S)","              PRES","              TEMP","             SAT_G","             SAT_L"
  0.17592105000E+008,  0.20999998470E+007,  0.19000000000E+002,  0.00000000000E+000,  0.10000000000E+001
  0.17592130000E+008,  0.20998704094E+007,  0.19000000000E+002,  0.00000000000E+000,  0.10000000000E+001
  0.17592255000E+008,  0.20962074506E+007,  0.19000000000E+002,  0.00000000000E+000,  0.10000000000E+001
  0.17592405000E+008,  0.20914531992E+007,  0.19000000000E+002,  0.00000000000E+000,  0.10000000000E+001
  0.17592555000E+008,  0.20876169732E+007,  0.19000000000E+002,  0.00000000000E+000,  0.10000000000E+001
  0.17592705000E+008,  0.20847215275E+007,  0.19000000000E+002,  0.00000000000E+000,  0.10000000000E+001
  0.17592855000E+008,  0.20825248090E+007,  0.19000000000E+002,  0.00000000000E+000,  0.10000000000E+001
  0.17593005000E+008,  0.20808073427E+007,  0.19000000000E+002,  0.00000000000E+000,  0.10000000000E+001
  0.17593155000E+008,  0.20794147689E+007,  0.19000000000E+002,  0.00000000000E+000,  0.10000000000E+001
  0.17593305000E+008,  0.20782452806E+007,  0.19000000000E+002,  0.00000000000E+000,  0.10000000000E+001
  0.17593455000E+008,  0.20772324473E+007,  0.19000000000E+002,  0.00000000000E+000,  0.10000000000E+001
  0.17593605000E+008,  0.20763325885E+007,  0.19000000000E+002,  0.00000000000E+000,  0.10000000000E+001
  0.17593755000E+008,  0.20755165732E+007,  0.19000000000E+002,  0.00000000000E+000,  0.10000000000E+001
  0.17593905000E+008,  0.20747646498E+007,  0.19000000000E+002,  0.00000000000E+000,  0.10000000000E+001
  0.17594055000E+008,  0.20740631860E+007,  0.19000000000E+002,  0.00000000000E+000,  0.10000000000E+001
  0.17594205000E+008,  0.20734025943E+007,  0.19000000000E+002,  0.00000000000E+000,  0.10000000000E+001
  0.17594355000E+008,  0.20727759954E+007,  0.19000000000E+002,  0.00000000000E+000,  0.10000000000E+001
  0.17594505000E+008,  0.20721783481E+007,  0.19000000000E+002,  0.00000000000E+000,  0.10000000000E+001
  0.17594655000E+008,  0.20716058749E+007,  0.19000000000E+002,  0.00000000000E+000,  0.10000000000E+001
  0.17594805000E+008,  0.20710556810E+007,  0.19000000000E+002,  0.00000000000E+000,  0.10000000000E+001
  0.17594955000E+008,  0.20705254969E+007,  0.19000000000E+002,  0.00000000000E+000,  0.10000000000E+001
  0.17595105000E+008,  0.20700135039E+007,  0.19000000000E+002,  0.00000000000E+000,  0.10000000000E+001
  0.17595255000E+008,  0.20695182141E+007,  0.19000000000E+002,  0.00000000000E+000,  0.10000000000E+001
  0.17595405000E+008,  0.20690383873E+007,  0.19000000000E+002,  0.00000000000E+000,  0.10000000000E+001
  0.17595555000E+008,  0.20685729757E+007,  0.19000000000E+002,  0.00000000000E+000,  0.10000000000E+001
  0.17595564375E+008,  0.20685439436E+007,  0.19000000000E+002,  0.00000000000E+000,  0.10000000000E+001
  0.17595611250E+008,  0.20684001534E+007,  0.19000000000E+002,  0.00000000000E+000,  0.10000000000E+001
  0.17595761250E+008,  0.20679532271E+007,  0.19000000000E+002,  0.00000000000E+000,  0.10000000000E+001
  0.17595836251E+008,  0.20677329645E+007,  0.19000000000E+002,  0.00000000000E+000,  0.10000000000E+001
  0.17595986251E+008,  0.20673045488E+007,  0.19000000000E+002,  0.00000000000E+000,  0.10000000000E+001
  0.17596061251E+008,  0.20670932835E+007,  0.19000000000E+002,  0.00000000000E+000,  0.10000000000E+001
  0.17596098752E+008,  0.20669883759E+007,  0.19000000000E+002,  0.00000000000E+000,  0.10000000000E+001
  0.17596248752E+008,  0.20665797558E+007,  0.19000000000E+002,  0.00000000000E+000,  0.10000000000E+001
  0.17596398752E+008,  0.20661815685E+007,  0.19000000000E+002,  0.00000000000E+000,  0.10000000000E+001
  0.17596473752E+008,  0.20659850126E+007,  0.19000000000E+002,  0.00000000000E+000,  0.10000000000E+001
  0.17596511253E+008,  0.20658873603E+007,  0.19000000000E+002,  0.00000000000E+000,  0.10000000000E+001
  0.17596661253E+008,  0.20655062574E+007,  0.19000000000E+002,  0.00000000000E+000,  0.10000000000E+001
  0.17596736253E+008,  0.20653180169E+007,  0.19000000000E+002,  0.00000000000E+000,  0.10000000000E+001
  0.17596773754E+008,  0.20652244662E+007,  0.19000000000E+002,  0.00000000000E+000,  0.10000000000E+001
  0.17596923754E+008,  0.20648588994E+007,  0.19000000000E+002,  0.00000000000E+000,  0.10000000000E+001
  0.17596998754E+008,  0.20646782119E+007,  0.19000000000E+002,  0.00000000000E+000,  0.10000000000E+001
  0.17597036254E+008,  0.20645883843E+007,  0.19000000000E+002,  0.00000000000E+000,  0.10000000000E+001
  0.17597055005E+008,  0.20645435986E+007,  0.19000000000E+002,  0.00000000000E+000,  0.10000000000E+001
  0.17597148757E+008,  0.20643227555E+007,  0.19000000000E+002,  0.00000000000E+000,  0.10000000000E+001
  0.17597298757E+008,  0.20639768331E+007,  0.19000000000E+002,  0.00000000000E+000,  0.10000000000E+001
  0.17597448757E+008,  0.20636378733E+007,  0.19000000000E+002,  0.00000000000E+000,  0.10000000000E+001
  0.17597598757E+008,  0.20633054578E+007,  0.19000000000E+002,  0.00000000000E+000,  0.10000000000E+001
  0.17597748757E+008,  0.20629792136E+007,  0.19000000000E+002,  0.00000000000E+000,  0.10000000000E+001
  0.17597898757E+008,  0.20626588160E+007,  0.19000000000E+002,  0.00000000000E+000,  0.10000000000E+001
  0.17598048757E+008,  0.20623439855E+007,  0.19000000000E+002,  0.00000000000E+000,  0.10000000000E+001
  0.17598198757E+008,  0.20620344844E+007,  0.19000000000E+002,  0.00000000000E+000,  0.10000000000E+001
  0.17598348757E+008,  0.20617301108E+007,  0.19000000000E+002,  0.00000000000E+000,  0.10000000000E+001
  0.17598498757E+008,  0.20614306936E+007,  0.19000000000E+002,  0.00000000000E+000,  0.10000000000E+001
  0.17598648757E+008,  0.20611360864E+007,  0.19000000000E+002,  0.00000000000E+000,  0.10000000000E+001
  0.17598798757E+008,  0.20608461634E+007,  0.19000000000E+002,  0.00000000000E+000,  0.10000000000E+001
  0.17598948757E+008,  0.20605608151E+007,  0.19000000000E+002,  0.00000000000E+000,  0.10000000000E+001
  0.17599098757E+008,  0.20602799448E+007,  0.19000000000E+002,  0.00000000000E+000,  0.10000000000E+001
  0.17599248757E+008,  0.20600034664E+007,  0.19000000000E+002,  0.00000000000E+000,  0.10000000000E+001
  0.17599398757E+008,  0.20597313019E+007,  0.19000000000E+002,  0.00000000000E+000,  0.10000000000E+001
  0.17599548757E+008,  0.20594633800E+007,  0.19000000000E+002,  0.00000000000E+000,  0.10000000000E+001
  0.17599698757E+008,  0.20591996344E+007,  0.19000000000E+002,  0.00000000000E+000,  0.10000000000E+001
  0.17599848757E+008,  0.20589400033E+007,  0.19000000000E+002,  0.00000000000E+000,  0.10000000000E+001
  0.17599998757E+008,  0.20586844280E+007,  0.19000000000E+002,  0.00000000000E+000,  0.10000000000E+001
  0.17600148757E+008,  0.20584328525E+007,  0.19000000000E+002,  0.00000000000E+000,  0.10000000000E+001
  0.17600298757E+008,  0.20581852233E+007,  0.19000000000E+002,  0.00000000000E+000,  0.10000000000E+001
  0.17600448757E+008,  0.20579414882E+007,  0.19000000000E+002,  0.00000000000E+000,  0.10000000000E+001
  0.17600598757E+008,  0.20577015967E+007,  0.19000000000E+002,  0.00000000000E+000,  0.10000000000E+001
  0.17600748757E+008,  0.20574654994E+007,  0.19000000000E+002,  0.00000000000E+000,  0.10000000000E+001
  0.17600898757E+008,  0.20572331475E+007,  0.19000000000E+002,  0.00000000000E+000,  0.10000000000E+001
  0.17601048757E+008,  0.20570044933E+007,  0.19000000000E+002,  0.00000000000E+000,  0.10000000000E+001
  0.17601198757E+008,  0.20567794894E+007,  0.19000000000E+002,  0.00000000000E+000,  0.10000000000E+001
  0.17601348757E+008,  0.20565580888E+007,  0.19000000000E+002,  0.00000000000E+000,  0.10000000000E+001
  0.17601498757E+008,  0.20563402451E+007,  0.19000000000E+002,  0.00000000000E+000,  0.10000000000E+001
  0.17601648757E+008,  0.20561259119E+007,  0.19000000000E+002,  0.00000000000E+000,  0.10000000000E+001
  0.17601798757E+008,  0.20559150431E+007,  0.19000000000E+002,  0.00000000000E+000,  0.10000000000E+001
  0.17601948757E+008,  0.20557075929E+007,  0.19000000000E+002,  0.00000000000E+000,  0.10000000000E+001
  0.17602098757E+008,  0.20555035153E+007,  0.19000000000E+002,  0.00000000000E+000,  0.10000000000E+001
  0.17602248757E+008,  0.20553027649E+007,  0.19000000000E+002,  0.00000000000E+000,  0.10000000000E+001
  0.17602398757E+008,  0.20551052960E+007,  0.19000000000E+002,  0.00000000000E+000,  0.10000000000E+001
  0.17602548757E+008,  0.20549110633E+007,  0.19000000000E+002,  0.00000000000E+000,  0.10000000000E+001
  0.17602698757E+008,  0.20547200215E+007,  0.19000000000E+002,  0.00000000000E+000,  0.10000000000E+001
  0.17602848757E+008,  0.20545321256E+007,  0.19000000000E+002,  0.00000000000E+000,  0.10000000000E+001
  0.17602998757E+008,  0.20543473306E+007,  0.19000000000E+002,  0.00000000000E+000,  0.10000000000E+001
  0.17603148757E+008,  0.20541655918E+007,  0.19000000000E+002,  0.00000000000E+000,  0.10000000000E+001
  0.17603298757E+008,  0.20539868646E+007,  0.19000000000E+002,  0.00000000000E+000,  0.10000000000E+001
  0.17603448757E+008,  0.20538111048E+007,  0.19000000000E+002,  0.00000000000E+000,  0.10000000000E+001
  0.17603598757E+008,  0.20536382683E+007,  0.19000000000E+002,  0.00000000000E+000,  0.10000000000E+001
  0.17603748757E+008,  0.20534683114E+007,  0.19000000000E+002,  0.00000000000E+000,  0.10000000000E+001
  0.17603898757E+008,  0.20533011905E+007,  0.19000000000E+002,  0.00000000000E+000,  0.10000000000E+001
  0.17604048757E+008,  0.20531368625E+007,  0.19000000000E+002,  0.00000000000E+000,  0.10000000000E+001
  0.17604198757E+008,  0.20529752847E+007,  0.19000000000E+002,  0.00000000000E+000,  0.10000000000E+001
  0.17604348757E+008,  0.20528164145E+007,  0.19000000000E+002,  0.00000000000E+000,  0.10000000000E+001
  0.17604498757E+008,  0.20526602099E+007,  0.19000000000E+002,  0.00000000000E+000,  0.10000000000E+001
  0.17604648757E+008,  0.20525066293E+007,  0.19000000000E+002,  0.00000000000E+000,  0.10000000000E+001
  0.17604798757E+008,  0.20523556313E+007,  0.19000000000E+002,  0.00000000000E+000,  0.10000000000E+001
  0.17604948757E+008,  0.20522071752E+007,  0.19000000000E+002,  0.00000000000E+000,  0.10000000000E+001
  0.17605098757E+008,  0.20520612205E+007,  0.19000000000E+002,  0.00000000000E+000,  0.10000000000E+001
  0.17605248757E+008,  0.20519177274E+007,  0.19000000000E+002,  0.00000000000E+000,  0.10000000000E+001
  0.17605398757E+008,  0.20517766563E+007,  0.19000000000E+002,  0.00000000000E+000,  0.10000000000E+001
  0.17605548757E+008,  0.20516379682E+007,  0.19000000000E+002,  0.00000000000E+000,  0.10000000000E+001
  0.17605698757E+008,  0.20515016247E+007,  0.19000000000E+002,  0.00000000000E+000,  0.10000000000E+001
  0.17605848757E+008,  0.20513675877E+007,  0.19000000000E+002,  0.00000000000E+000,  0.10000000000E+001
  0.17605998757E+008,  0.20512358196E+007,  0.19000000000E+002,  0.00000000000E+000,  0.10000000000E+001
  0.17606148757E+008,  0.20511062834E+007,  0.19000000000E+002,  0.00000000000E+000,  0.10000000000E+001
  0.17606298757E+008,  0.20509789425E+007,  0.19000000000E+002,  0.00000000000E+000,  0.10000000000E+001
  0.17606448757E+008,  0.20508537608E+007,  0.19000000000E+002,  0.00000000000E+000,  0.10000000000E+001
  0.17606598757E+008,  0.20507307029E+007,  0.19000000000E+002,  0.00000000000E+000,  0.10000000000E+001
  0.17606748757E+008,  0.20506097336E+007,  0.19000000000E+002,  0.00000000000E+000,  0.10000000000E+001
  0.17606898757E+008,  0.20504908185E+007,  0.19000000000E+002,  0.00000000000E+000,  0.10000000000E+001
  0.17607048757E+008,  0.20503739233E+007,  0.19000000000E+002,  0.00000000000E+000,  0.10000000000E+001
  0.17607198757E+008,  0.20502590147E+007,  0.19000000000E+002,  0.00000000000E+000,  0.10000000000E+001
  0.17607348757E+008,  0.20501460596E+007,  0.19000000000E+002,  0.00000000000E+000,  0.10000000000E+001
  0.17607498757E+008,  0.20500350253E+007,  0.19000000000E+002,  0.00000000000E+000,  0.10000000000E+001
  0.17607648757E+008,  0.20499258798E+007,  0.19000000000E+002,  0.00000000000E+000,  0.10000000000E+001
  0.17607798757E+008,  0.20498185916E+007,  0.19000000000E+002,  0.00000000000E+000,  0.10000000000E+001
  0.17607948757E+008,  0.20497131295E+007,  0.19000000000E+002,  0.00000000000E+000,  0.10000000000E+001
  0.17608098757E+008,  0.20496094630E+007,  0.19000000000E+002,  0.00000000000E+000,  0.10000000000E+001
  0.17608248757E+008,  0.20495075619E+007,  0.19000000000E+002,  0.00000000000E+000,  0.10000000000E+001
  0.17608398757E+008,  0.20494073966E+007,  0.19000000000E+002,  0.00000000000E+000,  0.10000000000E+001
  0.17608548757E+008,  0.20493089378E+007,  0.19000000000E+002,  0.00000000000E+000,  0.10000000000E+001
  0.17608698757E+008,  0.20492121568E+007,  0.19000000000E+002,  0.00000000000E+000,  0.10000000000E+001
  0.17608848757E+008,  0.20491170254E+007,  0.19000000000E+002,  0.00000000000E+000,  0.10000000000E+001
  0.17608998757E+008,  0.20490235157E+007,  0.19000000000E+002,  0.00000000000E+000,  0.10000000000E+001
  0.17609148757E+008,  0.20489316004E+007,  0.19000000000E+002,  0.00000000000E+000,  0.10000000000E+001
  0.17609298757E+008,  0.20488412525E+007,  0.19000000000E+002,  0.00000000000E+000,  0.10000000000E+001
  0.17609448757E+008,  0.20487524456E+007,  0.19000000000E+002,  0.00000000000E+000,  0.10000000000E+001
  0.17609598757E+008,  0.20486651535E+007,  0.19000000000E+002,  0.00000000000E+000,  0.10000000000E+001
  0.17609748757E+008,  0.20485793507E+007,  0.19000000000E+002,  0.00000000000E+000,  0.10000000000E+001
  0.17609898757E+008,  0.20484950119E+007,  0.19000000000E+002,  0.00000000000E+000,  0.10000000000E+001
  0.17610048757E+008,  0.20484121123E+007,  0.19000000000E+002,  0.00000000000E+000,  0.10000000000E+001
  0.17610198757E+008,  0.20483306275E+007,  0.19000000000E+002,  0.00000000000E+000,  0.10000000000E+001
  0.17610348757E+008,  0.20482505335E+007,  0.19000000000E+002,  0.00000000000E+000,  0.10000000000E+001
  0.17610498757E+008,  0.20481718067E+007,  0.19000000000E+002,  0.00000000000E+000,  0.10000000000E+001
  0.17610648757E+008,  0.20480944239E+007,  0.19000000000E+002,  0.00000000000E+000,  0.10000000000E+001
  0.17610798757E+008,  0.20480183623E+007,  0.19000000000E+002,  0.00000000000E+000,  0.10000000000E+001
  0.17610948757E+008,  0.20479435995E+007,  0.19000000000E+002,  0.00000000000E+000,  0.10000000000E+001
  0.17611098757E+008,  0.20478701132E+007,  0.19000000000E+002,  0.00000000000E+000,  0.10000000000E+001
  0.17611248757E+008,  0.20477978819E+007,  0.19000000000E+002,  0.00000000000E+000,  0.10000000000E+001
  0.17611398757E+008,  0.20477268842E+007,  0.19000000000E+002,  0.00000000000E+000,  0.10000000000E+001
  0.17611548757E+008,  0.20476570992E+007,  0.19000000000E+002,  0.00000000000E+000,  0.10000000000E+001
  0.17611698757E+008,  0.20475885060E+007,  0.19000000000E+002,  0.00000000000E+000,  0.10000000000E+001
  0.17611848757E+008,  0.20475210846E+007,  0.19000000000E+002,  0.00000000000E+000,  0.10000000000E+001
  0.17611998757E+008,  0.20474548149E+007,  0.19000000000E+002,  0.00000000000E+000,  0.10000000000E+001
  0.17612148757E+008,  0.20473896773E+007,  0.19000000000E+002,  0.00000000000E+000,  0.10000000000E+001
  0.17612298757E+008,  0.20473256524E+007,  0.19000000000E+002,  0.00000000000E+000,  0.10000000000E+001
  0.17612448757E+008,  0.20472627215E+007,  0.19000000000E+002,  0.00000000000E+000,  0.10000000000E+001
  0.17612598757E+008,  0.20472008657E+007,  0.19000000000E+002,  0.00000000000E+000,  0.10000000000E+001
  0.17612748757E+008,  0.20471400668E+007,  0.19000000000E+002,  0.00000000000E+000,  0.10000000000E+001
  0.17612898757E+008,  0.20470803068E+007,  0.19000000000E+002,  0.00000000000E+000,  0.10000000000E+001
  0.17613048757E+008,  0.20470215679E+007,  0.19000000000E+002,  0.00000000000E+000,  0.10000000000E+001
  0.17613198757E+008,  0.20469638327E+007,  0.19000000000E+002,  0.00000000000E+000,  0.10000000000E+001
  0.17613348757E+008,  0.20469070841E+007,  0.19000000000E+002,  0.00000000000E+000,  0.10000000000E+001
  0.17613498757E+008,  0.20468513052E+007,  0.19000000000E+002,  0.00000000000E+000,  0.10000000000E+001
  0.17613648757E+008,  0.20467964795E+007,  0.19000000000E+002,  0.00000000000E+000,  0.10000000000E+001
  0.17613798757E+008,  0.20467425907E+007,  0.19000000000E+002,  0.00000000000E+000,  0.10000000000E+001
  0.17613948757E+008,  0.20466896228E+007,  0.19000000000E+002,  0.00000000000E+000,  0.10000000000E+001
  0.17614098757E+008,  0.20466375601E+007,  0.19000000000E+002,  0.00000000000E+000,  0.10000000000E+001
  0.17614248757E+008,  0.20465863872E+007,  0.19000000000E+002,  0.00000000000E+000,  0.10000000000E+001
  0.17614398757E+008,  0.20465360887E+007,  0.19000000000E+002,  0.00000000000E+000,  0.10000000000E+001
  0.17614548757E+008,  0.20464866499E+007,  0.19000000000E+002,  0.00000000000E+000,  0.10000000000E+001
  0.17614698757E+008,  0.20464380559E+007,  0.19000000000E+002,  0.00000000000E+000,  0.10000000000E+001
  0.17614848757E+008,  0.20463902924E+007,  0.19000000000E+002,  0.00000000000E+000,  0.10000000000E+001
  0.17614998757E+008,  0.20463433452E+007,  0.19000000000E+002,  0.00000000000E+000,  0.10000000000E+001
  0.17615148757E+008,  0.20462972003E+007,  0.19000000000E+002,  0.00000000000E+000,  0.10000000000E+001
  0.17615298757E+008,  0.20462518440E+007,  0.19000000000E+002,  0.00000000000E+000,  0.10000000000E+001
  0.17615448757E+008,  0.20462072628E+007,  0.19000000000E+002,  0.00000000000E+000,  0.10000000000E+001
  0.17615598757E+008,  0.20461634434E+007,  0.19000000000E+002,  0.00000000000E+000,  0.10000000000E+001
  0.17615748757E+008,  0.20461203729E+007,  0.19000000000E+002,  0.00000000000E+000,  0.10000000000E+001
  0.17615898757E+008,  0.20460780384E+007,  0.19000000000E+002,  0.00000000000E+000,  0.10000000000E+001
  0.17616048757E+008,  0.20460364274E+007,  0.19000000000E+002,  0.00000000000E+000,  0.10000000000E+001
  0.17616198757E+008,  0.20459955274E+007,  0.19000000000E+002,  0.00000000000E+000,  0.10000000000E+001
  0.17616348757E+008,  0.20459553262E+007,  0.19000000000E+002,  0.00000000000E+000,  0.10000000000E+001
  0.17616498757E+008,  0.20459158121E+007,  0.19000000000E+002,  0.00000000000E+000,  0.10000000000E+001
  0.17616648757E+008,  0.20458769730E+007,  0.19000000000E+002,  0.00000000000E+000,  0.10000000000E+001
  0.17616798757E+008,  0.20458387977E+007,  0.19000000000E+002,  0.00000000000E+000,  0.10000000000E+001
  0.17616948757E+008,  0.20458012746E+007,  0.19000000000E+002,  0.00000000000E+000,  0.10000000000E+001
  0.17617098757E+008,  0.20457643930E+007,  0.19000000000E+002,  0.00000000000E+000,  0.10000000000E+001
  0.17617248757E+008,  0.20457281409E+007,  0.19000000000E+002,  0.00000000000E+000,  0.10000000000E+001
  0.17617398757E+008,  0.20456925087E+007,  0.19000000000E+002,  0.00000000000E+000,  0.10000000000E+001
  0.17617548757E+008,  0.20456574847E+007,  0.19000000000E+002,  0.00000000000E+000,  0.10000000000E+001
  0.17617698757E+008,  0.20456230595E+007,  0.19000000000E+002,  0.00000000000E+000,  0.10000000000E+001
  0.17617848757E+008,  0.20455892219E+007,  0.19000000000E+002,  0.00000000000E+000,  0.10000000000E+001
  0.17617998757E+008,  0.20455559628E+007,  0.19000000000E+002,  0.00000000000E+000,  0.10000000000E+001
  0.17618148757E+008,  0.20455232713E+007,  0.19000000000E+002,  0.00000000000E+000,  0.10000000000E+001
  0.17618298757E+008,  0.20454911387E+007,  0.19000000000E+002,  0.00000000000E+000,  0.10000000000E+001
  0.17618448757E+008,  0.20454595543E+007,  0.19000000000E+002,  0.00000000000E+000,  0.10000000000E+001
  0.17618598757E+008,  0.20454285098E+007,  0.19000000000E+002,  0.00000000000E+000,  0.10000000000E+001
  0.17618748757E+008,  0.20453979951E+007,  0.19000000000E+002,  0.00000000000E+000,  0.10000000000E+001
  0.17618898757E+008,  0.20453680019E+007,  0.19000000000E+002,  0.00000000000E+000,  0.10000000000E+001
