"           TIME(S)","              PRES","              TEMP","             SAT_G","             SAT_L"
  0.50000000000E+000,  0.20000026799E+007,  0.19000000000E+002,  0.10000000000E+001,  0.00000000000E+000
  0.25000000000E+001,  0.20000089312E+007,  0.19000000000E+002,  0.10000000000E+001,  0.00000000000E+000
  0.45000000000E+001,  0.20000141242E+007,  0.19000000000E+002,  0.10000000000E+001,  0.00000000000E+000
  0.65000000000E+001,  0.20000189238E+007,  0.19000000000E+002,  0.10000000000E+001,  0.00000000000E+000
  0.85000000000E+001,  0.20000235041E+007,  0.19000000000E+002,  0.10000000000E+001,  0.00000000000E+000
  0.10500000000E+002,  0.20000279294E+007,  0.19000000000E+002,  0.10000000000E+001,  0.00000000000E+000
  0.12500000000E+002,  0.20000322321E+007,  0.19000000000E+002,  0.10000000000E+001,  0.00000000000E+000
  0.14500000000E+002,  0.20000364309E+007,  0.19000000000E+002,  0.10000000000E+001,  0.00000000000E+000
  0.16500000000E+002,  0.20000405385E+007,  0.19000000000E+002,  0.10000000000E+001,  0.00000000000E+000
  0.18500000000E+002,  0.20000445645E+007,  0.19000000000E+002,  0.10000000000E+001,  0.00000000000E+000
  0.20500000000E+002,  0.20000485164E+007,  0.19000000000E+002,  0.10000000000E+001,  0.00000000000E+000
  0.22500000000E+002,  0.20000524004E+007,  0.19000000000E+002,  0.10000000000E+001,  0.00000000000E+000
  0.24500000000E+002,  0.20000562219E+007,  0.19000000000E+002,  0.10000000000E+001,  0.00000000000E+000
  0.26500000000E+002,  0.20000599858E+007,  0.19000000000E+002,  0.10000000000E+001,  0.00000000000E+000
  0.28500000000E+002,  0.20000636961E+007,  0.19000000000E+002,  0.10000000000E+001,  0.00000000000E+000
  0.30500000000E+002,  0.20000673569E+007,  0.19000000000E+002,  0.10000000000E+001,  0.00000000000E+000
  0.32500000000E+002,  0.20000709716E+007,  0.19000000000E+002,  0.10000000000E+001,  0.00000000000E+000
  0.34500000000E+002,  0.20000745434E+007,  0.19000000000E+002,  0.10000000000E+001,  0.00000000000E+000
  0.36500000000E+002,  0.20000780753E+007,  0.19000000000E+002,  0.10000000000E+001,  0.00000000000E+000
  0.38500000000E+002,  0.20000815698E+007,  0.19000000000E+002,  0.10000000000E+001,  0.00000000000E+000
  0.40500000000E+002,  0.20000850294E+007,  0.19000000000E+002,  0.10000000000E+001,  0.00000000000E+000
  0.42500000000E+002,  0.20000884561E+007,  0.19000000000E+002,  0.10000000000E+001,  0.00000000000E+000
  0.44500000000E+002,  0.20000918518E+007,  0.19000000000E+002,  0.10000000000E+001,  0.00000000000E+000
  0.46500000000E+002,  0.20000952182E+007,  0.19000000000E+002,  0.10000000000E+001,  0.00000000000E+000
  0.48500000000E+002,  0.20000985566E+007,  0.19000000000E+002,  0.10000000000E+001,  0.00000000000E+000
  0.50500000000E+002,  0.20001018684E+007,  0.19000000000E+002,  0.10000000000E+001,  0.00000000000E+000
  0.52500000000E+002,  0.20001051544E+007,  0.19000000000E+002,  0.10000000000E+001,  0.00000000000E+000
  0.54500000000E+002,  0.20001084156E+007,  0.19000000000E+002,  0.10000000000E+001,  0.00000000000E+000
  0.56500000000E+002,  0.20001116527E+007,  0.19000000000E+002,  0.10000000000E+001,  0.00000000000E+000
  0.58500000000E+002,  0.20001148662E+007,  0.19000000000E+002,  0.10000000000E+001,  0.00000000000E+000
  0.60500000000E+002,  0.20001180567E+007,  0.19000000000E+002,  0.10000000000E+001,  0.00000000000E+000
  0.62500000000E+002,  0.20001212244E+007,  0.19000000000E+002,  0.10000000000E+001,  0.00000000000E+000
  0.64500000000E+002,  0.20001243697E+007,  0.19000000000E+002,  0.10000000000E+001,  0.00000000000E+000
  0.66500000000E+002,  0.20001274926E+007,  0.19000000000E+002,  0.10000000000E+001,  0.00000000000E+000
  0.68500000000E+002,  0.20001305935E+007,  0.19000000000E+002,  0.10000000000E+001,  0.00000000000E+000
  0.70500000000E+002,  0.20001336723E+007,  0.19000000000E+002,  0.10000000000E+001,  0.00000000000E+000
  0.72500000000E+002,  0.20001367290E+007,  0.19000000000E+002,  0.10000000000E+001,  0.00000000000E+000
  0.74500000000E+002,  0.20001397637E+007,  0.19000000000E+002,  0.10000000000E+001,  0.00000000000E+000
  0.76500000000E+002,  0.20001427764E+007,  0.19000000000E+002,  0.10000000000E+001,  0.00000000000E+000
  0.78500000000E+002,  0.20001457670E+007,  0.19000000000E+002,  0.10000000000E+001,  0.00000000000E+000
  0.80500000000E+002,  0.20001487355E+007,  0.19000000000E+002,  0.10000000000E+001,  0.00000000000E+000
  0.82500000000E+002,  0.20001516818E+007,  0.19000000000E+002,  0.10000000000E+001,  0.00000000000E+000
  0.84500000000E+002,  0.20001546059E+007,  0.19000000000E+002,  0.10000000000E+001,  0.00000000000E+000
  0.86500000000E+002,  0.20001575077E+007,  0.19000000000E+002,  0.10000000000E+001,  0.00000000000E+000
  0.88500000000E+002,  0.20001603873E+007,  0.19000000000E+002,  0.10000000000E+001,  0.00000000000E+000
  0.90500000000E+002,  0.20001632445E+007,  0.19000000000E+002,  0.10000000000E+001,  0.00000000000E+000
  0.92500000000E+002,  0.20001660795E+007,  0.19000000000E+002,  0.10000000000E+001,  0.00000000000E+000
  0.94500000000E+002,  0.20001688920E+007,  0.19000000000E+002,  0.10000000000E+001,  0.00000000000E+000
  0.96500000000E+002,  0.20001716823E+007,  0.19000000000E+002,  0.10000000000E+001,  0.00000000000E+000
  0.98500000000E+002,  0.20001744502E+007,  0.19000000000E+002,  0.10000000000E+001,  0.00000000000E+000
  0.10050000000E+003,  0.20001771959E+007,  0.19000000000E+002,  0.10000000000E+001,  0.00000000000E+000
  0.10250000000E+003,  0.20001799194E+007,  0.19000000000E+002,  0.10000000000E+001,  0.00000000000E+000
  0.10450000000E+003,  0.20001826207E+007,  0.19000000000E+002,  0.10000000000E+001,  0.00000000000E+000
  0.10650000000E+003,  0.20001853000E+007,  0.19000000000E+002,  0.10000000000E+001,  0.00000000000E+000
  0.10850000000E+003,  0.20001879573E+007,  0.19000000000E+002,  0.10000000000E+001,  0.00000000000E+000
  0.11050000000E+003,  0.20001905928E+007,  0.19000000000E+002,  0.10000000000E+001,  0.00000000000E+000
  0.11250000000E+003,  0.20001932066E+007,  0.19000000000E+002,  0.10000000000E+001,  0.00000000000E+000
  0.11450000000E+003,  0.20001957989E+007,  0.19000000000E+002,  0.10000000000E+001,  0.00000000000E+000
  0.11650000000E+003,  0.20001983697E+007,  0.19000000000E+002,  0.10000000000E+001,  0.00000000000E+000
  0.11850000000E+003,  0.20002009192E+007,  0.19000000000E+002,  0.10000000000E+001,  0.00000000000E+000
  0.12050000000E+003,  0.20002034477E+007,  0.19000000000E+002,  0.10000000000E+001,  0.00000000000E+000
  0.12250000000E+003,  0.20002059553E+007,  0.19000000000E+002,  0.10000000000E+001,  0.00000000000E+000
  0.12450000000E+003,  0.20002084423E+007,  0.19000000000E+002,  0.10000000000E+001,  0.00000000000E+000
  0.12650000000E+003,  0.20002109087E+007,  0.19000000000E+002,  0.10000000000E+001,  0.00000000000E+000
  0.12850000000E+003,  0.20002133549E+007,  0.19000000000E+002,  0.10000000000E+001,  0.00000000000E+000
  0.13050000000E+003,  0.20002157810E+007,  0.19000000000E+002,  0.10000000000E+001,  0.00000000000E+000
  0.13250000000E+003,  0.20002181872E+007,  0.19000000000E+002,  0.10000000000E+001,  0.00000000000E+000
  0.13450000000E+003,  0.20002205739E+007,  0.19000000000E+002,  0.10000000000E+001,  0.00000000000E+000
  0.13650000000E+003,  0.20002229412E+007,  0.19000000000E+002,  0.10000000000E+001,  0.00000000000E+000
  0.13850000000E+003,  0.20002252894E+007,  0.19000000000E+002,  0.10000000000E+001,  0.00000000000E+000
  0.14050000000E+003,  0.20002276188E+007,  0.19000000000E+002,  0.10000000000E+001,  0.00000000000E+000
  0.14250000000E+003,  0.20002299294E+007,  0.19000000000E+002,  0.10000000000E+001,  0.00000000000E+000
  0.14450000000E+003,  0.20002322218E+007,  0.19000000000E+002,  0.10000000000E+001,  0.00000000000E+000
  0.14650000000E+003,  0.20002344960E+007,  0.19000000000E+002,  0.10000000000E+001,  0.00000000000E+000
  0.14850000000E+003,  0.20002367523E+007,  0.19000000000E+002,  0.10000000000E+001,  0.00000000000E+000
  0.15050000000E+003,  0.20002389910E+007,  0.19000000000E+002,  0.10000000000E+001,  0.00000000000E+000
  0.15250000000E+003,  0.20002412123E+007,  0.19000000000E+002,  0.10000000000E+001,  0.00000000000E+000
  0.15450000000E+003,  0.20002434165E+007,  0.19000000000E+002,  0.10000000000E+001,  0.00000000000E+000
  0.15650000000E+003,  0.20002456039E+007,  0.19000000000E+002,  0.10000000000E+001,  0.00000000000E+000
  0.15850000000E+003,  0.20002477747E+007,  0.19000000000E+002,  0.10000000000E+001,  0.00000000000E+000
  0.16050000000E+003,  0.20002499292E+007,  0.19000000000E+002,  0.10000000000E+001,  0.00000000000E+000
  0.16250000000E+003,  0.20002520676E+007,  0.19000000000E+002,  0.10000000000E+001,  0.00000000000E+000
  0.16450000000E+003,  0.20002541902E+007,  0.19000000000E+002,  0.10000000000E+001,  0.00000000000E+000
  0.16650000000E+003,  0.20002562972E+007,  0.19000000000E+002,  0.10000000000E+001,  0.00000000000E+000
  0.16850000000E+003,  0.20002583888E+007,  0.19000000000E+002,  0.10000000000E+001,  0.00000000000E+000
  0.17050000000E+003,  0.20002604654E+007,  0.19000000000E+002,  0.10000000000E+001,  0.00000000000E+000
  0.17250000000E+003,  0.20002625271E+007,  0.19000000000E+002,  0.10000000000E+001,  0.00000000000E+000
  0.17450000000E+003,  0.20002645743E+007,  0.19000000000E+002,  0.10000000000E+001,  0.00000000000E+000
  0.17650000000E+003,  0.20002666071E+007,  0.19000000000E+002,  0.10000000000E+001,  0.00000000000E+000
  0.17850000000E+003,  0.20002686258E+007,  0.19000000000E+002,  0.10000000000E+001,  0.00000000000E+000
  0.18050000000E+003,  0.20002706307E+007,  0.19000000000E+002,  0.10000000000E+001,  0.00000000000E+000
  0.18250000000E+003,  0.20002726219E+007,  0.19000000000E+002,  0.10000000000E+001,  0.00000000000E+000
  0.18450000000E+003,  0.20002745996E+007,  0.19000000000E+002,  0.10000000000E+001,  0.00000000000E+000
  0.18650000000E+003,  0.20002765643E+007,  0.19000000000E+002,  0.10000000000E+001,  0.00000000000E+000
  0.18850000000E+003,  0.20002785159E+007,  0.19000000000E+002,  0.10000000000E+001,  0.00000000000E+000
  0.19050000000E+003,  0.20002804548E+007,  0.19000000000E+002,  0.10000000000E+001,  0.00000000000E+000
  0.19250000000E+003,  0.20002823812E+007,  0.19000000000E+002,  0.10000000000E+001,  0.00000000000E+000
  0.19450000000E+003,  0.20002842953E+007,  0.19000000000E+002,  0.10000000000E+001,  0.00000000000E+000
  0.19650000000E+003,  0.20002861972E+007,  0.19000000000E+002,  0.10000000000E+001,  0.00000000000E+000
  0.19850000000E+003,  0.20002880873E+007,  0.19000000000E+002,  0.10000000000E+001,  0.00000000000E+000
  0.20050000000E+003,  0.20002899658E+007,  0.19000000000E+002,  0.10000000000E+001,  0.00000000000E+000
  0.20250000000E+003,  0.20002918327E+007,  0.19000000000E+002,  0.10000000000E+001,  0.00000000000E+000
  0.20450000000E+003,  0.20002936883E+007,  0.19000000000E+002,  0.10000000000E+001,  0.00000000000E+000
  0.20650000000E+003,  0.20002955329E+007,  0.19000000000E+002,  0.10000000000E+001,  0.00000000000E+000
  0.20850000000E+003,  0.20002973665E+007,  0.19000000000E+002,  0.10000000000E+001,  0.00000000000E+000
  0.21050000000E+003,  0.20002991895E+007,  0.19000000000E+002,  0.10000000000E+001,  0.00000000000E+000
  0.21250000000E+003,  0.20003010019E+007,  0.19000000000E+002,  0.10000000000E+001,  0.00000000000E+000
  0.21450000000E+003,  0.20003028040E+007,  0.19000000000E+002,  0.10000000000E+001,  0.00000000000E+000
  0.21650000000E+003,  0.20003045959E+007,  0.19000000000E+002,  0.10000000000E+001,  0.00000000000E+000
  0.21850000000E+003,  0.20003063778E+007,  0.19000000000E+002,  0.10000000000E+001,  0.00000000000E+000
  0.22050000000E+003,  0.20003081499E+007,  0.19000000000E+002,  0.10000000000E+001,  0.00000000000E+000
  0.22250000000E+003,  0.20003099123E+007,  0.19000000000E+002,  0.10000000000E+001,  0.00000000000E+000
  0.22450000000E+003,  0.20003116652E+007,  0.19000000000E+002,  0.10000000000E+001,  0.00000000000E+000
  0.22650000000E+003,  0.20003134089E+007,  0.19000000000E+002,  0.10000000000E+001,  0.00000000000E+000
  0.22850000000E+003,  0.20003151433E+007,  0.19000000000E+002,  0.10000000000E+001,  0.00000000000E+000
  0.23050000000E+003,  0.20003168687E+007,  0.19000000000E+002,  0.10000000000E+001,  0.00000000000E+000
  0.23250000000E+003,  0.20003181505E+007,  0.19000000000E+002,  0.10000000000E+001,  0.00000000000E+000
  0.23450000000E+003,  0.20003194643E+007,  0.19000000000E+002,  0.10000000000E+001,  0.00000000000E+000
  0.23650000000E+003,  0.20003208229E+007,  0.19000000000E+002,  0.10000000000E+001,  0.00000000000E+000
  0.23850000000E+003,  0.20003218835E+007,  0.19000000000E+002,  0.10000000000E+001,  0.00000000000E+000
  0.24050000000E+003,  0.20003228615E+007,  0.19000000000E+002,  0.10000000000E+001,  0.00000000000E+000
  0.24250000000E+003,  0.20003239111E+007,  0.19000000000E+002,  0.10000000000E+001,  0.00000000000E+000
  0.24450000000E+003,  0.20003250164E+007,  0.19000000000E+002,  0.10000000000E+001,  0.00000000000E+000
  0.24650000000E+003,  0.20003261644E+007,  0.19000000000E+002,  0.10000000000E+001,  0.00000000000E+000
  0.24850000000E+003,  0.20003273464E+007,  0.19000000000E+002,  0.10000000000E+001,  0.00000000000E+000
  0.25050000000E+003,  0.20003285563E+007,  0.19000000000E+002,  0.10000000000E+001,  0.00000000000E+000
  0.25250000000E+003,  0.20003297893E+007,  0.19000000000E+002,  0.10000000000E+001,  0.00000000000E+000
  0.25450000000E+003,  0.20003310417E+007,  0.19000000000E+002,  0.10000000000E+001,  0.00000000000E+000
  0.25650000000E+003,  0.20003323106E+007,  0.19000000000E+002,  0.10000000000E+001,  0.00000000000E+000
  0.25850000000E+003,  0.20003335936E+007,  0.19000000000E+002,  0.10000000000E+001,  0.00000000000E+000
  0.26050000000E+003,  0.20003348887E+007,  0.19000000000E+002,  0.10000000000E+001,  0.00000000000E+000
  0.26250000000E+003,  0.20003361941E+007,  0.19000000000E+002,  0.10000000000E+001,  0.00000000000E+000
  0.26450000000E+003,  0.20003375085E+007,  0.19000000000E+002,  0.10000000000E+001,  0.00000000000E+000
  0.26650000000E+003,  0.20003388305E+007,  0.19000000000E+002,  0.10000000000E+001,  0.00000000000E+000
  0.26850000000E+003,  0.20003401592E+007,  0.19000000000E+002,  0.10000000000E+001,  0.00000000000E+000
  0.27050000000E+003,  0.20003414935E+007,  0.19000000000E+002,  0.10000000000E+001,  0.00000000000E+000
  0.27250000000E+003,  0.20003428326E+007,  0.19000000000E+002,  0.10000000000E+001,  0.00000000000E+000
  0.27450000000E+003,  0.20003441759E+007,  0.19000000000E+002,  0.10000000000E+001,  0.00000000000E+000
  0.27650000000E+003,  0.20003455226E+007,  0.19000000000E+002,  0.10000000000E+001,  0.00000000000E+000
  0.27850000000E+003,  0.20003468723E+007,  0.19000000000E+002,  0.10000000000E+001,  0.00000000000E+000
  0.28050000000E+003,  0.20003481229E+007,  0.19000000000E+002,  0.10000000000E+001,  0.00000000000E+000
  0.28250000000E+003,  0.20003490512E+007,  0.19000000000E+002,  0.10000000000E+001,  0.00000000000E+000
  0.28450000000E+003,  0.20003498704E+007,  0.19000000000E+002,  0.10000000000E+001,  0.00000000000E+000
  0.28650000000E+003,  0.20003507623E+007,  0.19000000000E+002,  0.10000000000E+001,  0.00000000000E+000
  0.28850000000E+003,  0.20003517056E+007,  0.19000000000E+002,  0.10000000000E+001,  0.00000000000E+000
  0.29050000000E+003,  0.20003526880E+007,  0.19000000000E+002,  0.10000000000E+001,  0.00000000000E+000
  0.29250000000E+003,  0.20003535375E+007,  0.19000000000E+002,  0.10000000000E+001,  0.00000000000E+000
  0.29450000000E+003,  0.20003542755E+007,  0.19000000000E+002,  0.10000000000E+001,  0.00000000000E+000
  0.29650000000E+003,  0.20003550736E+007,  0.19000000000E+002,  0.10000000000E+001,  0.00000000000E+000
  0.29850000000E+003,  0.20003559196E+007,  0.19000000000E+002,  0.10000000000E+001,  0.00000000000E+000
  0.30050000000E+003,  0.20003567656E+007,  0.19000000000E+002,  0.10000000000E+001,  0.00000000000E+000
  0.30250000000E+003,  0.20003572091E+007,  0.19000000000E+002,  0.10000000000E+001,  0.00000000000E+000
  0.30450000000E+003,  0.20003575247E+007,  0.19000000000E+002,  0.10000000000E+001,  0.00000000000E+000
  0.30650000000E+003,  0.20003579345E+007,  0.19000000000E+002,  0.10000000000E+001,  0.00000000000E+000
  0.30850000000E+003,  0.20003584200E+007,  0.19000000000E+002,  0.10000000000E+001,  0.00000000000E+000
  0.31050000000E+003,  0.20003588481E+007,  0.19000000000E+002,  0.10000000000E+001,  0.00000000000E+000
  0.31250000000E+003,  0.20003581987E+007,  0.19000000000E+002,  0.10000000000E+001,  0.00000000000E+000
  0.31450000000E+003,  0.20003574148E+007,  0.19000000000E+002,  0.10000000000E+001,  0.00000000000E+000
  0.31650000000E+003,  0.20003567990E+007,  0.19000000000E+002,  0.10000000000E+001,  0.00000000000E+000
  0.31850000000E+003,  0.20003563208E+007,  0.19000000000E+002,  0.10000000000E+001,  0.00000000000E+000
  0.32050000000E+003,  0.20003559557E+007,  0.19000000000E+002,  0.10000000000E+001,  0.00000000000E+000
  0.32250000000E+003,  0.20003556869E+007,  0.19000000000E+002,  0.10000000000E+001,  0.00000000000E+000
  0.32450000000E+003,  0.20003555024E+007,  0.19000000000E+002,  0.10000000000E+001,  0.00000000000E+000
  0.32650000000E+003,  0.20003553927E+007,  0.19000000000E+002,  0.10000000000E+001,  0.00000000000E+000
  0.32850000000E+003,  0.20003553500E+007,  0.19000000000E+002,  0.10000000000E+001,  0.00000000000E+000
  0.33050000000E+003,  0.20003553681E+007,  0.19000000000E+002,  0.10000000000E+001,  0.00000000000E+000
  0.33250000000E+003,  0.20003554417E+007,  0.19000000000E+002,  0.10000000000E+001,  0.00000000000E+000
  0.33450000000E+003,  0.20003555661E+007,  0.19000000000E+002,  0.10000000000E+001,  0.00000000000E+000
  0.33650000000E+003,  0.20003557376E+007,  0.19000000000E+002,  0.10000000000E+001,  0.00000000000E+000
  0.33850000000E+003,  0.20003559524E+007,  0.19000000000E+002,  0.10000000000E+001,  0.00000000000E+000
  0.34050000000E+003,  0.20003562077E+007,  0.19000000000E+002,  0.10000000000E+001,  0.00000000000E+000
  0.34250000000E+003,  0.20003565006E+007,  0.19000000000E+002,  0.10000000000E+001,  0.00000000000E+000
  0.34450000000E+003,  0.20003568286E+007,  0.19000000000E+002,  0.10000000000E+001,  0.00000000000E+000
  0.34650000000E+003,  0.20003571894E+007,  0.19000000000E+002,  0.10000000000E+001,  0.00000000000E+000
  0.34850000000E+003,  0.20003575812E+007,  0.19000000000E+002,  0.10000000000E+001,  0.00000000000E+000
  0.35050000000E+003,  0.20003580020E+007,  0.19000000000E+002,  0.10000000000E+001,  0.00000000000E+000
  0.35250000000E+003,  0.20003584500E+007,  0.19000000000E+002,  0.10000000000E+001,  0.00000000000E+000
  0.35450000000E+003,  0.20003589238E+007,  0.19000000000E+002,  0.10000000000E+001,  0.00000000000E+000
  0.35650000000E+003,  0.20003594219E+007,  0.19000000000E+002,  0.10000000000E+001,  0.00000000000E+000
  0.35850000000E+003,  0.20003599429E+007,  0.19000000000E+002,  0.10000000000E+001,  0.00000000000E+000
  0.36050000000E+003,  0.20003604857E+007,  0.19000000000E+002,  0.10000000000E+001,  0.00000000000E+000
  0.36250000000E+003,  0.20003610490E+007,  0.19000000000E+002,  0.10000000000E+001,  0.00000000000E+000
  0.36450000000E+003,  0.20003616318E+007,  0.19000000000E+002,  0.10000000000E+001,  0.00000000000E+000
  0.36650000000E+003,  0.20003622330E+007,  0.19000000000E+002,  0.10000000000E+001,  0.00000000000E+000
  0.36850000000E+003,  0.20003628518E+007,  0.19000000000E+002,  0.10000000000E+001,  0.00000000000E+000
  0.37050000000E+003,  0.20003634872E+007,  0.19000000000E+002,  0.10000000000E+001,  0.00000000000E+000
  0.37250000000E+003,  0.20003641385E+007,  0.19000000000E+002,  0.10000000000E+001,  0.00000000000E+000
  0.37450000000E+003,  0.20003648048E+007,  0.19000000000E+002,  0.10000000000E+001,  0.00000000000E+000
  0.37650000000E+003,  0.20003654854E+007,  0.19000000000E+002,  0.10000000000E+001,  0.00000000000E+000
