"           TIME(S)","              PRES","              TEMP","             SAT_G","             SAT_L"
  0.17962950000E+008,  0.21005151984E+007,  0.19000000000E+002,  0.10000000000E+001,  0.00000000000E+000
  0.17963100000E+008,  0.21010308760E+007,  0.19000000000E+002,  0.10000000000E+001,  0.00000000000E+000
  0.17963250000E+008,  0.21012684600E+007,  0.19000000000E+002,  0.10000000000E+001,  0.00000000000E+000
  0.17963400000E+008,  0.21014114123E+007,  0.19000000000E+002,  0.10000000000E+001,  0.00000000000E+000
  0.17963550000E+008,  0.21015144622E+007,  0.19000000000E+002,  0.10000000000E+001,  0.00000000000E+000
  0.17963700000E+008,  0.21015976906E+007,  0.19000000000E+002,  0.10000000000E+001,  0.00000000000E+000
  0.17963850000E+008,  0.21016698945E+007,  0.19000000000E+002,  0.10000000000E+001,  0.00000000000E+000
  0.17964000000E+008,  0.21017354552E+007,  0.19000000000E+002,  0.10000000000E+001,  0.00000000000E+000
  0.17964150000E+008,  0.21017985220E+007,  0.19000000000E+002,  0.10000000000E+001,  0.00000000000E+000
  0.17964225000E+008,  0.21018323020E+007,  0.19000000000E+002,  0.10000000000E+001,  0.00000000000E+000
  0.17964375000E+008,  0.21018919841E+007,  0.19000000000E+002,  0.10000000000E+001,  0.00000000000E+000
  0.17964525000E+008,  0.21019481441E+007,  0.19000000000E+002,  0.10000000000E+001,  0.00000000000E+000
  0.17964675000E+008,  0.21020021955E+007,  0.19000000000E+002,  0.10000000000E+001,  0.00000000000E+000
  0.17964825000E+008,  0.21020547061E+007,  0.19000000000E+002,  0.10000000000E+001,  0.00000000000E+000
  0.17964975000E+008,  0.21021059294E+007,  0.19000000000E+002,  0.10000000000E+001,  0.00000000000E+000
  0.17965125000E+008,  0.21021559791E+007,  0.19000000000E+002,  0.10000000000E+001,  0.00000000000E+000
  0.17965275000E+008,  0.21022049011E+007,  0.19000000000E+002,  0.10000000000E+001,  0.00000000000E+000
  0.17965425000E+008,  0.21022527075E+007,  0.19000000000E+002,  0.10000000000E+001,  0.00000000000E+000
  0.17965575000E+008,  0.21022993968E+007,  0.19000000000E+002,  0.10000000000E+001,  0.00000000000E+000
  0.17965725000E+008,  0.21023449769E+007,  0.19000000000E+002,  0.10000000000E+001,  0.00000000000E+000
  0.17965800001E+008,  0.21023675105E+007,  0.19000000000E+002,  0.10000000000E+001,  0.00000000000E+000
  0.17965837501E+008,  0.21023787170E+007,  0.19000000000E+002,  0.10000000000E+001,  0.00000000000E+000
  0.17965987501E+008,  0.21024229645E+007,  0.19000000000E+002,  0.10000000000E+001,  0.00000000000E+000
  0.17966062502E+008,  0.21024462530E+007,  0.19000000000E+002,  0.10000000000E+001,  0.00000000000E+000
  0.17966100002E+008,  0.21024581366E+007,  0.19000000000E+002,  0.10000000000E+001,  0.00000000000E+000
  0.17966118753E+008,  0.21024640912E+007,  0.19000000000E+002,  0.10000000000E+001,  0.00000000000E+000
  0.17966212504E+008,  0.21024944122E+007,  0.19000000000E+002,  0.10000000000E+001,  0.00000000000E+000
  0.17966259380E+008,  0.21025095895E+007,  0.19000000000E+002,  0.10000000000E+001,  0.00000000000E+000
  0.17966409380E+008,  0.21025567890E+007,  0.19000000000E+002,  0.10000000000E+001,  0.00000000000E+000
  0.17966559380E+008,  0.21026026665E+007,  0.19000000000E+002,  0.10000000000E+001,  0.00000000000E+000
  0.17966634381E+008,  0.21026254026E+007,  0.19000000000E+002,  0.10000000000E+001,  0.00000000000E+000
  0.17966671881E+008,  0.21026367741E+007,  0.19000000000E+002,  0.10000000000E+001,  0.00000000000E+000
  0.17966690632E+008,  0.21026424672E+007,  0.19000000000E+002,  0.10000000000E+001,  0.00000000000E+000
  0.17966700007E+008,  0.21026453164E+007,  0.19000000000E+002,  0.10000000000E+001,  0.00000000000E+000
  0.17966704695E+008,  0.21026467419E+007,  0.19000000000E+002,  0.10000000000E+001,  0.00000000000E+000
  0.17966728133E+008,  0.21026539024E+007,  0.19000000000E+002,  0.10000000000E+001,  0.00000000000E+000
  0.17966845324E+008,  0.21026906669E+007,  0.19000000000E+002,  0.10000000000E+001,  0.00000000000E+000
  0.17966903920E+008,  0.21027098091E+007,  0.19000000000E+002,  0.10000000000E+001,  0.00000000000E+000
  0.17967053920E+008,  0.21027629642E+007,  0.19000000000E+002,  0.10000000000E+001,  0.00000000000E+000
  0.17967128920E+008,  0.21027905520E+007,  0.19000000000E+002,  0.10000000000E+001,  0.00000000000E+000
  0.17967278920E+008,  0.21028475354E+007,  0.19000000000E+002,  0.10000000000E+001,  0.00000000000E+000
  0.17967353921E+008,  0.21028762761E+007,  0.19000000000E+002,  0.10000000000E+001,  0.00000000000E+000
  0.17967503921E+008,  0.21029339357E+007,  0.19000000000E+002,  0.10000000000E+001,  0.00000000000E+000
  0.17967653921E+008,  0.21029914848E+007,  0.19000000000E+002,  0.10000000000E+001,  0.00000000000E+000
  0.17967803921E+008,  0.21030488689E+007,  0.19000000000E+002,  0.10000000000E+001,  0.00000000000E+000
  0.17967953921E+008,  0.21031061116E+007,  0.19000000000E+002,  0.10000000000E+001,  0.00000000000E+000
  0.17968103921E+008,  0.21031632515E+007,  0.19000000000E+002,  0.10000000000E+001,  0.00000000000E+000
  0.17968253921E+008,  0.21032203222E+007,  0.19000000000E+002,  0.10000000000E+001,  0.00000000000E+000
  0.17968403921E+008,  0.21032773485E+007,  0.19000000000E+002,  0.10000000000E+001,  0.00000000000E+000
  0.17968553921E+008,  0.21033343470E+007,  0.19000000000E+002,  0.10000000000E+001,  0.00000000000E+000
  0.17968703921E+008,  0.21033913288E+007,  0.19000000000E+002,  0.10000000000E+001,  0.00000000000E+000
  0.17968853921E+008,  0.21034483010E+007,  0.19000000000E+002,  0.10000000000E+001,  0.00000000000E+000
  0.17969003921E+008,  0.21035052678E+007,  0.19000000000E+002,  0.10000000000E+001,  0.00000000000E+000
  0.17969153921E+008,  0.21035622320E+007,  0.19000000000E+002,  0.10000000000E+001,  0.00000000000E+000
  0.17969303921E+008,  0.21036191953E+007,  0.19000000000E+002,  0.10000000000E+001,  0.00000000000E+000
  0.17969453921E+008,  0.21036761586E+007,  0.19000000000E+002,  0.10000000000E+001,  0.00000000000E+000
  0.17969603921E+008,  0.21037331224E+007,  0.19000000000E+002,  0.10000000000E+001,  0.00000000000E+000
  0.17969753921E+008,  0.21037900871E+007,  0.19000000000E+002,  0.10000000000E+001,  0.00000000000E+000
  0.17969903921E+008,  0.21038470527E+007,  0.19000000000E+002,  0.10000000000E+001,  0.00000000000E+000
  0.17970053921E+008,  0.21039040194E+007,  0.19000000000E+002,  0.10000000000E+001,  0.00000000000E+000
  0.17970203921E+008,  0.21039609871E+007,  0.19000000000E+002,  0.10000000000E+001,  0.00000000000E+000
  0.17970353921E+008,  0.21040179559E+007,  0.19000000000E+002,  0.10000000000E+001,  0.00000000000E+000
  0.17970503921E+008,  0.21040749255E+007,  0.19000000000E+002,  0.10000000000E+001,  0.00000000000E+000
  0.17970653921E+008,  0.21041318961E+007,  0.19000000000E+002,  0.10000000000E+001,  0.00000000000E+000
  0.17970803921E+008,  0.21041888675E+007,  0.19000000000E+002,  0.10000000000E+001,  0.00000000000E+000
  0.17970953921E+008,  0.21042458397E+007,  0.19000000000E+002,  0.10000000000E+001,  0.00000000000E+000
  0.17971103921E+008,  0.21043028126E+007,  0.19000000000E+002,  0.10000000000E+001,  0.00000000000E+000
  0.17971253921E+008,  0.21043597862E+007,  0.19000000000E+002,  0.10000000000E+001,  0.00000000000E+000
  0.17971403921E+008,  0.21044167604E+007,  0.19000000000E+002,  0.10000000000E+001,  0.00000000000E+000
  0.17971553921E+008,  0.21044737352E+007,  0.19000000000E+002,  0.10000000000E+001,  0.00000000000E+000
  0.17971703921E+008,  0.21045307105E+007,  0.19000000000E+002,  0.10000000000E+001,  0.00000000000E+000
  0.17971853921E+008,  0.21045876864E+007,  0.19000000000E+002,  0.10000000000E+001,  0.00000000000E+000
  0.17972003921E+008,  0.21046446627E+007,  0.19000000000E+002,  0.10000000000E+001,  0.00000000000E+000
  0.17972153921E+008,  0.21047016396E+007,  0.19000000000E+002,  0.10000000000E+001,  0.00000000000E+000
  0.17972303921E+008,  0.21047586168E+007,  0.19000000000E+002,  0.10000000000E+001,  0.00000000000E+000
  0.17972453921E+008,  0.21048155944E+007,  0.19000000000E+002,  0.10000000000E+001,  0.00000000000E+000
  0.17972603921E+008,  0.21048725725E+007,  0.19000000000E+002,  0.10000000000E+001,  0.00000000000E+000
  0.17972753921E+008,  0.21049295508E+007,  0.19000000000E+002,  0.10000000000E+001,  0.00000000000E+000
  0.17972903921E+008,  0.21049865296E+007,  0.19000000000E+002,  0.10000000000E+001,  0.00000000000E+000
  0.17973053921E+008,  0.21050435086E+007,  0.19000000000E+002,  0.10000000000E+001,  0.00000000000E+000
  0.17973203921E+008,  0.21051004880E+007,  0.19000000000E+002,  0.10000000000E+001,  0.00000000000E+000
  0.17973353921E+008,  0.21051574677E+007,  0.19000000000E+002,  0.10000000000E+001,  0.00000000000E+000
  0.17973503921E+008,  0.21052144477E+007,  0.19000000000E+002,  0.10000000000E+001,  0.00000000000E+000
  0.17973653921E+008,  0.21052714280E+007,  0.19000000000E+002,  0.10000000000E+001,  0.00000000000E+000
  0.17973803921E+008,  0.21053284085E+007,  0.19000000000E+002,  0.10000000000E+001,  0.00000000000E+000
  0.17973953921E+008,  0.21053853893E+007,  0.19000000000E+002,  0.10000000000E+001,  0.00000000000E+000
  0.17974103921E+008,  0.21054423703E+007,  0.19000000000E+002,  0.10000000000E+001,  0.00000000000E+000
  0.17974253921E+008,  0.21054993516E+007,  0.19000000000E+002,  0.10000000000E+001,  0.00000000000E+000
  0.17974403921E+008,  0.21055563331E+007,  0.19000000000E+002,  0.10000000000E+001,  0.00000000000E+000
  0.17974553921E+008,  0.21056133148E+007,  0.19000000000E+002,  0.10000000000E+001,  0.00000000000E+000
  0.17974703921E+008,  0.21056702968E+007,  0.19000000000E+002,  0.10000000000E+001,  0.00000000000E+000
  0.17974853921E+008,  0.21057272789E+007,  0.19000000000E+002,  0.10000000000E+001,  0.00000000000E+000
  0.17975003921E+008,  0.21057842613E+007,  0.19000000000E+002,  0.10000000000E+001,  0.00000000000E+000
  0.17975153921E+008,  0.21058412439E+007,  0.19000000000E+002,  0.10000000000E+001,  0.00000000000E+000
  0.17975303921E+008,  0.21058982267E+007,  0.19000000000E+002,  0.10000000000E+001,  0.00000000000E+000
  0.17975453921E+008,  0.21059552096E+007,  0.19000000000E+002,  0.10000000000E+001,  0.00000000000E+000
  0.17975603921E+008,  0.21060121928E+007,  0.19000000000E+002,  0.10000000000E+001,  0.00000000000E+000
  0.17975753921E+008,  0.21060691761E+007,  0.19000000000E+002,  0.10000000000E+001,  0.00000000000E+000
  0.17975903921E+008,  0.21061261596E+007,  0.19000000000E+002,  0.10000000000E+001,  0.00000000000E+000
  0.17976053921E+008,  0.21061831433E+007,  0.19000000000E+002,  0.10000000000E+001,  0.00000000000E+000
  0.17976203921E+008,  0.21062401271E+007,  0.19000000000E+002,  0.10000000000E+001,  0.00000000000E+000
  0.17976353921E+008,  0.21062971112E+007,  0.19000000000E+002,  0.10000000000E+001,  0.00000000000E+000
  0.17976503921E+008,  0.21063540953E+007,  0.19000000000E+002,  0.10000000000E+001,  0.00000000000E+000
  0.17976653921E+008,  0.21064110797E+007,  0.19000000000E+002,  0.10000000000E+001,  0.00000000000E+000
  0.17976803921E+008,  0.21064680642E+007,  0.19000000000E+002,  0.10000000000E+001,  0.00000000000E+000
  0.17976953921E+008,  0.21065250488E+007,  0.19000000000E+002,  0.10000000000E+001,  0.00000000000E+000
  0.17977103921E+008,  0.21065820336E+007,  0.19000000000E+002,  0.10000000000E+001,  0.00000000000E+000
  0.17977253921E+008,  0.21066390185E+007,  0.19000000000E+002,  0.10000000000E+001,  0.00000000000E+000
  0.17977403921E+008,  0.21066960036E+007,  0.19000000000E+002,  0.10000000000E+001,  0.00000000000E+000
  0.17977553921E+008,  0.21067529888E+007,  0.19000000000E+002,  0.10000000000E+001,  0.00000000000E+000
  0.17977703921E+008,  0.21068099742E+007,  0.19000000000E+002,  0.10000000000E+001,  0.00000000000E+000
  0.17977853921E+008,  0.21068669597E+007,  0.19000000000E+002,  0.10000000000E+001,  0.00000000000E+000
  0.17978003921E+008,  0.21069239453E+007,  0.19000000000E+002,  0.10000000000E+001,  0.00000000000E+000
  0.17978153921E+008,  0.21069809311E+007,  0.19000000000E+002,  0.10000000000E+001,  0.00000000000E+000
  0.17978303921E+008,  0.21070379170E+007,  0.19000000000E+002,  0.10000000000E+001,  0.00000000000E+000
  0.17978453921E+008,  0.21070949030E+007,  0.19000000000E+002,  0.10000000000E+001,  0.00000000000E+000
  0.17978603921E+008,  0.21071518892E+007,  0.19000000000E+002,  0.10000000000E+001,  0.00000000000E+000
  0.17978753921E+008,  0.21072088754E+007,  0.19000000000E+002,  0.10000000000E+001,  0.00000000000E+000
  0.17978903921E+008,  0.21072658618E+007,  0.19000000000E+002,  0.10000000000E+001,  0.00000000000E+000
  0.17979053921E+008,  0.21073228483E+007,  0.19000000000E+002,  0.10000000000E+001,  0.00000000000E+000
  0.17979203921E+008,  0.21073798349E+007,  0.19000000000E+002,  0.10000000000E+001,  0.00000000000E+000
  0.17979353921E+008,  0.21074368217E+007,  0.19000000000E+002,  0.10000000000E+001,  0.00000000000E+000
  0.17979503921E+008,  0.21074938085E+007,  0.19000000000E+002,  0.10000000000E+001,  0.00000000000E+000
  0.17979653921E+008,  0.21075507955E+007,  0.19000000000E+002,  0.10000000000E+001,  0.00000000000E+000
  0.17979803921E+008,  0.21076077826E+007,  0.19000000000E+002,  0.10000000000E+001,  0.00000000000E+000
  0.17979953921E+008,  0.21076647698E+007,  0.19000000000E+002,  0.10000000000E+001,  0.00000000000E+000
  0.17980103921E+008,  0.21077217571E+007,  0.19000000000E+002,  0.10000000000E+001,  0.00000000000E+000
  0.17980253921E+008,  0.21077787445E+007,  0.19000000000E+002,  0.10000000000E+001,  0.00000000000E+000
  0.17980403921E+008,  0.21078357320E+007,  0.19000000000E+002,  0.10000000000E+001,  0.00000000000E+000
  0.17980553921E+008,  0.21078927196E+007,  0.19000000000E+002,  0.10000000000E+001,  0.00000000000E+000
  0.17980703921E+008,  0.21079497073E+007,  0.19000000000E+002,  0.10000000000E+001,  0.00000000000E+000
  0.17980853921E+008,  0.21080066951E+007,  0.19000000000E+002,  0.10000000000E+001,  0.00000000000E+000
  0.17981003921E+008,  0.21080636830E+007,  0.19000000000E+002,  0.10000000000E+001,  0.00000000000E+000
  0.17981153921E+008,  0.21081206710E+007,  0.19000000000E+002,  0.10000000000E+001,  0.00000000000E+000
  0.17981303921E+008,  0.21081776591E+007,  0.19000000000E+002,  0.10000000000E+001,  0.00000000000E+000
  0.17981453921E+008,  0.21082346473E+007,  0.19000000000E+002,  0.10000000000E+001,  0.00000000000E+000
  0.17981603921E+008,  0.21082916356E+007,  0.19000000000E+002,  0.10000000000E+001,  0.00000000000E+000
  0.17981753921E+008,  0.21083486240E+007,  0.19000000000E+002,  0.10000000000E+001,  0.00000000000E+000
  0.17981903921E+008,  0.21084056124E+007,  0.19000000000E+002,  0.10000000000E+001,  0.00000000000E+000
  0.17982053921E+008,  0.21084626010E+007,  0.19000000000E+002,  0.10000000000E+001,  0.00000000000E+000
  0.17982203921E+008,  0.21085195896E+007,  0.19000000000E+002,  0.10000000000E+001,  0.00000000000E+000
  0.17982353921E+008,  0.21085765784E+007,  0.19000000000E+002,  0.10000000000E+001,  0.00000000000E+000
  0.17982503921E+008,  0.21086335672E+007,  0.19000000000E+002,  0.10000000000E+001,  0.00000000000E+000
  0.17982653921E+008,  0.21086905561E+007,  0.19000000000E+002,  0.10000000000E+001,  0.00000000000E+000
  0.17982803921E+008,  0.21087475451E+007,  0.19000000000E+002,  0.10000000000E+001,  0.00000000000E+000
  0.17982953921E+008,  0.21088045342E+007,  0.19000000000E+002,  0.10000000000E+001,  0.00000000000E+000
  0.17983103921E+008,  0.21088615234E+007,  0.19000000000E+002,  0.10000000000E+001,  0.00000000000E+000
  0.17983253921E+008,  0.21089185126E+007,  0.19000000000E+002,  0.10000000000E+001,  0.00000000000E+000
  0.17983403921E+008,  0.21089755019E+007,  0.19000000000E+002,  0.10000000000E+001,  0.00000000000E+000
  0.17983553921E+008,  0.21090324914E+007,  0.19000000000E+002,  0.10000000000E+001,  0.00000000000E+000
  0.17983703921E+008,  0.21090894808E+007,  0.19000000000E+002,  0.10000000000E+001,  0.00000000000E+000
  0.17983853921E+008,  0.21091464704E+007,  0.19000000000E+002,  0.10000000000E+001,  0.00000000000E+000
  0.17984003921E+008,  0.21092034601E+007,  0.19000000000E+002,  0.10000000000E+001,  0.00000000000E+000
  0.17984153921E+008,  0.21092604498E+007,  0.19000000000E+002,  0.10000000000E+001,  0.00000000000E+000
  0.17984303921E+008,  0.21093174396E+007,  0.19000000000E+002,  0.10000000000E+001,  0.00000000000E+000
  0.17984453921E+008,  0.21093744294E+007,  0.19000000000E+002,  0.10000000000E+001,  0.00000000000E+000
  0.17984603921E+008,  0.21094314194E+007,  0.19000000000E+002,  0.10000000000E+001,  0.00000000000E+000
  0.17984753921E+008,  0.21094884094E+007,  0.19000000000E+002,  0.10000000000E+001,  0.00000000000E+000
  0.17984903921E+008,  0.21095453995E+007,  0.19000000000E+002,  0.10000000000E+001,  0.00000000000E+000
  0.17985053921E+008,  0.21096023897E+007,  0.19000000000E+002,  0.10000000000E+001,  0.00000000000E+000
  0.17985203921E+008,  0.21096593799E+007,  0.19000000000E+002,  0.10000000000E+001,  0.00000000000E+000
  0.17985353921E+008,  0.21097163702E+007,  0.19000000000E+002,  0.10000000000E+001,  0.00000000000E+000
  0.17985503921E+008,  0.21097733606E+007,  0.19000000000E+002,  0.10000000000E+001,  0.00000000000E+000
  0.17985653921E+008,  0.21098303510E+007,  0.19000000000E+002,  0.10000000000E+001,  0.00000000000E+000
  0.17985803921E+008,  0.21098873415E+007,  0.19000000000E+002,  0.10000000000E+001,  0.00000000000E+000
  0.17985953921E+008,  0.21099443321E+007,  0.19000000000E+002,  0.10000000000E+001,  0.00000000000E+000
  0.17986103921E+008,  0.21100013227E+007,  0.19000000000E+002,  0.10000000000E+001,  0.00000000000E+000
  0.17986253921E+008,  0.21100583134E+007,  0.19000000000E+002,  0.10000000000E+001,  0.00000000000E+000
  0.17986403921E+008,  0.21101153042E+007,  0.19000000000E+002,  0.10000000000E+001,  0.00000000000E+000
  0.17986553921E+008,  0.21101722951E+007,  0.19000000000E+002,  0.10000000000E+001,  0.00000000000E+000
  0.17986703921E+008,  0.21102292860E+007,  0.19000000000E+002,  0.10000000000E+001,  0.00000000000E+000
  0.17986853921E+008,  0.21102862769E+007,  0.19000000000E+002,  0.10000000000E+001,  0.00000000000E+000
  0.17987003921E+008,  0.21103432680E+007,  0.19000000000E+002,  0.10000000000E+001,  0.00000000000E+000
  0.17987153921E+008,  0.21104002591E+007,  0.19000000000E+002,  0.10000000000E+001,  0.00000000000E+000
  0.17987303921E+008,  0.21104572502E+007,  0.19000000000E+002,  0.10000000000E+001,  0.00000000000E+000
  0.17987453921E+008,  0.21105142414E+007,  0.19000000000E+002,  0.10000000000E+001,  0.00000000000E+000
  0.17987603921E+008,  0.21105712327E+007,  0.19000000000E+002,  0.10000000000E+001,  0.00000000000E+000
  0.17987753921E+008,  0.21106282240E+007,  0.19000000000E+002,  0.10000000000E+001,  0.00000000000E+000
  0.17987903921E+008,  0.21106852154E+007,  0.19000000000E+002,  0.10000000000E+001,  0.00000000000E+000
  0.17988053921E+008,  0.21107422069E+007,  0.19000000000E+002,  0.10000000000E+001,  0.00000000000E+000
  0.17988203921E+008,  0.21107991984E+007,  0.19000000000E+002,  0.10000000000E+001,  0.00000000000E+000
  0.17988353921E+008,  0.21108561900E+007,  0.19000000000E+002,  0.10000000000E+001,  0.00000000000E+000
  0.17988503921E+008,  0.21109131816E+007,  0.19000000000E+002,  0.10000000000E+001,  0.00000000000E+000
  0.17988653921E+008,  0.21109701733E+007,  0.19000000000E+002,  0.10000000000E+001,  0.00000000000E+000
  0.17988803921E+008,  0.21110271650E+007,  0.19000000000E+002,  0.10000000000E+001,  0.00000000000E+000
  0.17988953921E+008,  0.21110841568E+007,  0.19000000000E+002,  0.10000000000E+001,  0.00000000000E+000
  0.17989103921E+008,  0.21111411486E+007,  0.19000000000E+002,  0.10000000000E+001,  0.00000000000E+000
  0.17989253921E+008,  0.21111981405E+007,  0.19000000000E+002,  0.10000000000E+001,  0.00000000000E+000
  0.17989403921E+008,  0.21112551325E+007,  0.19000000000E+002,  0.10000000000E+001,  0.00000000000E+000
