"           TIME(S)","              PRES","              TEMP","             SAT_G","             SAT_L"
  0.17812600500E+008,  0.19999999999E+007,  0.19000000000E+002,  0.00000000000E+000,  0.10000000000E+001
  0.17812602500E+008,  0.19999999877E+007,  0.19000000000E+002,  0.00000000000E+000,  0.10000000000E+001
  0.17812604500E+008,  0.19999999641E+007,  0.19000000000E+002,  0.00000000000E+000,  0.10000000000E+001
  0.17812606500E+008,  0.19999999452E+007,  0.19000000000E+002,  0.00000000000E+000,  0.10000000000E+001
  0.17812608500E+008,  0.19999999554E+007,  0.19000000000E+002,  0.00000000000E+000,  0.10000000000E+001
  0.17812610500E+008,  0.20000000210E+007,  0.19000000000E+002,  0.00000000000E+000,  0.10000000000E+001
  0.17812612500E+008,  0.20000001660E+007,  0.19000000000E+002,  0.00000000000E+000,  0.10000000000E+001
  0.17812614500E+008,  0.20000004096E+007,  0.19000000000E+002,  0.00000000000E+000,  0.10000000000E+001
  0.17812616500E+008,  0.20000007658E+007,  0.19000000000E+002,  0.00000000000E+000,  0.10000000000E+001
  0.17812618500E+008,  0.20000012437E+007,  0.19000000000E+002,  0.00000000000E+000,  0.10000000000E+001
  0.17812620500E+008,  0.20000018476E+007,  0.19000000000E+002,  0.00000000000E+000,  0.10000000000E+001
  0.17812622500E+008,  0.20000025781E+007,  0.19000000000E+002,  0.00000000000E+000,  0.10000000000E+001
  0.17812624500E+008,  0.20000034322E+007,  0.19000000000E+002,  0.00000000000E+000,  0.10000000000E+001
  0.17812626500E+008,  0.20000044046E+007,  0.19000000000E+002,  0.00000000000E+000,  0.10000000000E+001
  0.17812628500E+008,  0.20000054882E+007,  0.19000000000E+002,  0.00000000000E+000,  0.10000000000E+001
  0.17812630500E+008,  0.20000066743E+007,  0.19000000000E+002,  0.00000000000E+000,  0.10000000000E+001
  0.17812632500E+008,  0.20000079537E+007,  0.19000000000E+002,  0.00000000000E+000,  0.10000000000E+001
  0.17812634500E+008,  0.20000093166E+007,  0.19000000000E+002,  0.00000000000E+000,  0.10000000000E+001
  0.17812636500E+008,  0.20000107536E+007,  0.19000000000E+002,  0.00000000000E+000,  0.10000000000E+001
  0.17812638500E+008,  0.20000122550E+007,  0.19000000000E+002,  0.00000000000E+000,  0.10000000000E+001
  0.17812640500E+008,  0.20000138119E+007,  0.19000000000E+002,  0.00000000000E+000,  0.10000000000E+001
  0.17812642500E+008,  0.20000154157E+007,  0.19000000000E+002,  0.00000000000E+000,  0.10000000000E+001
  0.17812644500E+008,  0.20000170587E+007,  0.19000000000E+002,  0.00000000000E+000,  0.10000000000E+001
  0.17812646500E+008,  0.20000187335E+007,  0.19000000000E+002,  0.00000000000E+000,  0.10000000000E+001
  0.17812648500E+008,  0.20000204336E+007,  0.19000000000E+002,  0.00000000000E+000,  0.10000000000E+001
  0.17812650500E+008,  0.20000221529E+007,  0.19000000000E+002,  0.00000000000E+000,  0.10000000000E+001
  0.17812652500E+008,  0.20000238862E+007,  0.19000000000E+002,  0.00000000000E+000,  0.10000000000E+001
  0.17812654500E+008,  0.20000256287E+007,  0.19000000000E+002,  0.00000000000E+000,  0.10000000000E+001
  0.17812656500E+008,  0.20000273762E+007,  0.19000000000E+002,  0.00000000000E+000,  0.10000000000E+001
  0.17812658500E+008,  0.20000291251E+007,  0.19000000000E+002,  0.00000000000E+000,  0.10000000000E+001
  0.17812660500E+008,  0.20000308721E+007,  0.19000000000E+002,  0.00000000000E+000,  0.10000000000E+001
  0.17812662500E+008,  0.20000326144E+007,  0.19000000000E+002,  0.00000000000E+000,  0.10000000000E+001
  0.17812664500E+008,  0.20000343497E+007,  0.19000000000E+002,  0.00000000000E+000,  0.10000000000E+001
  0.17812666500E+008,  0.20000360759E+007,  0.19000000000E+002,  0.00000000000E+000,  0.10000000000E+001
  0.17812668500E+008,  0.20000377914E+007,  0.19000000000E+002,  0.00000000000E+000,  0.10000000000E+001
  0.17812670500E+008,  0.20000394947E+007,  0.19000000000E+002,  0.00000000000E+000,  0.10000000000E+001
  0.17812672500E+008,  0.20000411845E+007,  0.19000000000E+002,  0.00000000000E+000,  0.10000000000E+001
  0.17812674500E+008,  0.20000428601E+007,  0.19000000000E+002,  0.00000000000E+000,  0.10000000000E+001
  0.17812676500E+008,  0.20000445205E+007,  0.19000000000E+002,  0.00000000000E+000,  0.10000000000E+001
  0.17812678500E+008,  0.20000461653E+007,  0.19000000000E+002,  0.00000000000E+000,  0.10000000000E+001
  0.17812680500E+008,  0.20000477940E+007,  0.19000000000E+002,  0.00000000000E+000,  0.10000000000E+001
  0.17812682500E+008,  0.20000494062E+007,  0.19000000000E+002,  0.00000000000E+000,  0.10000000000E+001
  0.17812684500E+008,  0.20000510019E+007,  0.19000000000E+002,  0.00000000000E+000,  0.10000000000E+001
  0.17812686500E+008,  0.20000525808E+007,  0.19000000000E+002,  0.00000000000E+000,  0.10000000000E+001
  0.17812688500E+008,  0.20000541431E+007,  0.19000000000E+002,  0.00000000000E+000,  0.10000000000E+001
  0.17812690500E+008,  0.20000556887E+007,  0.19000000000E+002,  0.00000000000E+000,  0.10000000000E+001
  0.17812692500E+008,  0.20000572179E+007,  0.19000000000E+002,  0.00000000000E+000,  0.10000000000E+001
  0.17812694500E+008,  0.20000587307E+007,  0.19000000000E+002,  0.00000000000E+000,  0.10000000000E+001
  0.17812696500E+008,  0.20000602274E+007,  0.19000000000E+002,  0.00000000000E+000,  0.10000000000E+001
  0.17812698500E+008,  0.20000617083E+007,  0.19000000000E+002,  0.00000000000E+000,  0.10000000000E+001
  0.17812700500E+008,  0.20000631736E+007,  0.19000000000E+002,  0.00000000000E+000,  0.10000000000E+001
  0.17812702500E+008,  0.20000646237E+007,  0.19000000000E+002,  0.00000000000E+000,  0.10000000000E+001
  0.17812704500E+008,  0.20000660588E+007,  0.19000000000E+002,  0.00000000000E+000,  0.10000000000E+001
  0.17812706500E+008,  0.20000674793E+007,  0.19000000000E+002,  0.00000000000E+000,  0.10000000000E+001
  0.17812708500E+008,  0.20000688855E+007,  0.19000000000E+002,  0.00000000000E+000,  0.10000000000E+001
  0.17812710500E+008,  0.20000702779E+007,  0.19000000000E+002,  0.00000000000E+000,  0.10000000000E+001
  0.17812712500E+008,  0.20000716568E+007,  0.19000000000E+002,  0.00000000000E+000,  0.10000000000E+001
  0.17812714500E+008,  0.20000730225E+007,  0.19000000000E+002,  0.00000000000E+000,  0.10000000000E+001
  0.17812716500E+008,  0.20000743755E+007,  0.19000000000E+002,  0.00000000000E+000,  0.10000000000E+001
  0.17812718500E+008,  0.20000757161E+007,  0.19000000000E+002,  0.00000000000E+000,  0.10000000000E+001
  0.17812720500E+008,  0.20000770447E+007,  0.19000000000E+002,  0.00000000000E+000,  0.10000000000E+001
  0.17812722500E+008,  0.20000783617E+007,  0.19000000000E+002,  0.00000000000E+000,  0.10000000000E+001
  0.17812724500E+008,  0.20000796674E+007,  0.19000000000E+002,  0.00000000000E+000,  0.10000000000E+001
  0.17812726500E+008,  0.20000809623E+007,  0.19000000000E+002,  0.00000000000E+000,  0.10000000000E+001
  0.17812728500E+008,  0.20000822466E+007,  0.19000000000E+002,  0.00000000000E+000,  0.10000000000E+001
  0.17812730500E+008,  0.20000835206E+007,  0.19000000000E+002,  0.00000000000E+000,  0.10000000000E+001
  0.17812732500E+008,  0.20000847849E+007,  0.19000000000E+002,  0.00000000000E+000,  0.10000000000E+001
  0.17812734500E+008,  0.20000860395E+007,  0.19000000000E+002,  0.00000000000E+000,  0.10000000000E+001
  0.17812736500E+008,  0.20000872850E+007,  0.19000000000E+002,  0.00000000000E+000,  0.10000000000E+001
  0.17812738500E+008,  0.20000885216E+007,  0.19000000000E+002,  0.00000000000E+000,  0.10000000000E+001
  0.17812740500E+008,  0.20000897495E+007,  0.19000000000E+002,  0.00000000000E+000,  0.10000000000E+001
  0.17812742500E+008,  0.20000909692E+007,  0.19000000000E+002,  0.00000000000E+000,  0.10000000000E+001
  0.17812744500E+008,  0.20000921808E+007,  0.19000000000E+002,  0.00000000000E+000,  0.10000000000E+001
  0.17812746500E+008,  0.20000933846E+007,  0.19000000000E+002,  0.00000000000E+000,  0.10000000000E+001
  0.17812748500E+008,  0.20000945810E+007,  0.19000000000E+002,  0.00000000000E+000,  0.10000000000E+001
  0.17812750500E+008,  0.20000957701E+007,  0.19000000000E+002,  0.00000000000E+000,  0.10000000000E+001
  0.17812752500E+008,  0.20000969522E+007,  0.19000000000E+002,  0.00000000000E+000,  0.10000000000E+001
  0.17812754500E+008,  0.20000981276E+007,  0.19000000000E+002,  0.00000000000E+000,  0.10000000000E+001
  0.17812756500E+008,  0.20000992964E+007,  0.19000000000E+002,  0.00000000000E+000,  0.10000000000E+001
  0.17812758500E+008,  0.20001004589E+007,  0.19000000000E+002,  0.00000000000E+000,  0.10000000000E+001
  0.17812760500E+008,  0.20001016153E+007,  0.19000000000E+002,  0.00000000000E+000,  0.10000000000E+001
  0.17812762500E+008,  0.20001027658E+007,  0.19000000000E+002,  0.00000000000E+000,  0.10000000000E+001
  0.17812764500E+008,  0.20001039106E+007,  0.19000000000E+002,  0.00000000000E+000,  0.10000000000E+001
  0.17812766500E+008,  0.20001050499E+007,  0.19000000000E+002,  0.00000000000E+000,  0.10000000000E+001
  0.17812768500E+008,  0.20001061838E+007,  0.19000000000E+002,  0.00000000000E+000,  0.10000000000E+001
  0.17812770500E+008,  0.20001073126E+007,  0.19000000000E+002,  0.00000000000E+000,  0.10000000000E+001
  0.17812772500E+008,  0.20001084363E+007,  0.19000000000E+002,  0.00000000000E+000,  0.10000000000E+001
  0.17812774500E+008,  0.20001095552E+007,  0.19000000000E+002,  0.00000000000E+000,  0.10000000000E+001
  0.17812776500E+008,  0.20001106694E+007,  0.19000000000E+002,  0.00000000000E+000,  0.10000000000E+001
  0.17812778500E+008,  0.20001117791E+007,  0.19000000000E+002,  0.00000000000E+000,  0.10000000000E+001
  0.17812780500E+008,  0.20001128844E+007,  0.19000000000E+002,  0.00000000000E+000,  0.10000000000E+001
  0.17812782500E+008,  0.20001139853E+007,  0.19000000000E+002,  0.00000000000E+000,  0.10000000000E+001
  0.17812784500E+008,  0.20001150822E+007,  0.19000000000E+002,  0.00000000000E+000,  0.10000000000E+001
  0.17812786500E+008,  0.20001161750E+007,  0.19000000000E+002,  0.00000000000E+000,  0.10000000000E+001
  0.17812788500E+008,  0.20001172639E+007,  0.19000000000E+002,  0.00000000000E+000,  0.10000000000E+001
  0.17812790500E+008,  0.20001183490E+007,  0.19000000000E+002,  0.00000000000E+000,  0.10000000000E+001
  0.17812792500E+008,  0.20001194305E+007,  0.19000000000E+002,  0.00000000000E+000,  0.10000000000E+001
  0.17812794500E+008,  0.20001205083E+007,  0.19000000000E+002,  0.00000000000E+000,  0.10000000000E+001
  0.17812796500E+008,  0.20001215827E+007,  0.19000000000E+002,  0.00000000000E+000,  0.10000000000E+001
  0.17812798500E+008,  0.20001226537E+007,  0.19000000000E+002,  0.00000000000E+000,  0.10000000000E+001
  0.17812800500E+008,  0.20001237215E+007,  0.19000000000E+002,  0.00000000000E+000,  0.10000000000E+001
  0.17812802500E+008,  0.20001247860E+007,  0.19000000000E+002,  0.00000000000E+000,  0.10000000000E+001
  0.17812804500E+008,  0.20001258474E+007,  0.19000000000E+002,  0.00000000000E+000,  0.10000000000E+001
  0.17812806500E+008,  0.20001269058E+007,  0.19000000000E+002,  0.00000000000E+000,  0.10000000000E+001
  0.17812808500E+008,  0.20001279612E+007,  0.19000000000E+002,  0.00000000000E+000,  0.10000000000E+001
  0.17812810500E+008,  0.20001290137E+007,  0.19000000000E+002,  0.00000000000E+000,  0.10000000000E+001
  0.17812812500E+008,  0.20001300635E+007,  0.19000000000E+002,  0.00000000000E+000,  0.10000000000E+001
  0.17812814500E+008,  0.20001311105E+007,  0.19000000000E+002,  0.00000000000E+000,  0.10000000000E+001
  0.17812816500E+008,  0.20001321548E+007,  0.19000000000E+002,  0.00000000000E+000,  0.10000000000E+001
  0.17812818500E+008,  0.20001331965E+007,  0.19000000000E+002,  0.00000000000E+000,  0.10000000000E+001
  0.17812820500E+008,  0.20001342357E+007,  0.19000000000E+002,  0.00000000000E+000,  0.10000000000E+001
  0.17812822500E+008,  0.20001352724E+007,  0.19000000000E+002,  0.00000000000E+000,  0.10000000000E+001
  0.17812824500E+008,  0.20001363067E+007,  0.19000000000E+002,  0.00000000000E+000,  0.10000000000E+001
  0.17812826500E+008,  0.20001373385E+007,  0.19000000000E+002,  0.00000000000E+000,  0.10000000000E+001
  0.17812828500E+008,  0.20001383681E+007,  0.19000000000E+002,  0.00000000000E+000,  0.10000000000E+001
  0.17812830500E+008,  0.20001393954E+007,  0.19000000000E+002,  0.00000000000E+000,  0.10000000000E+001
  0.17812832500E+008,  0.20001404204E+007,  0.19000000000E+002,  0.00000000000E+000,  0.10000000000E+001
  0.17812834500E+008,  0.20001414433E+007,  0.19000000000E+002,  0.00000000000E+000,  0.10000000000E+001
  0.17812836500E+008,  0.20001424640E+007,  0.19000000000E+002,  0.00000000000E+000,  0.10000000000E+001
  0.17812838500E+008,  0.20001434827E+007,  0.19000000000E+002,  0.00000000000E+000,  0.10000000000E+001
  0.17812840500E+008,  0.20001444992E+007,  0.19000000000E+002,  0.00000000000E+000,  0.10000000000E+001
  0.17812842500E+008,  0.20001455138E+007,  0.19000000000E+002,  0.00000000000E+000,  0.10000000000E+001
  0.17812844500E+008,  0.20001465264E+007,  0.19000000000E+002,  0.00000000000E+000,  0.10000000000E+001
  0.17812846500E+008,  0.20001475371E+007,  0.19000000000E+002,  0.00000000000E+000,  0.10000000000E+001
  0.17812848500E+008,  0.20001485458E+007,  0.19000000000E+002,  0.00000000000E+000,  0.10000000000E+001
  0.17812850500E+008,  0.20001495527E+007,  0.19000000000E+002,  0.00000000000E+000,  0.10000000000E+001
  0.17812852500E+008,  0.20001505577E+007,  0.19000000000E+002,  0.00000000000E+000,  0.10000000000E+001
  0.17812854500E+008,  0.20001515610E+007,  0.19000000000E+002,  0.00000000000E+000,  0.10000000000E+001
  0.17812856500E+008,  0.20001525624E+007,  0.19000000000E+002,  0.00000000000E+000,  0.10000000000E+001
  0.17812858500E+008,  0.20001535621E+007,  0.19000000000E+002,  0.00000000000E+000,  0.10000000000E+001
  0.17812860500E+008,  0.20001545601E+007,  0.19000000000E+002,  0.00000000000E+000,  0.10000000000E+001
  0.17812862500E+008,  0.20001555564E+007,  0.19000000000E+002,  0.00000000000E+000,  0.10000000000E+001
  0.17812864500E+008,  0.20001565511E+007,  0.19000000000E+002,  0.00000000000E+000,  0.10000000000E+001
  0.17812866500E+008,  0.20001575441E+007,  0.19000000000E+002,  0.00000000000E+000,  0.10000000000E+001
  0.17812868500E+008,  0.20001585355E+007,  0.19000000000E+002,  0.00000000000E+000,  0.10000000000E+001
  0.17812870500E+008,  0.20001595253E+007,  0.19000000000E+002,  0.00000000000E+000,  0.10000000000E+001
  0.17812872500E+008,  0.20001605135E+007,  0.19000000000E+002,  0.00000000000E+000,  0.10000000000E+001
  0.17812874500E+008,  0.20001615002E+007,  0.19000000000E+002,  0.00000000000E+000,  0.10000000000E+001
  0.17812876500E+008,  0.20001624853E+007,  0.19000000000E+002,  0.00000000000E+000,  0.10000000000E+001
  0.17812878500E+008,  0.20001634690E+007,  0.19000000000E+002,  0.00000000000E+000,  0.10000000000E+001
  0.17812880500E+008,  0.20001644512E+007,  0.19000000000E+002,  0.00000000000E+000,  0.10000000000E+001
  0.17812882500E+008,  0.20001654319E+007,  0.19000000000E+002,  0.00000000000E+000,  0.10000000000E+001
  0.17812884500E+008,  0.20001664111E+007,  0.19000000000E+002,  0.00000000000E+000,  0.10000000000E+001
  0.17812886500E+008,  0.20001673890E+007,  0.19000000000E+002,  0.00000000000E+000,  0.10000000000E+001
  0.17812888500E+008,  0.20001683654E+007,  0.19000000000E+002,  0.00000000000E+000,  0.10000000000E+001
  0.17812890500E+008,  0.20001693404E+007,  0.19000000000E+002,  0.00000000000E+000,  0.10000000000E+001
  0.17812892500E+008,  0.20001703140E+007,  0.19000000000E+002,  0.00000000000E+000,  0.10000000000E+001
  0.17812894500E+008,  0.20001712863E+007,  0.19000000000E+002,  0.00000000000E+000,  0.10000000000E+001
  0.17812896500E+008,  0.20001722573E+007,  0.19000000000E+002,  0.00000000000E+000,  0.10000000000E+001
  0.17812898500E+008,  0.20001732269E+007,  0.19000000000E+002,  0.00000000000E+000,  0.10000000000E+001
  0.17812900500E+008,  0.20001741952E+007,  0.19000000000E+002,  0.00000000000E+000,  0.10000000000E+001
  0.17812902500E+008,  0.20001751621E+007,  0.19000000000E+002,  0.00000000000E+000,  0.10000000000E+001
  0.17812904500E+008,  0.20001761278E+007,  0.19000000000E+002,  0.00000000000E+000,  0.10000000000E+001
  0.17812906500E+008,  0.20001770922E+007,  0.19000000000E+002,  0.00000000000E+000,  0.10000000000E+001
  0.17812908500E+008,  0.20001780554E+007,  0.19000000000E+002,  0.00000000000E+000,  0.10000000000E+001
  0.17812910500E+008,  0.20001790173E+007,  0.19000000000E+002,  0.00000000000E+000,  0.10000000000E+001
  0.17812912500E+008,  0.20001799779E+007,  0.19000000000E+002,  0.00000000000E+000,  0.10000000000E+001
  0.17812914500E+008,  0.20001809373E+007,  0.19000000000E+002,  0.00000000000E+000,  0.10000000000E+001
  0.17812916500E+008,  0.20001818955E+007,  0.19000000000E+002,  0.00000000000E+000,  0.10000000000E+001
  0.17812918500E+008,  0.20001828525E+007,  0.19000000000E+002,  0.00000000000E+000,  0.10000000000E+001
  0.17812920500E+008,  0.20001838083E+007,  0.19000000000E+002,  0.00000000000E+000,  0.10000000000E+001
  0.17812922500E+008,  0.20001847629E+007,  0.19000000000E+002,  0.00000000000E+000,  0.10000000000E+001
  0.17812924500E+008,  0.20001857164E+007,  0.19000000000E+002,  0.00000000000E+000,  0.10000000000E+001
  0.17812926500E+008,  0.20001866686E+007,  0.19000000000E+002,  0.00000000000E+000,  0.10000000000E+001
  0.17812928500E+008,  0.20001876197E+007,  0.19000000000E+002,  0.00000000000E+000,  0.10000000000E+001
  0.17812930500E+008,  0.20001885697E+007,  0.19000000000E+002,  0.00000000000E+000,  0.10000000000E+001
  0.17812932500E+008,  0.20001895185E+007,  0.19000000000E+002,  0.00000000000E+000,  0.10000000000E+001
  0.17812934500E+008,  0.20001904662E+007,  0.19000000000E+002,  0.00000000000E+000,  0.10000000000E+001
  0.17812936500E+008,  0.20001914128E+007,  0.19000000000E+002,  0.00000000000E+000,  0.10000000000E+001
  0.17812938500E+008,  0.20001923582E+007,  0.19000000000E+002,  0.00000000000E+000,  0.10000000000E+001
  0.17812940500E+008,  0.20001933026E+007,  0.19000000000E+002,  0.00000000000E+000,  0.10000000000E+001
  0.17812942500E+008,  0.20001942458E+007,  0.19000000000E+002,  0.00000000000E+000,  0.10000000000E+001
  0.17812944500E+008,  0.20001951879E+007,  0.19000000000E+002,  0.00000000000E+000,  0.10000000000E+001
  0.17812946500E+008,  0.20001961290E+007,  0.19000000000E+002,  0.00000000000E+000,  0.10000000000E+001
  0.17812948500E+008,  0.20001970690E+007,  0.19000000000E+002,  0.00000000000E+000,  0.10000000000E+001
  0.17812950500E+008,  0.20001980079E+007,  0.19000000000E+002,  0.00000000000E+000,  0.10000000000E+001
  0.17812952500E+008,  0.20001989458E+007,  0.19000000000E+002,  0.00000000000E+000,  0.10000000000E+001
  0.17812954500E+008,  0.20001998826E+007,  0.19000000000E+002,  0.00000000000E+000,  0.10000000000E+001
  0.17812956500E+008,  0.20002008183E+007,  0.19000000000E+002,  0.00000000000E+000,  0.10000000000E+001
  0.17812958500E+008,  0.20002017531E+007,  0.19000000000E+002,  0.00000000000E+000,  0.10000000000E+001
  0.17812960500E+008,  0.20002026867E+007,  0.19000000000E+002,  0.00000000000E+000,  0.10000000000E+001
  0.17812962500E+008,  0.20002036194E+007,  0.19000000000E+002,  0.00000000000E+000,  0.10000000000E+001
  0.17812964500E+008,  0.20002045510E+007,  0.19000000000E+002,  0.00000000000E+000,  0.10000000000E+001
  0.17812966500E+008,  0.20002054816E+007,  0.19000000000E+002,  0.00000000000E+000,  0.10000000000E+001
  0.17812968500E+008,  0.20002064112E+007,  0.19000000000E+002,  0.00000000000E+000,  0.10000000000E+001
  0.17812970500E+008,  0.20002073397E+007,  0.19000000000E+002,  0.00000000000E+000,  0.10000000000E+001
  0.17812972500E+008,  0.20002082673E+007,  0.19000000000E+002,  0.00000000000E+000,  0.10000000000E+001
  0.17812974500E+008,  0.20002091939E+007,  0.19000000000E+002,  0.00000000000E+000,  0.10000000000E+001
  0.17812976500E+008,  0.20002101194E+007,  0.19000000000E+002,  0.00000000000E+000,  0.10000000000E+001
