"           TIME(S)","              PRES","              TEMP","             SAT_G","             SAT_L"
  0.50000000000E+000,  0.19999939081E+007,  0.19000000000E+002,  0.99899698248E+000,  0.10030175158E-002
  0.25000000000E+001,  0.19999773382E+007,  0.19000000000E+002,  0.99898516365E+000,  0.10148363532E-002
  0.45000000000E+001,  0.19999656136E+007,  0.19000000000E+002,  0.99897346091E+000,  0.10265390863E-002
  0.65000000000E+001,  0.19999567203E+007,  0.19000000000E+002,  0.99896187251E+000,  0.10381274908E-002
  0.85000000000E+001,  0.19999494769E+007,  0.19000000000E+002,  0.99895036865E+000,  0.10496313514E-002
  0.10500000000E+002,  0.19999434353E+007,  0.19000000000E+002,  0.99893894040E+000,  0.10610595977E-002
  0.12500000000E+002,  0.19999382022E+007,  0.19000000000E+002,  0.99892756453E+000,  0.10724354745E-002
  0.14500000000E+002,  0.19999336241E+007,  0.19000000000E+002,  0.99891623068E+000,  0.10837693201E-002
  0.16500000000E+002,  0.19999296110E+007,  0.19000000000E+002,  0.99890493527E+000,  0.10950647308E-002
  0.18500000000E+002,  0.19999260816E+007,  0.19000000000E+002,  0.99889367513E+000,  0.11063248715E-002
  0.20500000000E+002,  0.19999229715E+007,  0.19000000000E+002,  0.99888244732E+000,  0.11175526847E-002
  0.22500000000E+002,  0.19999202290E+007,  0.19000000000E+002,  0.99887124913E+000,  0.11287508746E-002
  0.24500000000E+002,  0.19999178125E+007,  0.19000000000E+002,  0.99886007809E+000,  0.11399219061E-002
  0.26500000000E+002,  0.19999156879E+007,  0.19000000000E+002,  0.99884893198E+000,  0.11510680180E-002
  0.28500000000E+002,  0.19999138265E+007,  0.19000000000E+002,  0.99883780876E+000,  0.11621912415E-002
  0.30500000000E+002,  0.19999122079E+007,  0.19000000000E+002,  0.99882670733E+000,  0.11732926675E-002
  0.32500000000E+002,  0.19999108029E+007,  0.19000000000E+002,  0.99881562456E+000,  0.11843754440E-002
  0.34500000000E+002,  0.19999096035E+007,  0.19000000000E+002,  0.99880456031E+000,  0.11954396858E-002
  0.36500000000E+002,  0.19999085848E+007,  0.19000000000E+002,  0.99879351184E+000,  0.12064881553E-002
  0.38500000000E+002,  0.19999077427E+007,  0.19000000000E+002,  0.99878247926E+000,  0.12175207360E-002
  0.40500000000E+002,  0.19999070550E+007,  0.19000000000E+002,  0.99877146003E+000,  0.12285399671E-002
  0.42500000000E+002,  0.19999065210E+007,  0.19000000000E+002,  0.99876045456E+000,  0.12395454358E-002
  0.44500000000E+002,  0.19999061193E+007,  0.19000000000E+002,  0.99874946035E+000,  0.12505396480E-002
  0.46500000000E+002,  0.19999058543E+007,  0.19000000000E+002,  0.99873847836E+000,  0.12615216382E-002
  0.48500000000E+002,  0.19999057002E+007,  0.19000000000E+002,  0.99872750565E+000,  0.12724943496E-002
  0.50500000000E+002,  0.19999056987E+007,  0.19000000000E+002,  0.99871654804E+000,  0.12834519617E-002
  0.52500000000E+002,  0.19999057080E+007,  0.19000000000E+002,  0.99870558865E+000,  0.12944113520E-002
  0.54500000000E+002,  0.19999058777E+007,  0.19000000000E+002,  0.99869464158E+000,  0.13053584160E-002
  0.56500000000E+002,  0.19999061369E+007,  0.19000000000E+002,  0.99868370326E+000,  0.13162967409E-002
  0.58500000000E+002,  0.19999064737E+007,  0.19000000000E+002,  0.99867277191E+000,  0.13272280853E-002
  0.60500000000E+002,  0.19999068932E+007,  0.19000000000E+002,  0.99866184758E+000,  0.13381524191E-002
  0.62500000000E+002,  0.19999073822E+007,  0.19000000000E+002,  0.99865092941E+000,  0.13490705875E-002
  0.64500000000E+002,  0.19999079417E+007,  0.19000000000E+002,  0.99864001724E+000,  0.13599827595E-002
  0.66500000000E+002,  0.19999085616E+007,  0.19000000000E+002,  0.99862911051E+000,  0.13708894947E-002
  0.68500000000E+002,  0.19999092402E+007,  0.19000000000E+002,  0.99861820892E+000,  0.13817910848E-002
  0.70500000000E+002,  0.19999099742E+007,  0.19000000000E+002,  0.99860731220E+000,  0.13926877989E-002
  0.72500000000E+002,  0.19999107557E+007,  0.19000000000E+002,  0.99859642000E+000,  0.14035800002E-002
  0.74500000000E+002,  0.19999115835E+007,  0.19000000000E+002,  0.99858553204E+000,  0.14144679559E-002
  0.76500000000E+002,  0.19999124546E+007,  0.19000000000E+002,  0.99857464809E+000,  0.14253519062E-002
  0.78500000000E+002,  0.19999133625E+007,  0.19000000000E+002,  0.99856376790E+000,  0.14362320952E-002
  0.80500000000E+002,  0.19999143063E+007,  0.19000000000E+002,  0.99855289125E+000,  0.14471087499E-002
  0.82500000000E+002,  0.19999152834E+007,  0.19000000000E+002,  0.99854201792E+000,  0.14579820771E-002
  0.84500000000E+002,  0.19999162885E+007,  0.19000000000E+002,  0.99853114776E+000,  0.14688522430E-002
  0.86500000000E+002,  0.19999173207E+007,  0.19000000000E+002,  0.99852028056E+000,  0.14797194441E-002
  0.88500000000E+002,  0.19999183783E+007,  0.19000000000E+002,  0.99850941614E+000,  0.14905838595E-002
  0.90500000000E+002,  0.19999194564E+007,  0.19000000000E+002,  0.99849855440E+000,  0.15014456030E-002
  0.92500000000E+002,  0.19999205547E+007,  0.19000000000E+002,  0.99848769516E+000,  0.15123048392E-002
  0.94500000000E+002,  0.19999216718E+007,  0.19000000000E+002,  0.99847683828E+000,  0.15231617239E-002
  0.96500000000E+002,  0.19999228033E+007,  0.19000000000E+002,  0.99846598367E+000,  0.15340163306E-002
  0.98500000000E+002,  0.19999239494E+007,  0.19000000000E+002,  0.99845513120E+000,  0.15448688017E-002
  0.10050000000E+003,  0.19999251088E+007,  0.19000000000E+002,  0.99844428072E+000,  0.15557192758E-002
  0.10250000000E+003,  0.19999262779E+007,  0.19000000000E+002,  0.99843343221E+000,  0.15665677932E-002
  0.10450000000E+003,  0.19999274569E+007,  0.19000000000E+002,  0.99842258552E+000,  0.15774144824E-002
  0.10650000000E+003,  0.19999286451E+007,  0.19000000000E+002,  0.99841174054E+000,  0.15882594625E-002
  0.10850000000E+003,  0.19999298390E+007,  0.19000000000E+002,  0.99840089725E+000,  0.15991027511E-002
  0.11050000000E+003,  0.19999310391E+007,  0.19000000000E+002,  0.99839005554E+000,  0.16099444608E-002
  0.11250000000E+003,  0.19999322450E+007,  0.19000000000E+002,  0.99837921530E+000,  0.16207847000E-002
  0.11450000000E+003,  0.19999334536E+007,  0.19000000000E+002,  0.99836837653E+000,  0.16316234654E-002
  0.11650000000E+003,  0.19999346655E+007,  0.19000000000E+002,  0.99835753914E+000,  0.16424608584E-002
  0.11850000000E+003,  0.19999358804E+007,  0.19000000000E+002,  0.99834670302E+000,  0.16532969797E-002
  0.12050000000E+003,  0.19999370955E+007,  0.19000000000E+002,  0.99833586820E+000,  0.16641318048E-002
  0.12250000000E+003,  0.19999383118E+007,  0.19000000000E+002,  0.99832503457E+000,  0.16749654328E-002
  0.12450000000E+003,  0.19999395290E+007,  0.19000000000E+002,  0.99831420205E+000,  0.16857979547E-002
  0.12650000000E+003,  0.19999407444E+007,  0.19000000000E+002,  0.99830337067E+000,  0.16966293331E-002
  0.12850000000E+003,  0.19999419593E+007,  0.19000000000E+002,  0.99829254034E+000,  0.17074596558E-002
  0.13050000000E+003,  0.19999431734E+007,  0.19000000000E+002,  0.99828171099E+000,  0.17182890120E-002
  0.13250000000E+003,  0.19999443844E+007,  0.19000000000E+002,  0.99827088265E+000,  0.17291173491E-002
  0.13450000000E+003,  0.19999455933E+007,  0.19000000000E+002,  0.99826005525E+000,  0.17399447515E-002
  0.13650000000E+003,  0.19999468004E+007,  0.19000000000E+002,  0.99824922869E+000,  0.17507713064E-002
  0.13850000000E+003,  0.19999480031E+007,  0.19000000000E+002,  0.99823840305E+000,  0.17615969477E-002
  0.14050000000E+003,  0.19999492029E+007,  0.19000000000E+002,  0.99822757824E+000,  0.17724217591E-002
  0.14250000000E+003,  0.19999503998E+007,  0.19000000000E+002,  0.99821675418E+000,  0.17832458215E-002
  0.14450000000E+003,  0.19999515915E+007,  0.19000000000E+002,  0.99820593094E+000,  0.17940690615E-002
  0.14650000000E+003,  0.19999527795E+007,  0.19000000000E+002,  0.99819510844E+000,  0.18048915552E-002
  0.14850000000E+003,  0.19999539640E+007,  0.19000000000E+002,  0.99818428661E+000,  0.18157133864E-002
  0.15050000000E+003,  0.19999551428E+007,  0.19000000000E+002,  0.99817346553E+000,  0.18265344689E-002
  0.15250000000E+003,  0.19999563172E+007,  0.19000000000E+002,  0.99816264512E+000,  0.18373548820E-002
  0.15450000000E+003,  0.19999574876E+007,  0.19000000000E+002,  0.99815182529E+000,  0.18481747055E-002
  0.15650000000E+003,  0.19999586520E+007,  0.19000000000E+002,  0.99814100616E+000,  0.18589938433E-002
  0.15850000000E+003,  0.19999598116E+007,  0.19000000000E+002,  0.99813018762E+000,  0.18698123753E-002
  0.16050000000E+003,  0.19999609669E+007,  0.19000000000E+002,  0.99811936962E+000,  0.18806303822E-002
  0.16250000000E+003,  0.19999621158E+007,  0.19000000000E+002,  0.99810855224E+000,  0.18914477608E-002
  0.16450000000E+003,  0.19999632598E+007,  0.19000000000E+002,  0.99809773541E+000,  0.19022645896E-002
  0.16650000000E+003,  0.19999643992E+007,  0.19000000000E+002,  0.99808691905E+000,  0.19130809457E-002
  0.16850000000E+003,  0.19999655321E+007,  0.19000000000E+002,  0.99807610328E+000,  0.19238967187E-002
  0.17050000000E+003,  0.19999666599E+007,  0.19000000000E+002,  0.99806528801E+000,  0.19347119895E-002
  0.17250000000E+003,  0.19999677830E+007,  0.19000000000E+002,  0.99805447316E+000,  0.19455268365E-002
  0.17450000000E+003,  0.19999688996E+007,  0.19000000000E+002,  0.99804365886E+000,  0.19563411416E-002
  0.17650000000E+003,  0.19999700110E+007,  0.19000000000E+002,  0.99803284501E+000,  0.19671549853E-002
  0.17850000000E+003,  0.19999711177E+007,  0.19000000000E+002,  0.99802203155E+000,  0.19779684472E-002
  0.18050000000E+003,  0.19999722179E+007,  0.19000000000E+002,  0.99801121860E+000,  0.19887814007E-002
  0.18250000000E+003,  0.19999733129E+007,  0.19000000000E+002,  0.99800040607E+000,  0.19995939308E-002
  0.18450000000E+003,  0.19999744032E+007,  0.19000000000E+002,  0.99798959388E+000,  0.20104061157E-002
  0.18650000000E+003,  0.19999754870E+007,  0.19000000000E+002,  0.99797878217E+000,  0.20212178258E-002
  0.18850000000E+003,  0.19999765658E+007,  0.19000000000E+002,  0.99796797086E+000,  0.20320291409E-002
  0.19050000000E+003,  0.19999776399E+007,  0.19000000000E+002,  0.99795715986E+000,  0.20428401436E-002
  0.19250000000E+003,  0.19999787076E+007,  0.19000000000E+002,  0.99794634930E+000,  0.20536506963E-002
  0.19450000000E+003,  0.19999797703E+007,  0.19000000000E+002,  0.99793553911E+000,  0.20644608851E-002
  0.19650000000E+003,  0.19999808286E+007,  0.19000000000E+002,  0.99792472921E+000,  0.20752707884E-002
  0.19850000000E+003,  0.19999818805E+007,  0.19000000000E+002,  0.99791391974E+000,  0.20860802645E-002
  0.20050000000E+003,  0.19999829275E+007,  0.19000000000E+002,  0.99790311060E+000,  0.20968893998E-002
  0.20250000000E+003,  0.19999839702E+007,  0.19000000000E+002,  0.99789230172E+000,  0.21076982767E-002
  0.20450000000E+003,  0.19999850067E+007,  0.19000000000E+002,  0.99788149325E+000,  0.21185067488E-002
  0.20650000000E+003,  0.19999860384E+007,  0.19000000000E+002,  0.99787068510E+000,  0.21293149008E-002
  0.20850000000E+003,  0.19999870659E+007,  0.19000000000E+002,  0.99785987718E+000,  0.21401228166E-002
  0.21050000000E+003,  0.19999880875E+007,  0.19000000000E+002,  0.99784906966E+000,  0.21509303432E-002
  0.21250000000E+003,  0.19999891044E+007,  0.19000000000E+002,  0.99783826243E+000,  0.21617375700E-002
  0.21450000000E+003,  0.19999901172E+007,  0.19000000000E+002,  0.99782745542E+000,  0.21725445820E-002
  0.21650000000E+003,  0.19999911242E+007,  0.19000000000E+002,  0.99781664878E+000,  0.21833512197E-002
  0.21850000000E+003,  0.19999921268E+007,  0.19000000000E+002,  0.99780584242E+000,  0.21941575760E-002
  0.22050000000E+003,  0.19999931255E+007,  0.19000000000E+002,  0.99779503626E+000,  0.22049637356E-002
  0.22250000000E+003,  0.19999941185E+007,  0.19000000000E+002,  0.99778423046E+000,  0.22157695360E-002
  0.22450000000E+003,  0.19999951072E+007,  0.19000000000E+002,  0.99777342493E+000,  0.22265750691E-002
  0.22650000000E+003,  0.19999960921E+007,  0.19000000000E+002,  0.99776261958E+000,  0.22373804222E-002
  0.22850000000E+003,  0.19999970716E+007,  0.19000000000E+002,  0.99775181457E+000,  0.22481854296E-002
  0.23050000000E+003,  0.19999980470E+007,  0.19000000000E+002,  0.99774100982E+000,  0.22589901844E-002
  0.23250000000E+003,  0.19999990187E+007,  0.19000000000E+002,  0.99773020523E+000,  0.22697947725E-002
  0.23450000000E+003,  0.19999999851E+007,  0.19000000000E+002,  0.99771940097E+000,  0.22805990253E-002
  0.23650000000E+003,  0.20000009477E+007,  0.19000000000E+002,  0.99770859696E+000,  0.22914030378E-002
  0.23850000000E+003,  0.20000019067E+007,  0.19000000000E+002,  0.99769779310E+000,  0.23022068973E-002
  0.24050000000E+003,  0.20000028606E+007,  0.19000000000E+002,  0.99768698957E+000,  0.23130104313E-002
  0.24250000000E+003,  0.20000038108E+007,  0.19000000000E+002,  0.99767618626E+000,  0.23238137355E-002
  0.24450000000E+003,  0.20000047576E+007,  0.19000000000E+002,  0.99766538310E+000,  0.23346168995E-002
  0.24650000000E+003,  0.20000056995E+007,  0.19000000000E+002,  0.99765458025E+000,  0.23454197473E-002
  0.24850000000E+003,  0.20000066377E+007,  0.19000000000E+002,  0.99764377763E+000,  0.23562223750E-002
  0.25050000000E+003,  0.20000075728E+007,  0.19000000000E+002,  0.99763297513E+000,  0.23670248740E-002
  0.25250000000E+003,  0.20000085031E+007,  0.19000000000E+002,  0.99762217294E+000,  0.23778270648E-002
  0.25450000000E+003,  0.20000094300E+007,  0.19000000000E+002,  0.99761137095E+000,  0.23886290453E-002
  0.25650000000E+003,  0.20000103538E+007,  0.19000000000E+002,  0.99760056909E+000,  0.23994309068E-002
  0.25850000000E+003,  0.20000112730E+007,  0.19000000000E+002,  0.99758976753E+000,  0.24102324671E-002
  0.26050000000E+003,  0.20000121889E+007,  0.19000000000E+002,  0.99757896618E+000,  0.24210338234E-002
  0.26250000000E+003,  0.20000131019E+007,  0.19000000000E+002,  0.99756816493E+000,  0.24318350715E-002
  0.26450000000E+003,  0.20000140105E+007,  0.19000000000E+002,  0.99755736397E+000,  0.24426360256E-002
  0.26650000000E+003,  0.20000149158E+007,  0.19000000000E+002,  0.99754656322E+000,  0.24534367832E-002
  0.26850000000E+003,  0.20000158185E+007,  0.19000000000E+002,  0.99753576256E+000,  0.24642374408E-002
  0.27050000000E+003,  0.20000167168E+007,  0.19000000000E+002,  0.99752496219E+000,  0.24750378115E-002
  0.27250000000E+003,  0.20000176120E+007,  0.19000000000E+002,  0.99751416201E+000,  0.24858379926E-002
  0.27450000000E+003,  0.20000185047E+007,  0.19000000000E+002,  0.99750336192E+000,  0.24966380809E-002
  0.27650000000E+003,  0.20000193932E+007,  0.19000000000E+002,  0.99749256211E+000,  0.25074378867E-002
  0.27850000000E+003,  0.20000202787E+007,  0.19000000000E+002,  0.99748176249E+000,  0.25182375112E-002
  0.28050000000E+003,  0.20000211618E+007,  0.19000000000E+002,  0.99747096295E+000,  0.25290370486E-002
  0.28250000000E+003,  0.20000220408E+007,  0.19000000000E+002,  0.99746016369E+000,  0.25398363068E-002
  0.28450000000E+003,  0.20000229171E+007,  0.19000000000E+002,  0.99744936461E+000,  0.25506353900E-002
  0.28650000000E+003,  0.20000237910E+007,  0.19000000000E+002,  0.99743856561E+000,  0.25614343935E-002
  0.28850000000E+003,  0.20000246609E+007,  0.19000000000E+002,  0.99742776688E+000,  0.25722331222E-002
  0.29050000000E+003,  0.20000255282E+007,  0.19000000000E+002,  0.99741696832E+000,  0.25830316798E-002
  0.29250000000E+003,  0.20000263933E+007,  0.19000000000E+002,  0.99740616983E+000,  0.25938301652E-002
  0.29450000000E+003,  0.20000272545E+007,  0.19000000000E+002,  0.99739537162E+000,  0.26046283802E-002
  0.29650000000E+003,  0.20000281132E+007,  0.19000000000E+002,  0.99738457357E+000,  0.26154264284E-002
  0.29850000000E+003,  0.20000289698E+007,  0.19000000000E+002,  0.99737377559E+000,  0.26262244103E-002
  0.30050000000E+003,  0.20000298226E+007,  0.19000000000E+002,  0.99736297787E+000,  0.26370221255E-002
  0.30250000000E+003,  0.20000306730E+007,  0.19000000000E+002,  0.99735218032E+000,  0.26478196804E-002
  0.30450000000E+003,  0.20000315214E+007,  0.19000000000E+002,  0.99734138283E+000,  0.26586171727E-002
  0.30650000000E+003,  0.20000323662E+007,  0.19000000000E+002,  0.99733058560E+000,  0.26694144018E-002
  0.30850000000E+003,  0.20000332087E+007,  0.19000000000E+002,  0.99731978853E+000,  0.26802114747E-002
  0.31050000000E+003,  0.20000340492E+007,  0.19000000000E+002,  0.99730899151E+000,  0.26910084897E-002
  0.31250000000E+003,  0.20000348862E+007,  0.19000000000E+002,  0.99729819476E+000,  0.27018052440E-002
  0.31450000000E+003,  0.20000357210E+007,  0.19000000000E+002,  0.99728739815E+000,  0.27126018453E-002
  0.31650000000E+003,  0.20000365539E+007,  0.19000000000E+002,  0.99727660161E+000,  0.27233983943E-002
  0.31850000000E+003,  0.20000373834E+007,  0.19000000000E+002,  0.99726580531E+000,  0.27341946869E-002
  0.32050000000E+003,  0.20000382108E+007,  0.19000000000E+002,  0.99725500917E+000,  0.27449908281E-002
  0.32250000000E+003,  0.20000390365E+007,  0.19000000000E+002,  0.99724421308E+000,  0.27557869219E-002
  0.32450000000E+003,  0.20000398588E+007,  0.19000000000E+002,  0.99723341724E+000,  0.27665827599E-002
  0.32650000000E+003,  0.20000406790E+007,  0.19000000000E+002,  0.99722262155E+000,  0.27773784517E-002
  0.32850000000E+003,  0.20000414976E+007,  0.19000000000E+002,  0.99721182590E+000,  0.27881741001E-002
  0.33050000000E+003,  0.20000423129E+007,  0.19000000000E+002,  0.99720103050E+000,  0.27989694956E-002
  0.33250000000E+003,  0.20000431263E+007,  0.19000000000E+002,  0.99719023525E+000,  0.28097647470E-002
  0.33450000000E+003,  0.20000439381E+007,  0.19000000000E+002,  0.99717944004E+000,  0.28205599591E-002
  0.33650000000E+003,  0.20000447467E+007,  0.19000000000E+002,  0.99716864508E+000,  0.28313549213E-002
  0.33850000000E+003,  0.20000455534E+007,  0.19000000000E+002,  0.99715785026E+000,  0.28421497439E-002
  0.34050000000E+003,  0.20000463586E+007,  0.19000000000E+002,  0.99714705547E+000,  0.28529445291E-002
  0.34250000000E+003,  0.20000471607E+007,  0.19000000000E+002,  0.99713626093E+000,  0.28637390658E-002
  0.34450000000E+003,  0.20000479610E+007,  0.19000000000E+002,  0.99712546654E+000,  0.28745334648E-002
  0.34650000000E+003,  0.20000487599E+007,  0.19000000000E+002,  0.99711467217E+000,  0.28853278306E-002
  0.34850000000E+003,  0.20000495557E+007,  0.19000000000E+002,  0.99710387805E+000,  0.28961219494E-002
  0.35050000000E+003,  0.20000503498E+007,  0.19000000000E+002,  0.99709308407E+000,  0.29069159327E-002
  0.35250000000E+003,  0.20000511424E+007,  0.19000000000E+002,  0.99708229011E+000,  0.29177098865E-002
  0.35450000000E+003,  0.20000519322E+007,  0.19000000000E+002,  0.99707149640E+000,  0.29285035960E-002
  0.35650000000E+003,  0.20000527202E+007,  0.19000000000E+002,  0.99706070283E+000,  0.29392971727E-002
  0.35850000000E+003,  0.20000535071E+007,  0.19000000000E+002,  0.99704990940E+000,  0.29500906020E-002
  0.36050000000E+003,  0.20000542915E+007,  0.19000000000E+002,  0.99703911599E+000,  0.29608840095E-002
  0.36250000000E+003,  0.20000550734E+007,  0.19000000000E+002,  0.99702832282E+000,  0.29716771819E-002
  0.36450000000E+003,  0.20000558536E+007,  0.19000000000E+002,  0.99701752977E+000,  0.29824702254E-002
  0.36650000000E+003,  0.20000566326E+007,  0.19000000000E+002,  0.99700673675E+000,  0.29932632454E-002
  0.36850000000E+003,  0.20000574089E+007,  0.19000000000E+002,  0.99699594398E+000,  0.30040560236E-002
  0.37050000000E+003,  0.20000581835E+007,  0.19000000000E+002,  0.99698515133E+000,  0.30148486739E-002
  0.37250000000E+003,  0.20000589572E+007,  0.19000000000E+002,  0.99697435882E+000,  0.30256411844E-002
  0.37450000000E+003,  0.20000597285E+007,  0.19000000000E+002,  0.99696356632E+000,  0.30364336777E-002
  0.37650000000E+003,  0.20000604974E+007,  0.19000000000E+002,  0.99695277406E+000,  0.30472259391E-002
