"           TIME(S)","              PRES","              TEMP","             SAT_G","             SAT_L"
  0.17962950000E+008,  0.20999954293E+007,  0.19000000000E+002,  0.00000000000E+000,  0.10000000000E+001
  0.17963100000E+008,  0.20997458137E+007,  0.19000000000E+002,  0.00000000000E+000,  0.10000000000E+001
  0.17963250000E+008,  0.20992356407E+007,  0.19000000000E+002,  0.00000000000E+000,  0.10000000000E+001
  0.17963400000E+008,  0.20985474512E+007,  0.19000000000E+002,  0.00000000000E+000,  0.10000000000E+001
  0.17963550000E+008,  0.20977751076E+007,  0.19000000000E+002,  0.00000000000E+000,  0.10000000000E+001
  0.17963700000E+008,  0.20969843722E+007,  0.19000000000E+002,  0.00000000000E+000,  0.10000000000E+001
  0.17963850000E+008,  0.20962109028E+007,  0.19000000000E+002,  0.00000000000E+000,  0.10000000000E+001
  0.17964000000E+008,  0.20954697087E+007,  0.19000000000E+002,  0.00000000000E+000,  0.10000000000E+001
  0.17964150000E+008,  0.20947643163E+007,  0.19000000000E+002,  0.00000000000E+000,  0.10000000000E+001
  0.17964225000E+008,  0.20944205300E+007,  0.19000000000E+002,  0.00000000000E+000,  0.10000000000E+001
  0.17964375000E+008,  0.20937651456E+007,  0.19000000000E+002,  0.00000000000E+000,  0.10000000000E+001
  0.17964525000E+008,  0.20931376777E+007,  0.19000000000E+002,  0.00000000000E+000,  0.10000000000E+001
  0.17964675000E+008,  0.20925341029E+007,  0.19000000000E+002,  0.00000000000E+000,  0.10000000000E+001
  0.17964825000E+008,  0.20919510135E+007,  0.19000000000E+002,  0.00000000000E+000,  0.10000000000E+001
  0.17964975000E+008,  0.20913856738E+007,  0.19000000000E+002,  0.00000000000E+000,  0.10000000000E+001
  0.17965125000E+008,  0.20908359499E+007,  0.19000000000E+002,  0.00000000000E+000,  0.10000000000E+001
  0.17965275000E+008,  0.20903002024E+007,  0.19000000000E+002,  0.00000000000E+000,  0.10000000000E+001
  0.17965425000E+008,  0.20897771787E+007,  0.19000000000E+002,  0.00000000000E+000,  0.10000000000E+001
  0.17965575000E+008,  0.20892659205E+007,  0.19000000000E+002,  0.00000000000E+000,  0.10000000000E+001
  0.17965725000E+008,  0.20887656860E+007,  0.19000000000E+002,  0.00000000000E+000,  0.10000000000E+001
  0.17965800001E+008,  0.20885182393E+007,  0.19000000000E+002,  0.00000000000E+000,  0.10000000000E+001
  0.17965837501E+008,  0.20883951729E+007,  0.19000000000E+002,  0.00000000000E+000,  0.10000000000E+001
  0.17965987501E+008,  0.20879127150E+007,  0.19000000000E+002,  0.00000000000E+000,  0.10000000000E+001
  0.17966062502E+008,  0.20876738372E+007,  0.19000000000E+002,  0.00000000000E+000,  0.10000000000E+001
  0.17966100002E+008,  0.20875549726E+007,  0.19000000000E+002,  0.00000000000E+000,  0.10000000000E+001
  0.17966118753E+008,  0.20874956820E+007,  0.19000000000E+002,  0.00000000000E+000,  0.10000000000E+001
  0.17966212504E+008,  0.20872025155E+007,  0.19000000000E+002,  0.00000000000E+000,  0.10000000000E+001
  0.17966259380E+008,  0.20870567162E+007,  0.19000000000E+002,  0.00000000000E+000,  0.10000000000E+001
  0.17966409380E+008,  0.20865971413E+007,  0.19000000000E+002,  0.00000000000E+000,  0.10000000000E+001
  0.17966559380E+008,  0.20861438815E+007,  0.19000000000E+002,  0.00000000000E+000,  0.10000000000E+001
  0.17966634381E+008,  0.20859187656E+007,  0.19000000000E+002,  0.00000000000E+000,  0.10000000000E+001
  0.17966671881E+008,  0.20858065782E+007,  0.19000000000E+002,  0.00000000000E+000,  0.10000000000E+001
  0.17966690632E+008,  0.20857505759E+007,  0.19000000000E+002,  0.00000000000E+000,  0.10000000000E+001
  0.17966700007E+008,  0.20857225975E+007,  0.19000000000E+002,  0.00000000000E+000,  0.10000000000E+001
  0.17966704695E+008,  0.20857086138E+007,  0.19000000000E+002,  0.00000000000E+000,  0.10000000000E+001
  0.17966728133E+008,  0.20856388358E+007,  0.19000000000E+002,  0.00000000000E+000,  0.10000000000E+001
  0.17966845324E+008,  0.20852929680E+007,  0.19000000000E+002,  0.00000000000E+000,  0.10000000000E+001
  0.17966903920E+008,  0.20851207196E+007,  0.19000000000E+002,  0.00000000000E+000,  0.10000000000E+001
  0.17967053920E+008,  0.20846830812E+007,  0.19000000000E+002,  0.00000000000E+000,  0.10000000000E+001
  0.17967128920E+008,  0.20844649187E+007,  0.19000000000E+002,  0.00000000000E+000,  0.10000000000E+001
  0.17967278920E+008,  0.20840299193E+007,  0.19000000000E+002,  0.00000000000E+000,  0.10000000000E+001
  0.17967353921E+008,  0.20838125900E+007,  0.19000000000E+002,  0.00000000000E+000,  0.10000000000E+001
  0.17967503921E+008,  0.20833777586E+007,  0.19000000000E+002,  0.00000000000E+000,  0.10000000000E+001
  0.17967653921E+008,  0.20829423044E+007,  0.19000000000E+002,  0.00000000000E+000,  0.10000000000E+001
  0.17967803921E+008,  0.20825060768E+007,  0.19000000000E+002,  0.00000000000E+000,  0.10000000000E+001
  0.17967953921E+008,  0.20820691153E+007,  0.19000000000E+002,  0.00000000000E+000,  0.10000000000E+001
  0.17968103921E+008,  0.20816315717E+007,  0.19000000000E+002,  0.00000000000E+000,  0.10000000000E+001
  0.17968253921E+008,  0.20811936580E+007,  0.19000000000E+002,  0.00000000000E+000,  0.10000000000E+001
  0.17968403921E+008,  0.20807556118E+007,  0.19000000000E+002,  0.00000000000E+000,  0.10000000000E+001
  0.17968553921E+008,  0.20803176742E+007,  0.19000000000E+002,  0.00000000000E+000,  0.10000000000E+001
  0.17968703921E+008,  0.20798800776E+007,  0.19000000000E+002,  0.00000000000E+000,  0.10000000000E+001
  0.17968853921E+008,  0.20794430383E+007,  0.19000000000E+002,  0.00000000000E+000,  0.10000000000E+001
  0.17969003921E+008,  0.20790067534E+007,  0.19000000000E+002,  0.00000000000E+000,  0.10000000000E+001
  0.17969153921E+008,  0.20785713994E+007,  0.19000000000E+002,  0.00000000000E+000,  0.10000000000E+001
  0.17969303921E+008,  0.20781371329E+007,  0.19000000000E+002,  0.00000000000E+000,  0.10000000000E+001
  0.17969453921E+008,  0.20777040916E+007,  0.19000000000E+002,  0.00000000000E+000,  0.10000000000E+001
  0.17969603921E+008,  0.20772723955E+007,  0.19000000000E+002,  0.00000000000E+000,  0.10000000000E+001
  0.17969753921E+008,  0.20768421491E+007,  0.19000000000E+002,  0.00000000000E+000,  0.10000000000E+001
  0.17969903921E+008,  0.20764134425E+007,  0.19000000000E+002,  0.00000000000E+000,  0.10000000000E+001
  0.17970053921E+008,  0.20759863537E+007,  0.19000000000E+002,  0.00000000000E+000,  0.10000000000E+001
  0.17970203921E+008,  0.20755609496E+007,  0.19000000000E+002,  0.00000000000E+000,  0.10000000000E+001
  0.17970353921E+008,  0.20751372876E+007,  0.19000000000E+002,  0.00000000000E+000,  0.10000000000E+001
  0.17970503921E+008,  0.20747154169E+007,  0.19000000000E+002,  0.00000000000E+000,  0.10000000000E+001
  0.17970653921E+008,  0.20742953795E+007,  0.19000000000E+002,  0.00000000000E+000,  0.10000000000E+001
  0.17970803921E+008,  0.20738772111E+007,  0.19000000000E+002,  0.00000000000E+000,  0.10000000000E+001
  0.17970953921E+008,  0.20734609423E+007,  0.19000000000E+002,  0.00000000000E+000,  0.10000000000E+001
  0.17971103921E+008,  0.20730465989E+007,  0.19000000000E+002,  0.00000000000E+000,  0.10000000000E+001
  0.17971253921E+008,  0.20726342028E+007,  0.19000000000E+002,  0.00000000000E+000,  0.10000000000E+001
  0.17971403921E+008,  0.20722237724E+007,  0.19000000000E+002,  0.00000000000E+000,  0.10000000000E+001
  0.17971553921E+008,  0.20718153232E+007,  0.19000000000E+002,  0.00000000000E+000,  0.10000000000E+001
  0.17971703921E+008,  0.20714088682E+007,  0.19000000000E+002,  0.00000000000E+000,  0.10000000000E+001
  0.17971853921E+008,  0.20710044179E+007,  0.19000000000E+002,  0.00000000000E+000,  0.10000000000E+001
  0.17972003921E+008,  0.20706019812E+007,  0.19000000000E+002,  0.00000000000E+000,  0.10000000000E+001
  0.17972153921E+008,  0.20702015649E+007,  0.19000000000E+002,  0.00000000000E+000,  0.10000000000E+001
  0.17972303921E+008,  0.20698031746E+007,  0.19000000000E+002,  0.00000000000E+000,  0.10000000000E+001
  0.17972453921E+008,  0.20694068144E+007,  0.19000000000E+002,  0.00000000000E+000,  0.10000000000E+001
  0.17972603921E+008,  0.20690124875E+007,  0.19000000000E+002,  0.00000000000E+000,  0.10000000000E+001
  0.17972753921E+008,  0.20686201956E+007,  0.19000000000E+002,  0.00000000000E+000,  0.10000000000E+001
  0.17972903921E+008,  0.20682299399E+007,  0.19000000000E+002,  0.00000000000E+000,  0.10000000000E+001
  0.17973053921E+008,  0.20678417206E+007,  0.19000000000E+002,  0.00000000000E+000,  0.10000000000E+001
  0.17973203921E+008,  0.20674555370E+007,  0.19000000000E+002,  0.00000000000E+000,  0.10000000000E+001
  0.17973353921E+008,  0.20670713880E+007,  0.19000000000E+002,  0.00000000000E+000,  0.10000000000E+001
  0.17973503921E+008,  0.20666892717E+007,  0.19000000000E+002,  0.00000000000E+000,  0.10000000000E+001
  0.17973653921E+008,  0.20663091857E+007,  0.19000000000E+002,  0.00000000000E+000,  0.10000000000E+001
  0.17973803921E+008,  0.20659311270E+007,  0.19000000000E+002,  0.00000000000E+000,  0.10000000000E+001
  0.17973953921E+008,  0.20655550922E+007,  0.19000000000E+002,  0.00000000000E+000,  0.10000000000E+001
  0.17974103921E+008,  0.20651810776E+007,  0.19000000000E+002,  0.00000000000E+000,  0.10000000000E+001
  0.17974253921E+008,  0.20648090788E+007,  0.19000000000E+002,  0.00000000000E+000,  0.10000000000E+001
  0.17974403921E+008,  0.20644390914E+007,  0.19000000000E+002,  0.00000000000E+000,  0.10000000000E+001
  0.17974553921E+008,  0.20640711102E+007,  0.19000000000E+002,  0.00000000000E+000,  0.10000000000E+001
  0.17974703921E+008,  0.20637051302E+007,  0.19000000000E+002,  0.00000000000E+000,  0.10000000000E+001
  0.17974853921E+008,  0.20633411458E+007,  0.19000000000E+002,  0.00000000000E+000,  0.10000000000E+001
  0.17975003921E+008,  0.20629791512E+007,  0.19000000000E+002,  0.00000000000E+000,  0.10000000000E+001
  0.17975153921E+008,  0.20626191404E+007,  0.19000000000E+002,  0.00000000000E+000,  0.10000000000E+001
  0.17975303921E+008,  0.20622611070E+007,  0.19000000000E+002,  0.00000000000E+000,  0.10000000000E+001
  0.17975453921E+008,  0.20619050446E+007,  0.19000000000E+002,  0.00000000000E+000,  0.10000000000E+001
  0.17975603921E+008,  0.20615509466E+007,  0.19000000000E+002,  0.00000000000E+000,  0.10000000000E+001
  0.17975753921E+008,  0.20611988060E+007,  0.19000000000E+002,  0.00000000000E+000,  0.10000000000E+001
  0.17975903921E+008,  0.20608486159E+007,  0.19000000000E+002,  0.00000000000E+000,  0.10000000000E+001
  0.17976053921E+008,  0.20605003690E+007,  0.19000000000E+002,  0.00000000000E+000,  0.10000000000E+001
  0.17976203921E+008,  0.20601540581E+007,  0.19000000000E+002,  0.00000000000E+000,  0.10000000000E+001
  0.17976353921E+008,  0.20598096757E+007,  0.19000000000E+002,  0.00000000000E+000,  0.10000000000E+001
  0.17976503921E+008,  0.20594672142E+007,  0.19000000000E+002,  0.00000000000E+000,  0.10000000000E+001
  0.17976653921E+008,  0.20591266659E+007,  0.19000000000E+002,  0.00000000000E+000,  0.10000000000E+001
  0.17976803921E+008,  0.20587880231E+007,  0.19000000000E+002,  0.00000000000E+000,  0.10000000000E+001
  0.17976953921E+008,  0.20584512777E+007,  0.19000000000E+002,  0.00000000000E+000,  0.10000000000E+001
  0.17977103921E+008,  0.20581164220E+007,  0.19000000000E+002,  0.00000000000E+000,  0.10000000000E+001
  0.17977253921E+008,  0.20577834477E+007,  0.19000000000E+002,  0.00000000000E+000,  0.10000000000E+001
  0.17977403921E+008,  0.20574523468E+007,  0.19000000000E+002,  0.00000000000E+000,  0.10000000000E+001
  0.17977553921E+008,  0.20571231111E+007,  0.19000000000E+002,  0.00000000000E+000,  0.10000000000E+001
  0.17977703921E+008,  0.20567957322E+007,  0.19000000000E+002,  0.00000000000E+000,  0.10000000000E+001
  0.17977853921E+008,  0.20564702020E+007,  0.19000000000E+002,  0.00000000000E+000,  0.10000000000E+001
  0.17978003921E+008,  0.20561465120E+007,  0.19000000000E+002,  0.00000000000E+000,  0.10000000000E+001
  0.17978153921E+008,  0.20558246537E+007,  0.19000000000E+002,  0.00000000000E+000,  0.10000000000E+001
  0.17978303921E+008,  0.20555046189E+007,  0.19000000000E+002,  0.00000000000E+000,  0.10000000000E+001
  0.17978453921E+008,  0.20551863989E+007,  0.19000000000E+002,  0.00000000000E+000,  0.10000000000E+001
  0.17978603921E+008,  0.20548699853E+007,  0.19000000000E+002,  0.00000000000E+000,  0.10000000000E+001
  0.17978753921E+008,  0.20545553695E+007,  0.19000000000E+002,  0.00000000000E+000,  0.10000000000E+001
  0.17978903921E+008,  0.20542425430E+007,  0.19000000000E+002,  0.00000000000E+000,  0.10000000000E+001
  0.17979053921E+008,  0.20539314971E+007,  0.19000000000E+002,  0.00000000000E+000,  0.10000000000E+001
  0.17979203921E+008,  0.20536222232E+007,  0.19000000000E+002,  0.00000000000E+000,  0.10000000000E+001
  0.17979353921E+008,  0.20533147128E+007,  0.19000000000E+002,  0.00000000000E+000,  0.10000000000E+001
  0.17979503921E+008,  0.20530089572E+007,  0.19000000000E+002,  0.00000000000E+000,  0.10000000000E+001
  0.17979653921E+008,  0.20527049478E+007,  0.19000000000E+002,  0.00000000000E+000,  0.10000000000E+001
  0.17979803921E+008,  0.20524026759E+007,  0.19000000000E+002,  0.00000000000E+000,  0.10000000000E+001
  0.17979953921E+008,  0.20521021329E+007,  0.19000000000E+002,  0.00000000000E+000,  0.10000000000E+001
  0.17980103921E+008,  0.20518033101E+007,  0.19000000000E+002,  0.00000000000E+000,  0.10000000000E+001
  0.17980253921E+008,  0.20515061989E+007,  0.19000000000E+002,  0.00000000000E+000,  0.10000000000E+001
  0.17980403921E+008,  0.20512107906E+007,  0.19000000000E+002,  0.00000000000E+000,  0.10000000000E+001
  0.17980553921E+008,  0.20509170767E+007,  0.19000000000E+002,  0.00000000000E+000,  0.10000000000E+001
  0.17980703921E+008,  0.20506250484E+007,  0.19000000000E+002,  0.00000000000E+000,  0.10000000000E+001
  0.17980853921E+008,  0.20503346972E+007,  0.19000000000E+002,  0.00000000000E+000,  0.10000000000E+001
  0.17981003921E+008,  0.20500460144E+007,  0.19000000000E+002,  0.00000000000E+000,  0.10000000000E+001
  0.17981153921E+008,  0.20497589914E+007,  0.19000000000E+002,  0.00000000000E+000,  0.10000000000E+001
  0.17981303921E+008,  0.20494736197E+007,  0.19000000000E+002,  0.00000000000E+000,  0.10000000000E+001
  0.17981453921E+008,  0.20491898907E+007,  0.19000000000E+002,  0.00000000000E+000,  0.10000000000E+001
  0.17981603921E+008,  0.20489077958E+007,  0.19000000000E+002,  0.00000000000E+000,  0.10000000000E+001
  0.17981753921E+008,  0.20486273266E+007,  0.19000000000E+002,  0.00000000000E+000,  0.10000000000E+001
  0.17981903921E+008,  0.20483484744E+007,  0.19000000000E+002,  0.00000000000E+000,  0.10000000000E+001
  0.17982053921E+008,  0.20480712307E+007,  0.19000000000E+002,  0.00000000000E+000,  0.10000000000E+001
  0.17982203921E+008,  0.20477955872E+007,  0.19000000000E+002,  0.00000000000E+000,  0.10000000000E+001
  0.17982353921E+008,  0.20475215353E+007,  0.19000000000E+002,  0.00000000000E+000,  0.10000000000E+001
  0.17982503921E+008,  0.20472490666E+007,  0.19000000000E+002,  0.00000000000E+000,  0.10000000000E+001
  0.17982653921E+008,  0.20469781727E+007,  0.19000000000E+002,  0.00000000000E+000,  0.10000000000E+001
  0.17982803921E+008,  0.20467088452E+007,  0.19000000000E+002,  0.00000000000E+000,  0.10000000000E+001
  0.17982953921E+008,  0.20464410757E+007,  0.19000000000E+002,  0.00000000000E+000,  0.10000000000E+001
  0.17983103921E+008,  0.20461748559E+007,  0.19000000000E+002,  0.00000000000E+000,  0.10000000000E+001
  0.17983253921E+008,  0.20459101775E+007,  0.19000000000E+002,  0.00000000000E+000,  0.10000000000E+001
  0.17983403921E+008,  0.20456470322E+007,  0.19000000000E+002,  0.00000000000E+000,  0.10000000000E+001
  0.17983553921E+008,  0.20453854118E+007,  0.19000000000E+002,  0.00000000000E+000,  0.10000000000E+001
  0.17983703921E+008,  0.20451253079E+007,  0.19000000000E+002,  0.00000000000E+000,  0.10000000000E+001
  0.17983853921E+008,  0.20448667124E+007,  0.19000000000E+002,  0.00000000000E+000,  0.10000000000E+001
  0.17984003921E+008,  0.20446096172E+007,  0.19000000000E+002,  0.00000000000E+000,  0.10000000000E+001
  0.17984153921E+008,  0.20443540141E+007,  0.19000000000E+002,  0.00000000000E+000,  0.10000000000E+001
  0.17984303921E+008,  0.20440998949E+007,  0.19000000000E+002,  0.00000000000E+000,  0.10000000000E+001
  0.17984453921E+008,  0.20438472516E+007,  0.19000000000E+002,  0.00000000000E+000,  0.10000000000E+001
  0.17984603921E+008,  0.20435960762E+007,  0.19000000000E+002,  0.00000000000E+000,  0.10000000000E+001
  0.17984753921E+008,  0.20433463605E+007,  0.19000000000E+002,  0.00000000000E+000,  0.10000000000E+001
  0.17984903921E+008,  0.20430980966E+007,  0.19000000000E+002,  0.00000000000E+000,  0.10000000000E+001
  0.17985053921E+008,  0.20428512766E+007,  0.19000000000E+002,  0.00000000000E+000,  0.10000000000E+001
  0.17985203921E+008,  0.20426058926E+007,  0.19000000000E+002,  0.00000000000E+000,  0.10000000000E+001
  0.17985353921E+008,  0.20423619365E+007,  0.19000000000E+002,  0.00000000000E+000,  0.10000000000E+001
  0.17985503921E+008,  0.20421194006E+007,  0.19000000000E+002,  0.00000000000E+000,  0.10000000000E+001
  0.17985653921E+008,  0.20418782770E+007,  0.19000000000E+002,  0.00000000000E+000,  0.10000000000E+001
  0.17985803921E+008,  0.20416385580E+007,  0.19000000000E+002,  0.00000000000E+000,  0.10000000000E+001
  0.17985953921E+008,  0.20414002357E+007,  0.19000000000E+002,  0.00000000000E+000,  0.10000000000E+001
  0.17986103921E+008,  0.20411633024E+007,  0.19000000000E+002,  0.00000000000E+000,  0.10000000000E+001
  0.17986253921E+008,  0.20409277504E+007,  0.19000000000E+002,  0.00000000000E+000,  0.10000000000E+001
  0.17986403921E+008,  0.20406935721E+007,  0.19000000000E+002,  0.00000000000E+000,  0.10000000000E+001
  0.17986553921E+008,  0.20404607598E+007,  0.19000000000E+002,  0.00000000000E+000,  0.10000000000E+001
  0.17986703921E+008,  0.20402293059E+007,  0.19000000000E+002,  0.00000000000E+000,  0.10000000000E+001
  0.17986853921E+008,  0.20399992029E+007,  0.19000000000E+002,  0.00000000000E+000,  0.10000000000E+001
  0.17987003921E+008,  0.20397704431E+007,  0.19000000000E+002,  0.00000000000E+000,  0.10000000000E+001
  0.17987153921E+008,  0.20395430192E+007,  0.19000000000E+002,  0.00000000000E+000,  0.10000000000E+001
  0.17987303921E+008,  0.20393169237E+007,  0.19000000000E+002,  0.00000000000E+000,  0.10000000000E+001
  0.17987453921E+008,  0.20390921491E+007,  0.19000000000E+002,  0.00000000000E+000,  0.10000000000E+001
  0.17987603921E+008,  0.20388686880E+007,  0.19000000000E+002,  0.00000000000E+000,  0.10000000000E+001
  0.17987753921E+008,  0.20386465330E+007,  0.19000000000E+002,  0.00000000000E+000,  0.10000000000E+001
  0.17987903921E+008,  0.20384256769E+007,  0.19000000000E+002,  0.00000000000E+000,  0.10000000000E+001
  0.17988053921E+008,  0.20382061123E+007,  0.19000000000E+002,  0.00000000000E+000,  0.10000000000E+001
  0.17988203921E+008,  0.20379878320E+007,  0.19000000000E+002,  0.00000000000E+000,  0.10000000000E+001
  0.17988353921E+008,  0.20377708288E+007,  0.19000000000E+002,  0.00000000000E+000,  0.10000000000E+001
  0.17988503921E+008,  0.20375550954E+007,  0.19000000000E+002,  0.00000000000E+000,  0.10000000000E+001
  0.17988653921E+008,  0.20373406248E+007,  0.19000000000E+002,  0.00000000000E+000,  0.10000000000E+001
  0.17988803921E+008,  0.20371274097E+007,  0.19000000000E+002,  0.00000000000E+000,  0.10000000000E+001
  0.17988953921E+008,  0.20369154431E+007,  0.19000000000E+002,  0.00000000000E+000,  0.10000000000E+001
  0.17989103921E+008,  0.20367047180E+007,  0.19000000000E+002,  0.00000000000E+000,  0.10000000000E+001
  0.17989253921E+008,  0.20364952273E+007,  0.19000000000E+002,  0.00000000000E+000,  0.10000000000E+001
  0.17989403921E+008,  0.20362869641E+007,  0.19000000000E+002,  0.00000000000E+000,  0.10000000000E+001
