"           TIME(S)","              PRES","              TEMP","             SAT_G","             SAT_L"
  0.19073486328E-005,  0.20000000000E+007,  0.19000000000E+002,  0.00000000000E+000,  0.10000000000E+001
  0.11444091797E-004,  0.20000000000E+007,  0.19000000000E+002,  0.00000000000E+000,  0.10000000000E+001
  0.59127807617E-004,  0.20000000000E+007,  0.19000000000E+002,  0.00000000000E+000,  0.10000000000E+001
  0.29754638672E-003,  0.20000000000E+007,  0.19000000000E+002,  0.00000000000E+000,  0.10000000000E+001
  0.14896392822E-002,  0.20000000000E+007,  0.19000000000E+002,  0.00000000000E+000,  0.10000000000E+001
  0.74501037598E-002,  0.20000000000E+007,  0.19000000000E+002,  0.00000000000E+000,  0.10000000000E+001
  0.37252426147E-001,  0.20000000000E+007,  0.19000000000E+002,  0.00000000000E+000,  0.10000000000E+001
  0.18626403809E+000,  0.19999999997E+007,  0.19000000000E+002,  0.00000000000E+000,  0.10000000000E+001
  0.93132209778E+000,  0.19999744024E+007,  0.19000000000E+002,  0.00000000000E+000,  0.10000000000E+001
  0.29313220978E+001,  0.19974424944E+007,  0.19000000000E+002,  0.00000000000E+000,  0.10000000000E+001
  0.49313220978E+001,  0.19902210533E+007,  0.19000000000E+002,  0.00000000000E+000,  0.10000000000E+001
  0.69313220978E+001,  0.19772942727E+007,  0.19000000000E+002,  0.00000000000E+000,  0.10000000000E+001
  0.71813220978E+001,  0.19755876528E+007,  0.19000000000E+002,  0.00000000000E+000,  0.10000000000E+001
  0.84313220978E+001,  0.19647925331E+007,  0.19000000000E+002,  0.00000000000E+000,  0.10000000000E+001
  0.85094471647E+001,  0.19641090149E+007,  0.19000000000E+002,  0.00000000000E+000,  0.10000000000E+001
  0.89000724996E+001,  0.19604733130E+007,  0.19000000000E+002,  0.00000000000E+000,  0.10000000000E+001
  0.90953853672E+001,  0.19586013910E+007,  0.19000000000E+002,  0.00000000000E+000,  0.10000000000E+001
  0.91930419052E+001,  0.19576519758E+007,  0.19000000000E+002,  0.00000000000E+000,  0.10000000000E+001
  0.96813245951E+001,  0.19525806923E+007,  0.19000000000E+002,  0.00000000000E+000,  0.10000000000E+001
  0.11681324595E+002,  0.19277928985E+007,  0.19000000000E+002,  0.00000000000E+000,  0.10000000000E+001
  0.13681324595E+002,  0.19004746388E+007,  0.19000000000E+002,  0.00000000000E+000,  0.10000000000E+001
  0.15681324595E+002,  0.18718561386E+007,  0.19000000000E+002,  0.00000000000E+000,  0.10000000000E+001
  0.17681324595E+002,  0.18428049403E+007,  0.19000000000E+002,  0.00000000000E+000,  0.10000000000E+001
  0.19681324595E+002,  0.18138530157E+007,  0.19000000000E+002,  0.00000000000E+000,  0.10000000000E+001
  0.21681324595E+002,  0.17853560762E+007,  0.19000000000E+002,  0.00000000000E+000,  0.10000000000E+001
  0.23681324595E+002,  0.17575946728E+007,  0.19000000000E+002,  0.00000000000E+000,  0.10000000000E+001
  0.25681324595E+002,  0.17307957497E+007,  0.19000000000E+002,  0.00000000000E+000,  0.10000000000E+001
  0.26681324936E+002,  0.17176620075E+007,  0.19000000000E+002,  0.00000000000E+000,  0.10000000000E+001
  0.28681324936E+002,  0.16925900146E+007,  0.19000000000E+002,  0.00000000000E+000,  0.10000000000E+001
  0.30681324936E+002,  0.16687797623E+007,  0.19000000000E+002,  0.00000000000E+000,  0.10000000000E+001
  0.32681324936E+002,  0.16462379483E+007,  0.19000000000E+002,  0.00000000000E+000,  0.10000000000E+001
  0.34681324936E+002,  0.16249263114E+007,  0.19000000000E+002,  0.00000000000E+000,  0.10000000000E+001
  0.36681324936E+002,  0.16047778321E+007,  0.19000000000E+002,  0.00000000000E+000,  0.10000000000E+001
  0.38681324936E+002,  0.15857190365E+007,  0.19000000000E+002,  0.00000000000E+000,  0.10000000000E+001
  0.40681324936E+002,  0.15676880700E+007,  0.19000000000E+002,  0.00000000000E+000,  0.10000000000E+001
  0.42681324936E+002,  0.15506380713E+007,  0.19000000000E+002,  0.00000000000E+000,  0.10000000000E+001
  0.44681324936E+002,  0.15345328499E+007,  0.19000000000E+002,  0.00000000000E+000,  0.10000000000E+001
  0.46681324936E+002,  0.15193315308E+007,  0.19000000000E+002,  0.00000000000E+000,  0.10000000000E+001
  0.48681324936E+002,  0.15049875297E+007,  0.19000000000E+002,  0.00000000000E+000,  0.10000000000E+001
  0.50681324936E+002,  0.14914466110E+007,  0.19000000000E+002,  0.00000000000E+000,  0.10000000000E+001
  0.52681324936E+002,  0.14786462411E+007,  0.19000000000E+002,  0.00000000000E+000,  0.10000000000E+001
  0.54681324936E+002,  0.14665179048E+007,  0.19000000000E+002,  0.00000000000E+000,  0.10000000000E+001
  0.56681324936E+002,  0.14549922800E+007,  0.19000000000E+002,  0.00000000000E+000,  0.10000000000E+001
  0.58681324936E+002,  0.14440018092E+007,  0.19000000000E+002,  0.00000000000E+000,  0.10000000000E+001
  0.58931324936E+002,  0.14426362437E+007,  0.19000000000E+002,  0.00000000000E+000,  0.10000000000E+001
  0.60181324936E+002,  0.14359978004E+007,  0.19000000000E+002,  0.00000000000E+000,  0.10000000000E+001
  0.62181324936E+002,  0.14257992707E+007,  0.19000000000E+002,  0.00000000000E+000,  0.10000000000E+001
  0.63181325727E+002,  0.14207983844E+007,  0.19000000000E+002,  0.00000000000E+000,  0.10000000000E+001
  0.63681326790E+002,  0.14183216293E+007,  0.19000000000E+002,  0.00000000000E+000,  0.10000000000E+001
  0.65681326790E+002,  0.14087463961E+007,  0.19000000000E+002,  0.00000000000E+000,  0.10000000000E+001
  0.67681326790E+002,  0.13994721393E+007,  0.19000000000E+002,  0.00000000000E+000,  0.10000000000E+001
  0.69681326790E+002,  0.13904839766E+007,  0.19000000000E+002,  0.00000000000E+000,  0.10000000000E+001
  0.71681326790E+002,  0.13817750947E+007,  0.19000000000E+002,  0.00000000000E+000,  0.10000000000E+001
  0.73681326790E+002,  0.13733378879E+007,  0.19000000000E+002,  0.00000000000E+000,  0.10000000000E+001
  0.74681326989E+002,  0.13691859965E+007,  0.19000000000E+002,  0.00000000000E+000,  0.10000000000E+001
  0.75181327102E+002,  0.13671265562E+007,  0.19000000000E+002,  0.00000000000E+000,  0.10000000000E+001
  0.75431327279E+002,  0.13661009403E+007,  0.19000000000E+002,  0.00000000000E+000,  0.10000000000E+001
  0.76681328164E+002,  0.13610756841E+007,  0.19000000000E+002,  0.00000000000E+000,  0.10000000000E+001
  0.78681328164E+002,  0.13533131093E+007,  0.19000000000E+002,  0.00000000000E+000,  0.10000000000E+001
  0.80681328164E+002,  0.13458509907E+007,  0.19000000000E+002,  0.00000000000E+000,  0.10000000000E+001
  0.82681328164E+002,  0.13387034253E+007,  0.19000000000E+002,  0.00000000000E+000,  0.10000000000E+001
  0.84681328164E+002,  0.13318745460E+007,  0.19000000000E+002,  0.00000000000E+000,  0.10000000000E+001
  0.86681328164E+002,  0.13253591745E+007,  0.19000000000E+002,  0.00000000000E+000,  0.10000000000E+001
  0.88681328164E+002,  0.13191429786E+007,  0.19000000000E+002,  0.00000000000E+000,  0.10000000000E+001
  0.90681328164E+002,  0.13132045915E+007,  0.19000000000E+002,  0.00000000000E+000,  0.10000000000E+001
  0.92681328164E+002,  0.13075208289E+007,  0.19000000000E+002,  0.00000000000E+000,  0.10000000000E+001
  0.94681328164E+002,  0.13020692800E+007,  0.19000000000E+002,  0.00000000000E+000,  0.10000000000E+001
  0.96681328164E+002,  0.12968289148E+007,  0.19000000000E+002,  0.00000000000E+000,  0.10000000000E+001
  0.98681328164E+002,  0.12917803681E+007,  0.19000000000E+002,  0.00000000000E+000,  0.10000000000E+001
  0.10068132816E+003,  0.12869063479E+007,  0.19000000000E+002,  0.00000000000E+000,  0.10000000000E+001
  0.10268132816E+003,  0.12821919819E+007,  0.19000000000E+002,  0.00000000000E+000,  0.10000000000E+001
  0.10468132816E+003,  0.12776250743E+007,  0.19000000000E+002,  0.00000000000E+000,  0.10000000000E+001
  0.10568132874E+003,  0.12753771984E+007,  0.19000000000E+002,  0.00000000000E+000,  0.10000000000E+001
  0.10618132920E+003,  0.12742620120E+007,  0.19000000000E+002,  0.00000000000E+000,  0.10000000000E+001
  0.10818132920E+003,  0.12699392964E+007,  0.19000000000E+002,  0.00000000000E+000,  0.10000000000E+001
  0.11018132920E+003,  0.12657591736E+007,  0.19000000000E+002,  0.00000000000E+000,  0.10000000000E+001
  0.11218132920E+003,  0.12617286160E+007,  0.19000000000E+002,  0.00000000000E+000,  0.10000000000E+001
  0.11318132939E+003,  0.12597516054E+007,  0.19000000000E+002,  0.00000000000E+000,  0.10000000000E+001
  0.11518132939E+003,  0.12559538599E+007,  0.19000000000E+002,  0.00000000000E+000,  0.10000000000E+001
  0.11718132939E+003,  0.12523105601E+007,  0.19000000000E+002,  0.00000000000E+000,  0.10000000000E+001
  0.11818133014E+003,  0.12505269945E+007,  0.19000000000E+002,  0.00000000000E+000,  0.10000000000E+001
  0.12018133014E+003,  0.12471049406E+007,  0.19000000000E+002,  0.00000000000E+000,  0.10000000000E+001
  0.12218133014E+003,  0.12438200196E+007,  0.19000000000E+002,  0.00000000000E+000,  0.10000000000E+001
  0.12418133014E+003,  0.12406644992E+007,  0.19000000000E+002,  0.00000000000E+000,  0.10000000000E+001
  0.12618133014E+003,  0.12376305680E+007,  0.19000000000E+002,  0.00000000000E+000,  0.10000000000E+001
  0.12818133014E+003,  0.12347101536E+007,  0.19000000000E+002,  0.00000000000E+000,  0.10000000000E+001
  0.12918133064E+003,  0.12332773143E+007,  0.19000000000E+002,  0.00000000000E+000,  0.10000000000E+001
  0.13118133064E+003,  0.12305139942E+007,  0.19000000000E+002,  0.00000000000E+000,  0.10000000000E+001
  0.13318133064E+003,  0.12278474783E+007,  0.19000000000E+002,  0.00000000000E+000,  0.10000000000E+001
  0.13418133084E+003,  0.12265378272E+007,  0.19000000000E+002,  0.00000000000E+000,  0.10000000000E+001
  0.13618133084E+003,  0.12240088368E+007,  0.19000000000E+002,  0.00000000000E+000,  0.10000000000E+001
  0.13818133084E+003,  0.12215657376E+007,  0.19000000000E+002,  0.00000000000E+000,  0.10000000000E+001
  0.14018133084E+003,  0.12192033281E+007,  0.19000000000E+002,  0.00000000000E+000,  0.10000000000E+001
  0.14218133084E+003,  0.12169157133E+007,  0.19000000000E+002,  0.00000000000E+000,  0.10000000000E+001
  0.14418133084E+003,  0.12146966961E+007,  0.19000000000E+002,  0.00000000000E+000,  0.10000000000E+001
  0.14618133084E+003,  0.12125402300E+007,  0.19000000000E+002,  0.00000000000E+000,  0.10000000000E+001
  0.14818133084E+003,  0.12104598178E+007,  0.19000000000E+002,  0.00000000000E+000,  0.10000000000E+001
  0.15018133084E+003,  0.12084689139E+007,  0.19000000000E+002,  0.00000000000E+000,  0.10000000000E+001
  0.15218133084E+003,  0.12065686298E+007,  0.19000000000E+002,  0.00000000000E+000,  0.10000000000E+001
  0.15418133084E+003,  0.12047492118E+007,  0.19000000000E+002,  0.00000000000E+000,  0.10000000000E+001
  0.15618133084E+003,  0.12030064795E+007,  0.19000000000E+002,  0.00000000000E+000,  0.10000000000E+001
  0.15818133084E+003,  0.12013403387E+007,  0.19000000000E+002,  0.00000000000E+000,  0.10000000000E+001
  0.15918133181E+003,  0.12005264000E+007,  0.19000000000E+002,  0.00000000000E+000,  0.10000000000E+001
  0.15968133290E+003,  0.12001242004E+007,  0.19000000000E+002,  0.00000000000E+000,  0.10000000000E+001
  0.15993133377E+003,  0.11999242903E+007,  0.19000000000E+002,  0.00000000000E+000,  0.10000000000E+001
  0.16118133814E+003,  0.11989533971E+007,  0.19000000000E+002,  0.00000000000E+000,  0.10000000000E+001
  0.16318133814E+003,  0.11974704199E+007,  0.19000000000E+002,  0.00000000000E+000,  0.10000000000E+001
  0.16418133817E+003,  0.11967470324E+007,  0.19000000000E+002,  0.00000000000E+000,  0.10000000000E+001
  0.16468133853E+003,  0.11963899986E+007,  0.19000000000E+002,  0.00000000000E+000,  0.10000000000E+001
  0.16668133853E+003,  0.11950522966E+007,  0.19000000000E+002,  0.00000000000E+000,  0.10000000000E+001
  0.16868133853E+003,  0.11938126302E+007,  0.19000000000E+002,  0.00000000000E+000,  0.10000000000E+001
  0.17068133853E+003,  0.11926654881E+007,  0.19000000000E+002,  0.00000000000E+000,  0.10000000000E+001
  0.17268133853E+003,  0.11915955734E+007,  0.19000000000E+002,  0.00000000000E+000,  0.10000000000E+001
  0.17468133853E+003,  0.11905835878E+007,  0.19000000000E+002,  0.00000000000E+000,  0.10000000000E+001
  0.17668133853E+003,  0.11896112917E+007,  0.19000000000E+002,  0.00000000000E+000,  0.10000000000E+001
  0.17868133853E+003,  0.11886645014E+007,  0.19000000000E+002,  0.00000000000E+000,  0.10000000000E+001
  0.18068133853E+003,  0.11877372813E+007,  0.19000000000E+002,  0.00000000000E+000,  0.10000000000E+001
  0.18168133867E+003,  0.11872786731E+007,  0.19000000000E+002,  0.00000000000E+000,  0.10000000000E+001
  0.18218133912E+003,  0.11870507110E+007,  0.19000000000E+002,  0.00000000000E+000,  0.10000000000E+001
  0.18418133912E+003,  0.11861791218E+007,  0.19000000000E+002,  0.00000000000E+000,  0.10000000000E+001
  0.18618133912E+003,  0.11853618386E+007,  0.19000000000E+002,  0.00000000000E+000,  0.10000000000E+001
  0.18818133912E+003,  0.11846020759E+007,  0.19000000000E+002,  0.00000000000E+000,  0.10000000000E+001
  0.18918134006E+003,  0.11842365451E+007,  0.19000000000E+002,  0.00000000000E+000,  0.10000000000E+001
  0.19118134006E+003,  0.11835594235E+007,  0.19000000000E+002,  0.00000000000E+000,  0.10000000000E+001
  0.19318134006E+003,  0.11829293340E+007,  0.19000000000E+002,  0.00000000000E+000,  0.10000000000E+001
  0.19518134006E+003,  0.11823370750E+007,  0.19000000000E+002,  0.00000000000E+000,  0.10000000000E+001
  0.19718134006E+003,  0.11817745053E+007,  0.19000000000E+002,  0.00000000000E+000,  0.10000000000E+001
  0.19818134017E+003,  0.11814997505E+007,  0.19000000000E+002,  0.00000000000E+000,  0.10000000000E+001
  0.20018134017E+003,  0.11809736546E+007,  0.19000000000E+002,  0.00000000000E+000,  0.10000000000E+001
  0.20118134053E+003,  0.11807163694E+007,  0.19000000000E+002,  0.00000000000E+000,  0.10000000000E+001
  0.20318134053E+003,  0.11802263661E+007,  0.19000000000E+002,  0.00000000000E+000,  0.10000000000E+001
  0.20518134053E+003,  0.11797620342E+007,  0.19000000000E+002,  0.00000000000E+000,  0.10000000000E+001
  0.20718134053E+003,  0.11793230142E+007,  0.19000000000E+002,  0.00000000000E+000,  0.10000000000E+001
  0.20918134053E+003,  0.11789078565E+007,  0.19000000000E+002,  0.00000000000E+000,  0.10000000000E+001
  0.21118134053E+003,  0.11785148416E+007,  0.19000000000E+002,  0.00000000000E+000,  0.10000000000E+001
  0.21318134053E+003,  0.11781443712E+007,  0.19000000000E+002,  0.00000000000E+000,  0.10000000000E+001
  0.21418134081E+003,  0.11779650435E+007,  0.19000000000E+002,  0.00000000000E+000,  0.10000000000E+001
  0.21618134081E+003,  0.11776362233E+007,  0.19000000000E+002,  0.00000000000E+000,  0.10000000000E+001
  0.21818134081E+003,  0.11773438400E+007,  0.19000000000E+002,  0.00000000000E+000,  0.10000000000E+001
  0.22018134081E+003,  0.11770917127E+007,  0.19000000000E+002,  0.00000000000E+000,  0.10000000000E+001
  0.22218134081E+003,  0.11768801325E+007,  0.19000000000E+002,  0.00000000000E+000,  0.10000000000E+001
  0.22418134081E+003,  0.11767170930E+007,  0.19000000000E+002,  0.00000000000E+000,  0.10000000000E+001
  0.22618134081E+003,  0.11766066095E+007,  0.19000000000E+002,  0.00000000000E+000,  0.10000000000E+001
  0.22818134081E+003,  0.11765461033E+007,  0.19000000000E+002,  0.00000000000E+000,  0.10000000000E+001
  0.23018134081E+003,  0.11765296279E+007,  0.19000000000E+002,  0.00000000000E+000,  0.10000000000E+001
  0.23218134081E+003,  0.11765532329E+007,  0.19000000000E+002,  0.00000000000E+000,  0.10000000000E+001
  0.23418134081E+003,  0.11766165976E+007,  0.19000000000E+002,  0.00000000000E+000,  0.10000000000E+001
  0.23618134081E+003,  0.11767209363E+007,  0.19000000000E+002,  0.00000000000E+000,  0.10000000000E+001
  0.23818134081E+003,  0.11768664808E+007,  0.19000000000E+002,  0.00000000000E+000,  0.10000000000E+001
  0.24018134081E+003,  0.11770516045E+007,  0.19000000000E+002,  0.00000000000E+000,  0.10000000000E+001
  0.24218134081E+003,  0.11772742614E+007,  0.19000000000E+002,  0.00000000000E+000,  0.10000000000E+001
  0.24318134246E+003,  0.11773951185E+007,  0.19000000000E+002,  0.00000000000E+000,  0.10000000000E+001
  0.24518134246E+003,  0.11776792586E+007,  0.19000000000E+002,  0.00000000000E+000,  0.10000000000E+001
  0.24718134246E+003,  0.11780100745E+007,  0.19000000000E+002,  0.00000000000E+000,  0.10000000000E+001
  0.24918134246E+003,  0.11783894906E+007,  0.19000000000E+002,  0.00000000000E+000,  0.10000000000E+001
  0.25118134246E+003,  0.11788163309E+007,  0.19000000000E+002,  0.00000000000E+000,  0.10000000000E+001
  0.25218134464E+003,  0.11790412759E+007,  0.19000000000E+002,  0.00000000000E+000,  0.10000000000E+001
  0.25418134464E+003,  0.11795330142E+007,  0.19000000000E+002,  0.00000000000E+000,  0.10000000000E+001
  0.25518134652E+003,  0.11797887679E+007,  0.19000000000E+002,  0.00000000000E+000,  0.10000000000E+001
  0.25568134882E+003,  0.11799190424E+007,  0.19000000000E+002,  0.00000000000E+000,  0.10000000000E+001
  0.25768134882E+003,  0.11804743411E+007,  0.19000000000E+002,  0.00000000000E+000,  0.10000000000E+001
  0.25868135080E+003,  0.11807600792E+007,  0.19000000000E+002,  0.00000000000E+000,  0.10000000000E+001
  0.26068135080E+003,  0.11813611821E+007,  0.19000000000E+002,  0.00000000000E+000,  0.10000000000E+001
  0.26268135080E+003,  0.11819900109E+007,  0.19000000000E+002,  0.00000000000E+000,  0.10000000000E+001
  0.26468135080E+003,  0.11826452378E+007,  0.19000000000E+002,  0.00000000000E+000,  0.10000000000E+001
  0.26668135080E+003,  0.11833258829E+007,  0.19000000000E+002,  0.00000000000E+000,  0.10000000000E+001
  0.26868135080E+003,  0.11840311522E+007,  0.19000000000E+002,  0.00000000000E+000,  0.10000000000E+001
  0.27068135080E+003,  0.11847603784E+007,  0.19000000000E+002,  0.00000000000E+000,  0.10000000000E+001
  0.27268135080E+003,  0.11855147126E+007,  0.19000000000E+002,  0.00000000000E+000,  0.10000000000E+001
  0.27468135080E+003,  0.11862972863E+007,  0.19000000000E+002,  0.00000000000E+000,  0.10000000000E+001
  0.27668135080E+003,  0.11871110906E+007,  0.19000000000E+002,  0.00000000000E+000,  0.10000000000E+001
  0.27868135080E+003,  0.11879568866E+007,  0.19000000000E+002,  0.00000000000E+000,  0.10000000000E+001
  0.28068135080E+003,  0.11888332216E+007,  0.19000000000E+002,  0.00000000000E+000,  0.10000000000E+001
  0.28168135301E+003,  0.11892787358E+007,  0.19000000000E+002,  0.00000000000E+000,  0.10000000000E+001
  0.28368135301E+003,  0.11901962976E+007,  0.19000000000E+002,  0.00000000000E+000,  0.10000000000E+001
  0.28568135301E+003,  0.11911378672E+007,  0.19000000000E+002,  0.00000000000E+000,  0.10000000000E+001
  0.28768135301E+003,  0.11921026468E+007,  0.19000000000E+002,  0.00000000000E+000,  0.10000000000E+001
  0.28968135301E+003,  0.11930902745E+007,  0.19000000000E+002,  0.00000000000E+000,  0.10000000000E+001
  0.29168135301E+003,  0.11940999722E+007,  0.19000000000E+002,  0.00000000000E+000,  0.10000000000E+001
  0.29368135301E+003,  0.11951305494E+007,  0.19000000000E+002,  0.00000000000E+000,  0.10000000000E+001
  0.29568135301E+003,  0.11961806744E+007,  0.19000000000E+002,  0.00000000000E+000,  0.10000000000E+001
  0.29768135301E+003,  0.11972490845E+007,  0.19000000000E+002,  0.00000000000E+000,  0.10000000000E+001
  0.29968135301E+003,  0.11983346806E+007,  0.19000000000E+002,  0.00000000000E+000,  0.10000000000E+001
  0.30168135301E+003,  0.11994365499E+007,  0.19000000000E+002,  0.00000000000E+000,  0.10000000000E+001
  0.30268135595E+003,  0.11999914530E+007,  0.19000000000E+002,  0.00000000000E+000,  0.10000000000E+001
  0.30468135595E+003,  0.12011166589E+007,  0.19000000000E+002,  0.00000000000E+000,  0.10000000000E+001
  0.30668135595E+003,  0.12022572272E+007,  0.19000000000E+002,  0.00000000000E+000,  0.10000000000E+001
  0.30868135595E+003,  0.12034132126E+007,  0.19000000000E+002,  0.00000000000E+000,  0.10000000000E+001
  0.31068135595E+003,  0.12045845170E+007,  0.19000000000E+002,  0.00000000000E+000,  0.10000000000E+001
