"           TIME(S)","              PRES","              TEMP","             SAT_G","             SAT_L"
  0.17963400000E+008,  0.21000112681E+007,  0.19000000000E+002,  0.00000000000E+000,  0.10000000000E+001
  0.17964900000E+008,  0.20989444499E+007,  0.19000000000E+002,  0.00000000000E+000,  0.10000000000E+001
  0.17966400000E+008,  0.20974665585E+007,  0.19000000000E+002,  0.00000000000E+000,  0.10000000000E+001
  0.17967900000E+008,  0.20955531355E+007,  0.19000000000E+002,  0.00000000000E+000,  0.10000000000E+001
  0.17969400000E+008,  0.20931269713E+007,  0.19000000000E+002,  0.00000000000E+000,  0.10000000000E+001
  0.17970900000E+008,  0.20902577963E+007,  0.19000000000E+002,  0.00000000000E+000,  0.10000000000E+001
  0.17972400000E+008,  0.20870566001E+007,  0.19000000000E+002,  0.00000000000E+000,  0.10000000000E+001
  0.17973900000E+008,  0.20836500842E+007,  0.19000000000E+002,  0.00000000000E+000,  0.10000000000E+001
  0.17975400000E+008,  0.20801528777E+007,  0.19000000000E+002,  0.00000000000E+000,  0.10000000000E+001
  0.17976900000E+008,  0.20766538629E+007,  0.19000000000E+002,  0.00000000000E+000,  0.10000000000E+001
  0.17978400000E+008,  0.20732146971E+007,  0.19000000000E+002,  0.00000000000E+000,  0.10000000000E+001
  0.17979900000E+008,  0.20698743254E+007,  0.19000000000E+002,  0.00000000000E+000,  0.10000000000E+001
  0.17981400000E+008,  0.20667000585E+007,  0.19000000000E+002,  0.00000000000E+000,  0.10000000000E+001
  0.17982900000E+008,  0.20644818361E+007,  0.19000000000E+002,  0.00000000000E+000,  0.10000000000E+001
  0.17984400000E+008,  0.20627962594E+007,  0.19000000000E+002,  0.00000000000E+000,  0.10000000000E+001
  0.17985900000E+008,  0.20612119045E+007,  0.19000000000E+002,  0.00000000000E+000,  0.10000000000E+001
  0.17987400000E+008,  0.20596954752E+007,  0.19000000000E+002,  0.00000000000E+000,  0.10000000000E+001
  0.17988900000E+008,  0.20582435977E+007,  0.19000000000E+002,  0.00000000000E+000,  0.10000000000E+001
  0.17990400000E+008,  0.20568551822E+007,  0.19000000000E+002,  0.00000000000E+000,  0.10000000000E+001
  0.17991900000E+008,  0.20555287951E+007,  0.19000000000E+002,  0.00000000000E+000,  0.10000000000E+001
  0.17993400000E+008,  0.20542624645E+007,  0.19000000000E+002,  0.00000000000E+000,  0.10000000000E+001
  0.17994900000E+008,  0.20530538233E+007,  0.19000000000E+002,  0.00000000000E+000,  0.10000000000E+001
  0.17996400000E+008,  0.20519002752E+007,  0.19000000000E+002,  0.00000000000E+000,  0.10000000000E+001
  0.17997900000E+008,  0.20507991275E+007,  0.19000000000E+002,  0.00000000000E+000,  0.10000000000E+001
  0.17999400000E+008,  0.20497476850E+007,  0.19000000000E+002,  0.00000000000E+000,  0.10000000000E+001
  0.18000900000E+008,  0.20487433120E+007,  0.19000000000E+002,  0.00000000000E+000,  0.10000000000E+001
  0.18002400000E+008,  0.20477834704E+007,  0.19000000000E+002,  0.00000000000E+000,  0.10000000000E+001
  0.18003900000E+008,  0.20468657421E+007,  0.19000000000E+002,  0.00000000000E+000,  0.10000000000E+001
  0.18005400000E+008,  0.20459878388E+007,  0.19000000000E+002,  0.00000000000E+000,  0.10000000000E+001
  0.18006900000E+008,  0.20451476061E+007,  0.19000000000E+002,  0.00000000000E+000,  0.10000000000E+001
  0.18008400000E+008,  0.20443430215E+007,  0.19000000000E+002,  0.00000000000E+000,  0.10000000000E+001
  0.18009900000E+008,  0.20435721903E+007,  0.19000000000E+002,  0.00000000000E+000,  0.10000000000E+001
  0.18011400000E+008,  0.20428333398E+007,  0.19000000000E+002,  0.00000000000E+000,  0.10000000000E+001
  0.18012900000E+008,  0.20421248119E+007,  0.19000000000E+002,  0.00000000000E+000,  0.10000000000E+001
  0.18014400000E+008,  0.20414450564E+007,  0.19000000000E+002,  0.00000000000E+000,  0.10000000000E+001
  0.18015900000E+008,  0.20407926235E+007,  0.19000000000E+002,  0.00000000000E+000,  0.10000000000E+001
  0.18017400000E+008,  0.20401712013E+007,  0.19000000000E+002,  0.00000000000E+000,  0.10000000000E+001
  0.18018900000E+008,  0.20395740077E+007,  0.19000000000E+002,  0.00000000000E+000,  0.10000000000E+001
  0.18020400000E+008,  0.20390002750E+007,  0.19000000000E+002,  0.00000000000E+000,  0.10000000000E+001
  0.18021900000E+008,  0.20384489354E+007,  0.19000000000E+002,  0.00000000000E+000,  0.10000000000E+001
  0.18023400000E+008,  0.20379189282E+007,  0.19000000000E+002,  0.00000000000E+000,  0.10000000000E+001
  0.18024900000E+008,  0.20374092562E+007,  0.19000000000E+002,  0.00000000000E+000,  0.10000000000E+001
  0.18026400000E+008,  0.20369189858E+007,  0.19000000000E+002,  0.00000000000E+000,  0.10000000000E+001
  0.18027900000E+008,  0.20364472417E+007,  0.19000000000E+002,  0.00000000000E+000,  0.10000000000E+001
  0.18029400000E+008,  0.20359932012E+007,  0.19000000000E+002,  0.00000000000E+000,  0.10000000000E+001
  0.18030900000E+008,  0.20355560903E+007,  0.19000000000E+002,  0.00000000000E+000,  0.10000000000E+001
  0.18032400000E+008,  0.20351351796E+007,  0.19000000000E+002,  0.00000000000E+000,  0.10000000000E+001
  0.18033900000E+008,  0.20347297806E+007,  0.19000000000E+002,  0.00000000000E+000,  0.10000000000E+001
  0.18035400000E+008,  0.20343392433E+007,  0.19000000000E+002,  0.00000000000E+000,  0.10000000000E+001
  0.18036900000E+008,  0.20339629531E+007,  0.19000000000E+002,  0.00000000000E+000,  0.10000000000E+001
  0.18038400000E+008,  0.20336003285E+007,  0.19000000000E+002,  0.00000000000E+000,  0.10000000000E+001
  0.18039900000E+008,  0.20332508183E+007,  0.19000000000E+002,  0.00000000000E+000,  0.10000000000E+001
  0.18041400000E+008,  0.20329139006E+007,  0.19000000000E+002,  0.00000000000E+000,  0.10000000000E+001
  0.18042900000E+008,  0.20325890796E+007,  0.19000000000E+002,  0.00000000000E+000,  0.10000000000E+001
  0.18044400000E+008,  0.20322758851E+007,  0.19000000000E+002,  0.00000000000E+000,  0.10000000000E+001
  0.18045900000E+008,  0.20319738699E+007,  0.19000000000E+002,  0.00000000000E+000,  0.10000000000E+001
  0.18047400000E+008,  0.20316826090E+007,  0.19000000000E+002,  0.00000000000E+000,  0.10000000000E+001
  0.18048900000E+008,  0.20314016979E+007,  0.19000000000E+002,  0.00000000000E+000,  0.10000000000E+001
  0.18050400000E+008,  0.20311307514E+007,  0.19000000000E+002,  0.00000000000E+000,  0.10000000000E+001
  0.18051900000E+008,  0.20308694024E+007,  0.19000000000E+002,  0.00000000000E+000,  0.10000000000E+001
  0.18053400000E+008,  0.20306173011E+007,  0.19000000000E+002,  0.00000000000E+000,  0.10000000000E+001
  0.18054900000E+008,  0.20303741136E+007,  0.19000000000E+002,  0.00000000000E+000,  0.10000000000E+001
  0.18056400000E+008,  0.20301395211E+007,  0.19000000000E+002,  0.00000000000E+000,  0.10000000000E+001
  0.18057900000E+008,  0.20299132194E+007,  0.19000000000E+002,  0.00000000000E+000,  0.10000000000E+001
  0.18059400000E+008,  0.20296949175E+007,  0.19000000000E+002,  0.00000000000E+000,  0.10000000000E+001
  0.18060900000E+008,  0.20294843372E+007,  0.19000000000E+002,  0.00000000000E+000,  0.10000000000E+001
  0.18062400000E+008,  0.20292812124E+007,  0.19000000000E+002,  0.00000000000E+000,  0.10000000000E+001
  0.18063900000E+008,  0.20290852883E+007,  0.19000000000E+002,  0.00000000000E+000,  0.10000000000E+001
  0.18065400000E+008,  0.20288963209E+007,  0.19000000000E+002,  0.00000000000E+000,  0.10000000000E+001
  0.18066900000E+008,  0.20287140766E+007,  0.19000000000E+002,  0.00000000000E+000,  0.10000000000E+001
  0.18068400000E+008,  0.20285383312E+007,  0.19000000000E+002,  0.00000000000E+000,  0.10000000000E+001
  0.18069900000E+008,  0.20285144970E+007,  0.19000000000E+002,  0.00000000000E+000,  0.10000000000E+001
  0.18071400000E+008,  0.20285593906E+007,  0.19000000000E+002,  0.00000000000E+000,  0.10000000000E+001
  0.18072900000E+008,  0.20286053798E+007,  0.19000000000E+002,  0.00000000000E+000,  0.10000000000E+001
  0.18074400000E+008,  0.20286583979E+007,  0.19000000000E+002,  0.00000000000E+000,  0.10000000000E+001
  0.18075900000E+008,  0.20287181056E+007,  0.19000000000E+002,  0.00000000000E+000,  0.10000000000E+001
  0.18077400000E+008,  0.20287834115E+007,  0.19000000000E+002,  0.00000000000E+000,  0.10000000000E+001
  0.18078900000E+008,  0.20288534053E+007,  0.19000000000E+002,  0.00000000000E+000,  0.10000000000E+001
  0.18080400000E+008,  0.20289273856E+007,  0.19000000000E+002,  0.00000000000E+000,  0.10000000000E+001
  0.18081900000E+008,  0.20290048050E+007,  0.19000000000E+002,  0.00000000000E+000,  0.10000000000E+001
  0.18083400000E+008,  0.20290852281E+007,  0.19000000000E+002,  0.00000000000E+000,  0.10000000000E+001
  0.18084900000E+008,  0.20291683033E+007,  0.19000000000E+002,  0.00000000000E+000,  0.10000000000E+001
  0.18086400000E+008,  0.20292537431E+007,  0.19000000000E+002,  0.00000000000E+000,  0.10000000000E+001
  0.18087900000E+008,  0.20293413100E+007,  0.19000000000E+002,  0.00000000000E+000,  0.10000000000E+001
  0.18089400000E+008,  0.20294308062E+007,  0.19000000000E+002,  0.00000000000E+000,  0.10000000000E+001
  0.18090900000E+008,  0.20295220654E+007,  0.19000000000E+002,  0.00000000000E+000,  0.10000000000E+001
  0.18092400000E+008,  0.20296149467E+007,  0.19000000000E+002,  0.00000000000E+000,  0.10000000000E+001
  0.18093900000E+008,  0.20297093295E+007,  0.19000000000E+002,  0.00000000000E+000,  0.10000000000E+001
  0.18095400000E+008,  0.20298051098E+007,  0.19000000000E+002,  0.00000000000E+000,  0.10000000000E+001
  0.18096900000E+008,  0.20299021972E+007,  0.19000000000E+002,  0.00000000000E+000,  0.10000000000E+001
  0.18098400000E+008,  0.20300005120E+007,  0.19000000000E+002,  0.00000000000E+000,  0.10000000000E+001
  0.18099900000E+008,  0.20300999839E+007,  0.19000000000E+002,  0.00000000000E+000,  0.10000000000E+001
  0.18101400000E+008,  0.20302005499E+007,  0.19000000000E+002,  0.00000000000E+000,  0.10000000000E+001
  0.18102900000E+008,  0.20303021532E+007,  0.19000000000E+002,  0.00000000000E+000,  0.10000000000E+001
  0.18104400000E+008,  0.20304047422E+007,  0.19000000000E+002,  0.00000000000E+000,  0.10000000000E+001
  0.18105900000E+008,  0.20305082698E+007,  0.19000000000E+002,  0.00000000000E+000,  0.10000000000E+001
  0.18107400000E+008,  0.20306126925E+007,  0.19000000000E+002,  0.00000000000E+000,  0.10000000000E+001
  0.18108900000E+008,  0.20307179700E+007,  0.19000000000E+002,  0.00000000000E+000,  0.10000000000E+001
  0.18110400000E+008,  0.20308240648E+007,  0.19000000000E+002,  0.00000000000E+000,  0.10000000000E+001
  0.18111900000E+008,  0.20309309417E+007,  0.19000000000E+002,  0.00000000000E+000,  0.10000000000E+001
  0.18113400000E+008,  0.20310385676E+007,  0.19000000000E+002,  0.00000000000E+000,  0.10000000000E+001
  0.18114900000E+008,  0.20311469112E+007,  0.19000000000E+002,  0.00000000000E+000,  0.10000000000E+001
  0.18116400000E+008,  0.20312559428E+007,  0.19000000000E+002,  0.00000000000E+000,  0.10000000000E+001
  0.18117900000E+008,  0.20313656343E+007,  0.19000000000E+002,  0.00000000000E+000,  0.10000000000E+001
  0.18119400000E+008,  0.20314759588E+007,  0.19000000000E+002,  0.00000000000E+000,  0.10000000000E+001
  0.18120900000E+008,  0.20315868906E+007,  0.19000000000E+002,  0.00000000000E+000,  0.10000000000E+001
  0.18122400000E+008,  0.20317973613E+007,  0.19000000000E+002,  0.00000000000E+000,  0.10000000000E+001
  0.18123900000E+008,  0.20322009302E+007,  0.19000000000E+002,  0.00000000000E+000,  0.10000000000E+001
  0.18125400000E+008,  0.20325955987E+007,  0.19000000000E+002,  0.00000000000E+000,  0.10000000000E+001
  0.18126900000E+008,  0.20329941744E+007,  0.19000000000E+002,  0.00000000000E+000,  0.10000000000E+001
  0.18128400000E+008,  0.20333970349E+007,  0.19000000000E+002,  0.00000000000E+000,  0.10000000000E+001
  0.18129900000E+008,  0.20338026706E+007,  0.19000000000E+002,  0.00000000000E+000,  0.10000000000E+001
  0.18131400000E+008,  0.20342097655E+007,  0.19000000000E+002,  0.00000000000E+000,  0.10000000000E+001
  0.18132900000E+008,  0.20346173206E+007,  0.19000000000E+002,  0.00000000000E+000,  0.10000000000E+001
  0.18134400000E+008,  0.20350245771E+007,  0.19000000000E+002,  0.00000000000E+000,  0.10000000000E+001
  0.18135900000E+008,  0.20354309517E+007,  0.19000000000E+002,  0.00000000000E+000,  0.10000000000E+001
  0.18137400000E+008,  0.20358359928E+007,  0.19000000000E+002,  0.00000000000E+000,  0.10000000000E+001
  0.18138900000E+008,  0.20362393509E+007,  0.19000000000E+002,  0.00000000000E+000,  0.10000000000E+001
  0.18140400000E+008,  0.20366407565E+007,  0.19000000000E+002,  0.00000000000E+000,  0.10000000000E+001
  0.18141900000E+008,  0.20370400041E+007,  0.19000000000E+002,  0.00000000000E+000,  0.10000000000E+001
  0.18143400000E+008,  0.20374369393E+007,  0.19000000000E+002,  0.00000000000E+000,  0.10000000000E+001
  0.18144900000E+008,  0.20378314487E+007,  0.19000000000E+002,  0.00000000000E+000,  0.10000000000E+001
  0.18146400000E+008,  0.20382234516E+007,  0.19000000000E+002,  0.00000000000E+000,  0.10000000000E+001
  0.18147900000E+008,  0.20386128940E+007,  0.19000000000E+002,  0.00000000000E+000,  0.10000000000E+001
  0.18149400000E+008,  0.20389997431E+007,  0.19000000000E+002,  0.00000000000E+000,  0.10000000000E+001
  0.18150900000E+008,  0.20393839827E+007,  0.19000000000E+002,  0.00000000000E+000,  0.10000000000E+001
  0.18152400000E+008,  0.20397656106E+007,  0.19000000000E+002,  0.00000000000E+000,  0.10000000000E+001
  0.18153900000E+008,  0.20401446347E+007,  0.19000000000E+002,  0.00000000000E+000,  0.10000000000E+001
  0.18155400000E+008,  0.20405210718E+007,  0.19000000000E+002,  0.00000000000E+000,  0.10000000000E+001
  0.18156900000E+008,  0.20408949450E+007,  0.19000000000E+002,  0.00000000000E+000,  0.10000000000E+001
  0.18158400000E+008,  0.20412662826E+007,  0.19000000000E+002,  0.00000000000E+000,  0.10000000000E+001
  0.18159900000E+008,  0.20416351168E+007,  0.19000000000E+002,  0.00000000000E+000,  0.10000000000E+001
  0.18161400000E+008,  0.20420014826E+007,  0.19000000000E+002,  0.00000000000E+000,  0.10000000000E+001
  0.18162900000E+008,  0.20423654171E+007,  0.19000000000E+002,  0.00000000000E+000,  0.10000000000E+001
  0.18164400000E+008,  0.20427269590E+007,  0.19000000000E+002,  0.00000000000E+000,  0.10000000000E+001
  0.18165900000E+008,  0.20430861479E+007,  0.19000000000E+002,  0.00000000000E+000,  0.10000000000E+001
  0.18167400000E+008,  0.20434430239E+007,  0.19000000000E+002,  0.00000000000E+000,  0.10000000000E+001
  0.18168900000E+008,  0.20437976273E+007,  0.19000000000E+002,  0.00000000000E+000,  0.10000000000E+001
  0.18170400000E+008,  0.20441499984E+007,  0.19000000000E+002,  0.00000000000E+000,  0.10000000000E+001
  0.18171900000E+008,  0.20445001771E+007,  0.19000000000E+002,  0.00000000000E+000,  0.10000000000E+001
  0.18173400000E+008,  0.20448482032E+007,  0.19000000000E+002,  0.00000000000E+000,  0.10000000000E+001
  0.18174900000E+008,  0.20451948992E+007,  0.19000000000E+002,  0.00000000000E+000,  0.10000000000E+001
  0.18176400000E+008,  0.20455504530E+007,  0.19000000000E+002,  0.00000000000E+000,  0.10000000000E+001
  0.18177900000E+008,  0.20459035914E+007,  0.19000000000E+002,  0.00000000000E+000,  0.10000000000E+001
  0.18179400000E+008,  0.20462549412E+007,  0.19000000000E+002,  0.00000000000E+000,  0.10000000000E+001
  0.18180900000E+008,  0.20466045615E+007,  0.19000000000E+002,  0.00000000000E+000,  0.10000000000E+001
  0.18182400000E+008,  0.20469524181E+007,  0.19000000000E+002,  0.00000000000E+000,  0.10000000000E+001
  0.18183900000E+008,  0.20472984837E+007,  0.19000000000E+002,  0.00000000000E+000,  0.10000000000E+001
  0.18185400000E+008,  0.20476427443E+007,  0.19000000000E+002,  0.00000000000E+000,  0.10000000000E+001
  0.18186900000E+008,  0.20479851956E+007,  0.19000000000E+002,  0.00000000000E+000,  0.10000000000E+001
  0.18188400000E+008,  0.20483258406E+007,  0.19000000000E+002,  0.00000000000E+000,  0.10000000000E+001
  0.18189900000E+008,  0.20486646873E+007,  0.19000000000E+002,  0.00000000000E+000,  0.10000000000E+001
  0.18191400000E+008,  0.20490017473E+007,  0.19000000000E+002,  0.00000000000E+000,  0.10000000000E+001
  0.18192900000E+008,  0.20493370353E+007,  0.19000000000E+002,  0.00000000000E+000,  0.10000000000E+001
  0.18194400000E+008,  0.20496705683E+007,  0.19000000000E+002,  0.00000000000E+000,  0.10000000000E+001
  0.18195900000E+008,  0.20500023647E+007,  0.19000000000E+002,  0.00000000000E+000,  0.10000000000E+001
  0.18197400000E+008,  0.20503324443E+007,  0.19000000000E+002,  0.00000000000E+000,  0.10000000000E+001
  0.18198900000E+008,  0.20506608278E+007,  0.19000000000E+002,  0.00000000000E+000,  0.10000000000E+001
  0.18200400000E+008,  0.20509875364E+007,  0.19000000000E+002,  0.00000000000E+000,  0.10000000000E+001
  0.18201900000E+008,  0.20513125917E+007,  0.19000000000E+002,  0.00000000000E+000,  0.10000000000E+001
  0.18203400000E+008,  0.20516360156E+007,  0.19000000000E+002,  0.00000000000E+000,  0.10000000000E+001
  0.18204900000E+008,  0.20519578298E+007,  0.19000000000E+002,  0.00000000000E+000,  0.10000000000E+001
  0.18206400000E+008,  0.20522780563E+007,  0.19000000000E+002,  0.00000000000E+000,  0.10000000000E+001
  0.18207900000E+008,  0.20525967166E+007,  0.19000000000E+002,  0.00000000000E+000,  0.10000000000E+001
  0.18209400000E+008,  0.20529138321E+007,  0.19000000000E+002,  0.00000000000E+000,  0.10000000000E+001
  0.18210900000E+008,  0.20532294239E+007,  0.19000000000E+002,  0.00000000000E+000,  0.10000000000E+001
  0.18212400000E+008,  0.20535435128E+007,  0.19000000000E+002,  0.00000000000E+000,  0.10000000000E+001
  0.18213900000E+008,  0.20538561192E+007,  0.19000000000E+002,  0.00000000000E+000,  0.10000000000E+001
  0.18215400000E+008,  0.20541672630E+007,  0.19000000000E+002,  0.00000000000E+000,  0.10000000000E+001
  0.18216900000E+008,  0.20544769638E+007,  0.19000000000E+002,  0.00000000000E+000,  0.10000000000E+001
  0.18218400000E+008,  0.20547852407E+007,  0.19000000000E+002,  0.00000000000E+000,  0.10000000000E+001
  0.18219900000E+008,  0.20550921123E+007,  0.19000000000E+002,  0.00000000000E+000,  0.10000000000E+001
  0.18221400000E+008,  0.20553975970E+007,  0.19000000000E+002,  0.00000000000E+000,  0.10000000000E+001
  0.18222900000E+008,  0.20557017124E+007,  0.19000000000E+002,  0.00000000000E+000,  0.10000000000E+001
  0.18224400000E+008,  0.20560044759E+007,  0.19000000000E+002,  0.00000000000E+000,  0.10000000000E+001
  0.18225900000E+008,  0.20563059044E+007,  0.19000000000E+002,  0.00000000000E+000,  0.10000000000E+001
  0.18227400000E+008,  0.20566060144E+007,  0.19000000000E+002,  0.00000000000E+000,  0.10000000000E+001
  0.18228900000E+008,  0.20569159952E+007,  0.19000000000E+002,  0.00000000000E+000,  0.10000000000E+001
  0.18230400000E+008,  0.20572285277E+007,  0.19000000000E+002,  0.00000000000E+000,  0.10000000000E+001
  0.18231900000E+008,  0.20575399933E+007,  0.19000000000E+002,  0.00000000000E+000,  0.10000000000E+001
  0.18233400000E+008,  0.20578505941E+007,  0.19000000000E+002,  0.00000000000E+000,  0.10000000000E+001
  0.18234900000E+008,  0.20581602706E+007,  0.19000000000E+002,  0.00000000000E+000,  0.10000000000E+001
  0.18236400000E+008,  0.20584689432E+007,  0.19000000000E+002,  0.00000000000E+000,  0.10000000000E+001
  0.18237900000E+008,  0.20587765504E+007,  0.19000000000E+002,  0.00000000000E+000,  0.10000000000E+001
  0.18239400000E+008,  0.20590830466E+007,  0.19000000000E+002,  0.00000000000E+000,  0.10000000000E+001
  0.18240900000E+008,  0.20593883977E+007,  0.19000000000E+002,  0.00000000000E+000,  0.10000000000E+001
  0.18242400000E+008,  0.20596925784E+007,  0.19000000000E+002,  0.00000000000E+000,  0.10000000000E+001
  0.18243900000E+008,  0.20599955704E+007,  0.19000000000E+002,  0.00000000000E+000,  0.10000000000E+001
  0.18245400000E+008,  0.20602973605E+007,  0.19000000000E+002,  0.00000000000E+000,  0.10000000000E+001
