"           TIME(S)","              PRES","              TEMP","             SAT_G","             SAT_L"
  0.17963400000E+008,  0.20983817152E+007,  0.19000000000E+002,  0.00000000000E+000,  0.10000000000E+001
  0.17964900000E+008,  0.20923588273E+007,  0.19000000000E+002,  0.00000000000E+000,  0.10000000000E+001
  0.17966400000E+008,  0.20874245080E+007,  0.19000000000E+002,  0.00000000000E+000,  0.10000000000E+001
  0.17967900000E+008,  0.20832807045E+007,  0.19000000000E+002,  0.00000000000E+000,  0.10000000000E+001
  0.17969400000E+008,  0.20796121788E+007,  0.19000000000E+002,  0.00000000000E+000,  0.10000000000E+001
  0.17970900000E+008,  0.20762415244E+007,  0.19000000000E+002,  0.00000000000E+000,  0.10000000000E+001
  0.17972400000E+008,  0.20730675807E+007,  0.19000000000E+002,  0.00000000000E+000,  0.10000000000E+001
  0.17973900000E+008,  0.20700326960E+007,  0.19000000000E+002,  0.00000000000E+000,  0.10000000000E+001
  0.17975400000E+008,  0.20671058810E+007,  0.19000000000E+002,  0.00000000000E+000,  0.10000000000E+001
  0.17976900000E+008,  0.20642722797E+007,  0.19000000000E+002,  0.00000000000E+000,  0.10000000000E+001
  0.17978400000E+008,  0.20615262219E+007,  0.19000000000E+002,  0.00000000000E+000,  0.10000000000E+001
  0.17979900000E+008,  0.20588667707E+007,  0.19000000000E+002,  0.00000000000E+000,  0.10000000000E+001
  0.17981400000E+008,  0.20563076481E+007,  0.19000000000E+002,  0.00000000000E+000,  0.10000000000E+001
  0.17982900000E+008,  0.20540116247E+007,  0.19000000000E+002,  0.00000000000E+000,  0.10000000000E+001
  0.17984400000E+008,  0.20519671712E+007,  0.19000000000E+002,  0.00000000000E+000,  0.10000000000E+001
  0.17985900000E+008,  0.20501172763E+007,  0.19000000000E+002,  0.00000000000E+000,  0.10000000000E+001
  0.17987400000E+008,  0.20484260295E+007,  0.19000000000E+002,  0.00000000000E+000,  0.10000000000E+001
  0.17988900000E+008,  0.20468696157E+007,  0.19000000000E+002,  0.00000000000E+000,  0.10000000000E+001
  0.17990400000E+008,  0.20454300785E+007,  0.19000000000E+002,  0.00000000000E+000,  0.10000000000E+001
  0.17991900000E+008,  0.20440930315E+007,  0.19000000000E+002,  0.00000000000E+000,  0.10000000000E+001
  0.17993400000E+008,  0.20428466486E+007,  0.19000000000E+002,  0.00000000000E+000,  0.10000000000E+001
  0.17994900000E+008,  0.20416810675E+007,  0.19000000000E+002,  0.00000000000E+000,  0.10000000000E+001
  0.17996400000E+008,  0.20405879737E+007,  0.19000000000E+002,  0.00000000000E+000,  0.10000000000E+001
  0.17997900000E+008,  0.20395602922E+007,  0.19000000000E+002,  0.00000000000E+000,  0.10000000000E+001
  0.17999400000E+008,  0.20385919516E+007,  0.19000000000E+002,  0.00000000000E+000,  0.10000000000E+001
  0.18000900000E+008,  0.20376777009E+007,  0.19000000000E+002,  0.00000000000E+000,  0.10000000000E+001
  0.18002400000E+008,  0.20368129665E+007,  0.19000000000E+002,  0.00000000000E+000,  0.10000000000E+001
  0.18003900000E+008,  0.20359937386E+007,  0.19000000000E+002,  0.00000000000E+000,  0.10000000000E+001
  0.18005400000E+008,  0.20352164799E+007,  0.19000000000E+002,  0.00000000000E+000,  0.10000000000E+001
  0.18006900000E+008,  0.20344780532E+007,  0.19000000000E+002,  0.00000000000E+000,  0.10000000000E+001
  0.18008400000E+008,  0.20337756614E+007,  0.19000000000E+002,  0.00000000000E+000,  0.10000000000E+001
  0.18009900000E+008,  0.20331067987E+007,  0.19000000000E+002,  0.00000000000E+000,  0.10000000000E+001
  0.18011400000E+008,  0.20324692106E+007,  0.19000000000E+002,  0.00000000000E+000,  0.10000000000E+001
  0.18012900000E+008,  0.20318608604E+007,  0.19000000000E+002,  0.00000000000E+000,  0.10000000000E+001
  0.18014400000E+008,  0.20312799014E+007,  0.19000000000E+002,  0.00000000000E+000,  0.10000000000E+001
  0.18015900000E+008,  0.20307246529E+007,  0.19000000000E+002,  0.00000000000E+000,  0.10000000000E+001
  0.18017400000E+008,  0.20301943322E+007,  0.19000000000E+002,  0.00000000000E+000,  0.10000000000E+001
  0.18018900000E+008,  0.20296873592E+007,  0.19000000000E+002,  0.00000000000E+000,  0.10000000000E+001
  0.18020400000E+008,  0.20292022869E+007,  0.19000000000E+002,  0.00000000000E+000,  0.10000000000E+001
  0.18021900000E+008,  0.20287378226E+007,  0.19000000000E+002,  0.00000000000E+000,  0.10000000000E+001
  0.18023400000E+008,  0.20282927937E+007,  0.19000000000E+002,  0.00000000000E+000,  0.10000000000E+001
  0.18024900000E+008,  0.20278661280E+007,  0.19000000000E+002,  0.00000000000E+000,  0.10000000000E+001
  0.18026400000E+008,  0.20274568407E+007,  0.19000000000E+002,  0.00000000000E+000,  0.10000000000E+001
  0.18027900000E+008,  0.20270640237E+007,  0.19000000000E+002,  0.00000000000E+000,  0.10000000000E+001
  0.18029400000E+008,  0.20266868373E+007,  0.19000000000E+002,  0.00000000000E+000,  0.10000000000E+001
  0.18030900000E+008,  0.20263245029E+007,  0.19000000000E+002,  0.00000000000E+000,  0.10000000000E+001
  0.18032400000E+008,  0.20259762968E+007,  0.19000000000E+002,  0.00000000000E+000,  0.10000000000E+001
  0.18033900000E+008,  0.20256415447E+007,  0.19000000000E+002,  0.00000000000E+000,  0.10000000000E+001
  0.18035400000E+008,  0.20253196169E+007,  0.19000000000E+002,  0.00000000000E+000,  0.10000000000E+001
  0.18036900000E+008,  0.20250099246E+007,  0.19000000000E+002,  0.00000000000E+000,  0.10000000000E+001
  0.18038400000E+008,  0.20247119161E+007,  0.19000000000E+002,  0.00000000000E+000,  0.10000000000E+001
  0.18039900000E+008,  0.20244250734E+007,  0.19000000000E+002,  0.00000000000E+000,  0.10000000000E+001
  0.18041400000E+008,  0.20241489098E+007,  0.19000000000E+002,  0.00000000000E+000,  0.10000000000E+001
  0.18042900000E+008,  0.20238829671E+007,  0.19000000000E+002,  0.00000000000E+000,  0.10000000000E+001
  0.18044400000E+008,  0.20236268133E+007,  0.19000000000E+002,  0.00000000000E+000,  0.10000000000E+001
  0.18045900000E+008,  0.20233800411E+007,  0.19000000000E+002,  0.00000000000E+000,  0.10000000000E+001
  0.18047400000E+008,  0.20231422652E+007,  0.19000000000E+002,  0.00000000000E+000,  0.10000000000E+001
  0.18048900000E+008,  0.20229131216E+007,  0.19000000000E+002,  0.00000000000E+000,  0.10000000000E+001
  0.18050400000E+008,  0.20226922653E+007,  0.19000000000E+002,  0.00000000000E+000,  0.10000000000E+001
  0.18051900000E+008,  0.20224793696E+007,  0.19000000000E+002,  0.00000000000E+000,  0.10000000000E+001
  0.18053400000E+008,  0.20222741245E+007,  0.19000000000E+002,  0.00000000000E+000,  0.10000000000E+001
  0.18054900000E+008,  0.20220762356E+007,  0.19000000000E+002,  0.00000000000E+000,  0.10000000000E+001
  0.18056400000E+008,  0.20218854231E+007,  0.19000000000E+002,  0.00000000000E+000,  0.10000000000E+001
  0.18057900000E+008,  0.20217014211E+007,  0.19000000000E+002,  0.00000000000E+000,  0.10000000000E+001
  0.18059400000E+008,  0.20215239763E+007,  0.19000000000E+002,  0.00000000000E+000,  0.10000000000E+001
  0.18060900000E+008,  0.20213528477E+007,  0.19000000000E+002,  0.00000000000E+000,  0.10000000000E+001
  0.18062400000E+008,  0.20211878053E+007,  0.19000000000E+002,  0.00000000000E+000,  0.10000000000E+001
  0.18063900000E+008,  0.20210286300E+007,  0.19000000000E+002,  0.00000000000E+000,  0.10000000000E+001
  0.18065400000E+008,  0.20208751124E+007,  0.19000000000E+002,  0.00000000000E+000,  0.10000000000E+001
  0.18066900000E+008,  0.20207270529E+007,  0.19000000000E+002,  0.00000000000E+000,  0.10000000000E+001
  0.18068400000E+008,  0.20205842603E+007,  0.19000000000E+002,  0.00000000000E+000,  0.10000000000E+001
  0.18069900000E+008,  0.20204681691E+007,  0.19000000000E+002,  0.00000000000E+000,  0.10000000000E+001
  0.18071400000E+008,  0.20203848394E+007,  0.19000000000E+002,  0.00000000000E+000,  0.10000000000E+001
  0.18072900000E+008,  0.20203275216E+007,  0.19000000000E+002,  0.00000000000E+000,  0.10000000000E+001
  0.18074400000E+008,  0.20202909467E+007,  0.19000000000E+002,  0.00000000000E+000,  0.10000000000E+001
  0.18075900000E+008,  0.20202712581E+007,  0.19000000000E+002,  0.00000000000E+000,  0.10000000000E+001
  0.18077400000E+008,  0.20202654520E+007,  0.19000000000E+002,  0.00000000000E+000,  0.10000000000E+001
  0.18078900000E+008,  0.20202711263E+007,  0.19000000000E+002,  0.00000000000E+000,  0.10000000000E+001
  0.18080400000E+008,  0.20202863420E+007,  0.19000000000E+002,  0.00000000000E+000,  0.10000000000E+001
  0.18081900000E+008,  0.20203095267E+007,  0.19000000000E+002,  0.00000000000E+000,  0.10000000000E+001
  0.18083400000E+008,  0.20203394016E+007,  0.19000000000E+002,  0.00000000000E+000,  0.10000000000E+001
  0.18084900000E+008,  0.20203749231E+007,  0.19000000000E+002,  0.00000000000E+000,  0.10000000000E+001
  0.18086400000E+008,  0.20204152376E+007,  0.19000000000E+002,  0.00000000000E+000,  0.10000000000E+001
  0.18087900000E+008,  0.20204596449E+007,  0.19000000000E+002,  0.00000000000E+000,  0.10000000000E+001
  0.18089400000E+008,  0.20205075684E+007,  0.19000000000E+002,  0.00000000000E+000,  0.10000000000E+001
  0.18090900000E+008,  0.20205585325E+007,  0.19000000000E+002,  0.00000000000E+000,  0.10000000000E+001
  0.18092400000E+008,  0.20206121429E+007,  0.19000000000E+002,  0.00000000000E+000,  0.10000000000E+001
  0.18093900000E+008,  0.20206680721E+007,  0.19000000000E+002,  0.00000000000E+000,  0.10000000000E+001
  0.18095400000E+008,  0.20207260465E+007,  0.19000000000E+002,  0.00000000000E+000,  0.10000000000E+001
  0.18096900000E+008,  0.20207858371E+007,  0.19000000000E+002,  0.00000000000E+000,  0.10000000000E+001
  0.18098400000E+008,  0.20208472509E+007,  0.19000000000E+002,  0.00000000000E+000,  0.10000000000E+001
  0.18099900000E+008,  0.20209101247E+007,  0.19000000000E+002,  0.00000000000E+000,  0.10000000000E+001
  0.18101400000E+008,  0.20209743199E+007,  0.19000000000E+002,  0.00000000000E+000,  0.10000000000E+001
  0.18102900000E+008,  0.20210397179E+007,  0.19000000000E+002,  0.00000000000E+000,  0.10000000000E+001
  0.18104400000E+008,  0.20211062170E+007,  0.19000000000E+002,  0.00000000000E+000,  0.10000000000E+001
  0.18105900000E+008,  0.20211737290E+007,  0.19000000000E+002,  0.00000000000E+000,  0.10000000000E+001
  0.18107400000E+008,  0.20212421775E+007,  0.19000000000E+002,  0.00000000000E+000,  0.10000000000E+001
  0.18108900000E+008,  0.20213114954E+007,  0.19000000000E+002,  0.00000000000E+000,  0.10000000000E+001
  0.18110400000E+008,  0.20213816236E+007,  0.19000000000E+002,  0.00000000000E+000,  0.10000000000E+001
  0.18111900000E+008,  0.20214525100E+007,  0.19000000000E+002,  0.00000000000E+000,  0.10000000000E+001
  0.18113400000E+008,  0.20215241079E+007,  0.19000000000E+002,  0.00000000000E+000,  0.10000000000E+001
  0.18114900000E+008,  0.20215963754E+007,  0.19000000000E+002,  0.00000000000E+000,  0.10000000000E+001
  0.18116400000E+008,  0.20216692747E+007,  0.19000000000E+002,  0.00000000000E+000,  0.10000000000E+001
  0.18117900000E+008,  0.20217427713E+007,  0.19000000000E+002,  0.00000000000E+000,  0.10000000000E+001
  0.18119400000E+008,  0.20218168341E+007,  0.19000000000E+002,  0.00000000000E+000,  0.10000000000E+001
  0.18120900000E+008,  0.20218914340E+007,  0.19000000000E+002,  0.00000000000E+000,  0.10000000000E+001
  0.18122400000E+008,  0.20219812429E+007,  0.19000000000E+002,  0.00000000000E+000,  0.10000000000E+001
  0.18123900000E+008,  0.20221127051E+007,  0.19000000000E+002,  0.00000000000E+000,  0.10000000000E+001
  0.18125400000E+008,  0.20222771593E+007,  0.19000000000E+002,  0.00000000000E+000,  0.10000000000E+001
  0.18126900000E+008,  0.20224669838E+007,  0.19000000000E+002,  0.00000000000E+000,  0.10000000000E+001
  0.18128400000E+008,  0.20226767411E+007,  0.19000000000E+002,  0.00000000000E+000,  0.10000000000E+001
  0.18129900000E+008,  0.20229022363E+007,  0.19000000000E+002,  0.00000000000E+000,  0.10000000000E+001
  0.18131400000E+008,  0.20231401142E+007,  0.19000000000E+002,  0.00000000000E+000,  0.10000000000E+001
  0.18132900000E+008,  0.20233876627E+007,  0.19000000000E+002,  0.00000000000E+000,  0.10000000000E+001
  0.18134400000E+008,  0.20236426821E+007,  0.19000000000E+002,  0.00000000000E+000,  0.10000000000E+001
  0.18135900000E+008,  0.20239033866E+007,  0.19000000000E+002,  0.00000000000E+000,  0.10000000000E+001
  0.18137400000E+008,  0.20241683262E+007,  0.19000000000E+002,  0.00000000000E+000,  0.10000000000E+001
  0.18138900000E+008,  0.20244363235E+007,  0.19000000000E+002,  0.00000000000E+000,  0.10000000000E+001
  0.18140400000E+008,  0.20247064231E+007,  0.19000000000E+002,  0.00000000000E+000,  0.10000000000E+001
  0.18141900000E+008,  0.20249778503E+007,  0.19000000000E+002,  0.00000000000E+000,  0.10000000000E+001
  0.18143400000E+008,  0.20252499782E+007,  0.19000000000E+002,  0.00000000000E+000,  0.10000000000E+001
  0.18144900000E+008,  0.20255223001E+007,  0.19000000000E+002,  0.00000000000E+000,  0.10000000000E+001
  0.18146400000E+008,  0.20257944076E+007,  0.19000000000E+002,  0.00000000000E+000,  0.10000000000E+001
  0.18147900000E+008,  0.20260659728E+007,  0.19000000000E+002,  0.00000000000E+000,  0.10000000000E+001
  0.18149400000E+008,  0.20263367334E+007,  0.19000000000E+002,  0.00000000000E+000,  0.10000000000E+001
  0.18150900000E+008,  0.20266064810E+007,  0.19000000000E+002,  0.00000000000E+000,  0.10000000000E+001
  0.18152400000E+008,  0.20268750508E+007,  0.19000000000E+002,  0.00000000000E+000,  0.10000000000E+001
  0.18153900000E+008,  0.20271423143E+007,  0.19000000000E+002,  0.00000000000E+000,  0.10000000000E+001
  0.18155400000E+008,  0.20274081721E+007,  0.19000000000E+002,  0.00000000000E+000,  0.10000000000E+001
  0.18156900000E+008,  0.20276725491E+007,  0.19000000000E+002,  0.00000000000E+000,  0.10000000000E+001
  0.18158400000E+008,  0.20279353895E+007,  0.19000000000E+002,  0.00000000000E+000,  0.10000000000E+001
  0.18159900000E+008,  0.20281966535E+007,  0.19000000000E+002,  0.00000000000E+000,  0.10000000000E+001
  0.18161400000E+008,  0.20284563146E+007,  0.19000000000E+002,  0.00000000000E+000,  0.10000000000E+001
  0.18162900000E+008,  0.20287143565E+007,  0.19000000000E+002,  0.00000000000E+000,  0.10000000000E+001
  0.18164400000E+008,  0.20289707718E+007,  0.19000000000E+002,  0.00000000000E+000,  0.10000000000E+001
  0.18165900000E+008,  0.20292255597E+007,  0.19000000000E+002,  0.00000000000E+000,  0.10000000000E+001
  0.18167400000E+008,  0.20294787252E+007,  0.19000000000E+002,  0.00000000000E+000,  0.10000000000E+001
  0.18168900000E+008,  0.20297302777E+007,  0.19000000000E+002,  0.00000000000E+000,  0.10000000000E+001
  0.18170400000E+008,  0.20299802301E+007,  0.19000000000E+002,  0.00000000000E+000,  0.10000000000E+001
  0.18171900000E+008,  0.20302285980E+007,  0.19000000000E+002,  0.00000000000E+000,  0.10000000000E+001
  0.18173400000E+008,  0.20304753995E+007,  0.19000000000E+002,  0.00000000000E+000,  0.10000000000E+001
  0.18174900000E+008,  0.20307207706E+007,  0.19000000000E+002,  0.00000000000E+000,  0.10000000000E+001
  0.18176400000E+008,  0.20309663431E+007,  0.19000000000E+002,  0.00000000000E+000,  0.10000000000E+001
  0.18177900000E+008,  0.20312118125E+007,  0.19000000000E+002,  0.00000000000E+000,  0.10000000000E+001
  0.18179400000E+008,  0.20314568829E+007,  0.19000000000E+002,  0.00000000000E+000,  0.10000000000E+001
  0.18180900000E+008,  0.20317013529E+007,  0.19000000000E+002,  0.00000000000E+000,  0.10000000000E+001
  0.18182400000E+008,  0.20319450725E+007,  0.19000000000E+002,  0.00000000000E+000,  0.10000000000E+001
  0.18183900000E+008,  0.20321879254E+007,  0.19000000000E+002,  0.00000000000E+000,  0.10000000000E+001
  0.18185400000E+008,  0.20324298206E+007,  0.19000000000E+002,  0.00000000000E+000,  0.10000000000E+001
  0.18186900000E+008,  0.20326706876E+007,  0.19000000000E+002,  0.00000000000E+000,  0.10000000000E+001
  0.18188400000E+008,  0.20329104722E+007,  0.19000000000E+002,  0.00000000000E+000,  0.10000000000E+001
  0.18189900000E+008,  0.20331491339E+007,  0.19000000000E+002,  0.00000000000E+000,  0.10000000000E+001
  0.18191400000E+008,  0.20333866429E+007,  0.19000000000E+002,  0.00000000000E+000,  0.10000000000E+001
  0.18192900000E+008,  0.20336229784E+007,  0.19000000000E+002,  0.00000000000E+000,  0.10000000000E+001
  0.18194400000E+008,  0.20338581267E+007,  0.19000000000E+002,  0.00000000000E+000,  0.10000000000E+001
  0.18195900000E+008,  0.20340920801E+007,  0.19000000000E+002,  0.00000000000E+000,  0.10000000000E+001
  0.18197400000E+008,  0.20343248355E+007,  0.19000000000E+002,  0.00000000000E+000,  0.10000000000E+001
  0.18198900000E+008,  0.20345563937E+007,  0.19000000000E+002,  0.00000000000E+000,  0.10000000000E+001
  0.18200400000E+008,  0.20347867585E+007,  0.19000000000E+002,  0.00000000000E+000,  0.10000000000E+001
  0.18201900000E+008,  0.20350159362E+007,  0.19000000000E+002,  0.00000000000E+000,  0.10000000000E+001
  0.18203400000E+008,  0.20352439349E+007,  0.19000000000E+002,  0.00000000000E+000,  0.10000000000E+001
  0.18204900000E+008,  0.20354707645E+007,  0.19000000000E+002,  0.00000000000E+000,  0.10000000000E+001
  0.18206400000E+008,  0.20356964357E+007,  0.19000000000E+002,  0.00000000000E+000,  0.10000000000E+001
  0.18207900000E+008,  0.20359209604E+007,  0.19000000000E+002,  0.00000000000E+000,  0.10000000000E+001
  0.18209400000E+008,  0.20361443509E+007,  0.19000000000E+002,  0.00000000000E+000,  0.10000000000E+001
  0.18210900000E+008,  0.20363666204E+007,  0.19000000000E+002,  0.00000000000E+000,  0.10000000000E+001
  0.18212400000E+008,  0.20365877819E+007,  0.19000000000E+002,  0.00000000000E+000,  0.10000000000E+001
  0.18213900000E+008,  0.20368078489E+007,  0.19000000000E+002,  0.00000000000E+000,  0.10000000000E+001
  0.18215400000E+008,  0.20370268351E+007,  0.19000000000E+002,  0.00000000000E+000,  0.10000000000E+001
  0.18216900000E+008,  0.20372447539E+007,  0.19000000000E+002,  0.00000000000E+000,  0.10000000000E+001
  0.18218400000E+008,  0.20374616188E+007,  0.19000000000E+002,  0.00000000000E+000,  0.10000000000E+001
  0.18219900000E+008,  0.20376774434E+007,  0.19000000000E+002,  0.00000000000E+000,  0.10000000000E+001
  0.18221400000E+008,  0.20378922407E+007,  0.19000000000E+002,  0.00000000000E+000,  0.10000000000E+001
  0.18222900000E+008,  0.20381060240E+007,  0.19000000000E+002,  0.00000000000E+000,  0.10000000000E+001
  0.18224400000E+008,  0.20383188061E+007,  0.19000000000E+002,  0.00000000000E+000,  0.10000000000E+001
  0.18225900000E+008,  0.20385305996E+007,  0.19000000000E+002,  0.00000000000E+000,  0.10000000000E+001
  0.18227400000E+008,  0.20387414169E+007,  0.19000000000E+002,  0.00000000000E+000,  0.10000000000E+001
  0.18228900000E+008,  0.20389529393E+007,  0.19000000000E+002,  0.00000000000E+000,  0.10000000000E+001
  0.18230400000E+008,  0.20391654908E+007,  0.19000000000E+002,  0.00000000000E+000,  0.10000000000E+001
  0.18231900000E+008,  0.20393786757E+007,  0.19000000000E+002,  0.00000000000E+000,  0.10000000000E+001
  0.18233400000E+008,  0.20395921837E+007,  0.19000000000E+002,  0.00000000000E+000,  0.10000000000E+001
  0.18234900000E+008,  0.20398057843E+007,  0.19000000000E+002,  0.00000000000E+000,  0.10000000000E+001
  0.18236400000E+008,  0.20400192943E+007,  0.19000000000E+002,  0.00000000000E+000,  0.10000000000E+001
  0.18237900000E+008,  0.20402325649E+007,  0.19000000000E+002,  0.00000000000E+000,  0.10000000000E+001
  0.18239400000E+008,  0.20404454744E+007,  0.19000000000E+002,  0.00000000000E+000,  0.10000000000E+001
  0.18240900000E+008,  0.20406579234E+007,  0.19000000000E+002,  0.00000000000E+000,  0.10000000000E+001
  0.18242400000E+008,  0.20408698310E+007,  0.19000000000E+002,  0.00000000000E+000,  0.10000000000E+001
  0.18243900000E+008,  0.20410811315E+007,  0.19000000000E+002,  0.00000000000E+000,  0.10000000000E+001
  0.18245400000E+008,  0.20412917719E+007,  0.19000000000E+002,  0.00000000000E+000,  0.10000000000E+001
