"           TIME(S)","              PRES","              TEMP","             SAT_G","             SAT_L"
  0.94881000000E+005,  0.49931373366E+006,  0.16500000000E+002,  0.00000000000E+000,  0.10000000000E+001
  0.94886000000E+005,  0.27196929055E+007,  0.16500000000E+002,  0.00000000000E+000,  0.10000000000E+001
  0.94896000000E+005,  0.41904979617E+007,  0.16500000000E+002,  0.00000000000E+000,  0.10000000000E+001
  0.94906000000E+005,  0.47768301522E+007,  0.16500000000E+002,  0.00000000000E+000,  0.10000000000E+001
  0.94916000000E+005,  0.51056018966E+007,  0.16500000000E+002,  0.00000000000E+000,  0.10000000000E+001
  0.94926000000E+005,  0.53246907555E+007,  0.16500000000E+002,  0.00000000000E+000,  0.10000000000E+001
  0.94936000000E+005,  0.54857263766E+007,  0.16500000000E+002,  0.00000000000E+000,  0.10000000000E+001
  0.94946000000E+005,  0.56115444759E+007,  0.16500000000E+002,  0.00000000000E+000,  0.10000000000E+001
  0.94956000000E+005,  0.57138726583E+007,  0.16500000000E+002,  0.00000000000E+000,  0.10000000000E+001
  0.94966000000E+005,  0.57994159709E+007,  0.16500000000E+002,  0.00000000000E+000,  0.10000000000E+001
  0.94976000000E+005,  0.58723435953E+007,  0.16500000000E+002,  0.00000000000E+000,  0.10000000000E+001
  0.94986000000E+005,  0.59354282407E+007,  0.16500000000E+002,  0.00000000000E+000,  0.10000000000E+001
  0.94996000000E+005,  0.59906157124E+007,  0.16500000000E+002,  0.00000000000E+000,  0.10000000000E+001
  0.95006000000E+005,  0.60393311258E+007,  0.16500000000E+002,  0.00000000000E+000,  0.10000000000E+001
  0.95016000000E+005,  0.60826542783E+007,  0.16500000000E+002,  0.00000000000E+000,  0.10000000000E+001
  0.95026000000E+005,  0.61214257963E+007,  0.16500000000E+002,  0.00000000000E+000,  0.10000000000E+001
  0.95036000000E+005,  0.61563145518E+007,  0.16500000000E+002,  0.00000000000E+000,  0.10000000000E+001
  0.95046000000E+005,  0.61878622998E+007,  0.16500000000E+002,  0.00000000000E+000,  0.10000000000E+001
  0.95056000000E+005,  0.62165143105E+007,  0.16500000000E+002,  0.00000000000E+000,  0.10000000000E+001
  0.95066000000E+005,  0.62426410474E+007,  0.16500000000E+002,  0.00000000000E+000,  0.10000000000E+001
  0.95076000000E+005,  0.62665539207E+007,  0.16500000000E+002,  0.00000000000E+000,  0.10000000000E+001
  0.95086000000E+005,  0.62885170003E+007,  0.16500000000E+002,  0.00000000000E+000,  0.10000000000E+001
  0.95096000000E+005,  0.63087558995E+007,  0.16500000000E+002,  0.00000000000E+000,  0.10000000000E+001
  0.95106000000E+005,  0.63274646305E+007,  0.16500000000E+002,  0.00000000000E+000,  0.10000000000E+001
  0.95116000000E+005,  0.63448109773E+007,  0.16500000000E+002,  0.00000000000E+000,  0.10000000000E+001
  0.95126000000E+005,  0.63609407632E+007,  0.16500000000E+002,  0.00000000000E+000,  0.10000000000E+001
  0.95136000000E+005,  0.63759812806E+007,  0.16500000000E+002,  0.00000000000E+000,  0.10000000000E+001
  0.95146000000E+005,  0.63900440792E+007,  0.16500000000E+002,  0.00000000000E+000,  0.10000000000E+001
  0.95156000000E+005,  0.64032272517E+007,  0.16500000000E+002,  0.00000000000E+000,  0.10000000000E+001
  0.95166000000E+005,  0.64156173269E+007,  0.16500000000E+002,  0.00000000000E+000,  0.10000000000E+001
  0.95176000000E+005,  0.64272908468E+007,  0.16500000000E+002,  0.00000000000E+000,  0.10000000000E+001
  0.95186000000E+005,  0.64383156920E+007,  0.16500000000E+002,  0.00000000000E+000,  0.10000000000E+001
  0.95196000000E+005,  0.64487522014E+007,  0.16500000000E+002,  0.00000000000E+000,  0.10000000000E+001
  0.95206000000E+005,  0.64586541241E+007,  0.16500000000E+002,  0.00000000000E+000,  0.10000000000E+001
  0.95216000000E+005,  0.64680694329E+007,  0.16500000000E+002,  0.00000000000E+000,  0.10000000000E+001
  0.95226000000E+005,  0.64770410224E+007,  0.16500000000E+002,  0.00000000000E+000,  0.10000000000E+001
  0.95236000000E+005,  0.64856073112E+007,  0.16500000000E+002,  0.00000000000E+000,  0.10000000000E+001
  0.95246000000E+005,  0.64938027632E+007,  0.16500000000E+002,  0.00000000000E+000,  0.10000000000E+001
  0.95256000000E+005,  0.65016583402E+007,  0.16500000000E+002,  0.00000000000E+000,  0.10000000000E+001
  0.95266000000E+005,  0.65092018974E+007,  0.16500000000E+002,  0.00000000000E+000,  0.10000000000E+001
  0.95276000000E+005,  0.65164585277E+007,  0.16500000000E+002,  0.00000000000E+000,  0.10000000000E+001
  0.95286000000E+005,  0.65234508649E+007,  0.16500000000E+002,  0.00000000000E+000,  0.10000000000E+001
  0.95296000000E+005,  0.65301993495E+007,  0.16500000000E+002,  0.00000000000E+000,  0.10000000000E+001
  0.95306000000E+005,  0.65367224633E+007,  0.16500000000E+002,  0.00000000000E+000,  0.10000000000E+001
  0.95316000000E+005,  0.65430369361E+007,  0.16500000000E+002,  0.00000000000E+000,  0.10000000000E+001
  0.95326000000E+005,  0.65491579290E+007,  0.16500000000E+002,  0.00000000000E+000,  0.10000000000E+001
  0.95336000000E+005,  0.65550991964E+007,  0.16500000000E+002,  0.00000000000E+000,  0.10000000000E+001
  0.95346000000E+005,  0.65608732304E+007,  0.16500000000E+002,  0.00000000000E+000,  0.10000000000E+001
  0.95356000000E+005,  0.65664913890E+007,  0.16500000000E+002,  0.00000000000E+000,  0.10000000000E+001
  0.95366000000E+005,  0.65719640095E+007,  0.16500000000E+002,  0.00000000000E+000,  0.10000000000E+001
  0.95376000000E+005,  0.65773005112E+007,  0.16500000000E+002,  0.00000000000E+000,  0.10000000000E+001
  0.95386000000E+005,  0.65825094854E+007,  0.16500000000E+002,  0.00000000000E+000,  0.10000000000E+001
  0.95396000000E+005,  0.65875987770E+007,  0.16500000000E+002,  0.00000000000E+000,  0.10000000000E+001
  0.95406000000E+005,  0.65925755573E+007,  0.16500000000E+002,  0.00000000000E+000,  0.10000000000E+001
  0.95416000000E+005,  0.65974463886E+007,  0.16500000000E+002,  0.00000000000E+000,  0.10000000000E+001
  0.95426000000E+005,  0.66022172829E+007,  0.16500000000E+002,  0.00000000000E+000,  0.10000000000E+001
  0.95436000000E+005,  0.66068937543E+007,  0.16500000000E+002,  0.00000000000E+000,  0.10000000000E+001
  0.95446000000E+005,  0.66114808657E+007,  0.16500000000E+002,  0.00000000000E+000,  0.10000000000E+001
  0.95456000000E+005,  0.66159832715E+007,  0.16500000000E+002,  0.00000000000E+000,  0.10000000000E+001
  0.95466000000E+005,  0.66204052552E+007,  0.16500000000E+002,  0.00000000000E+000,  0.10000000000E+001
  0.95476000000E+005,  0.66247507642E+007,  0.16500000000E+002,  0.00000000000E+000,  0.10000000000E+001
  0.95486000000E+005,  0.66290234401E+007,  0.16500000000E+002,  0.00000000000E+000,  0.10000000000E+001
  0.95496000000E+005,  0.66332266469E+007,  0.16500000000E+002,  0.00000000000E+000,  0.10000000000E+001
  0.95506000000E+005,  0.66373634957E+007,  0.16500000000E+002,  0.00000000000E+000,  0.10000000000E+001
  0.95516000000E+005,  0.66414368679E+007,  0.16500000000E+002,  0.00000000000E+000,  0.10000000000E+001
  0.95526000000E+005,  0.66454494352E+007,  0.16500000000E+002,  0.00000000000E+000,  0.10000000000E+001
  0.95536000000E+005,  0.66494036782E+007,  0.16500000000E+002,  0.00000000000E+000,  0.10000000000E+001
  0.95546000000E+005,  0.66533019034E+007,  0.16500000000E+002,  0.00000000000E+000,  0.10000000000E+001
  0.95556000000E+005,  0.66571462578E+007,  0.16500000000E+002,  0.00000000000E+000,  0.10000000000E+001
  0.95566000000E+005,  0.66609387431E+007,  0.16500000000E+002,  0.00000000000E+000,  0.10000000000E+001
  0.95576000000E+005,  0.66646812280E+007,  0.16500000000E+002,  0.00000000000E+000,  0.10000000000E+001
  0.95586000000E+005,  0.66683754592E+007,  0.16500000000E+002,  0.00000000000E+000,  0.10000000000E+001
  0.95596000000E+005,  0.66720230719E+007,  0.16500000000E+002,  0.00000000000E+000,  0.10000000000E+001
  0.95606000000E+005,  0.66756255988E+007,  0.16500000000E+002,  0.00000000000E+000,  0.10000000000E+001
  0.95616000000E+005,  0.66791844788E+007,  0.16500000000E+002,  0.00000000000E+000,  0.10000000000E+001
  0.95626000000E+005,  0.66827010645E+007,  0.16500000000E+002,  0.00000000000E+000,  0.10000000000E+001
  0.95636000000E+005,  0.66861766289E+007,  0.16500000000E+002,  0.00000000000E+000,  0.10000000000E+001
  0.95646000000E+005,  0.66896123721E+007,  0.16500000000E+002,  0.00000000000E+000,  0.10000000000E+001
  0.95656000000E+005,  0.66930094270E+007,  0.16500000000E+002,  0.00000000000E+000,  0.10000000000E+001
  0.95666000000E+005,  0.66963688643E+007,  0.16500000000E+002,  0.00000000000E+000,  0.10000000000E+001
  0.95676000000E+005,  0.66996916972E+007,  0.16500000000E+002,  0.00000000000E+000,  0.10000000000E+001
  0.95686000000E+005,  0.67029788864E+007,  0.16500000000E+002,  0.00000000000E+000,  0.10000000000E+001
  0.95696000000E+005,  0.67062313431E+007,  0.16500000000E+002,  0.00000000000E+000,  0.10000000000E+001
  0.95706000000E+005,  0.67094499334E+007,  0.16500000000E+002,  0.00000000000E+000,  0.10000000000E+001
  0.95716000000E+005,  0.67126354814E+007,  0.16500000000E+002,  0.00000000000E+000,  0.10000000000E+001
  0.95726000000E+005,  0.67157887718E+007,  0.16500000000E+002,  0.00000000000E+000,  0.10000000000E+001
  0.95736000000E+005,  0.67189105535E+007,  0.16500000000E+002,  0.00000000000E+000,  0.10000000000E+001
  0.95746000000E+005,  0.67220015412E+007,  0.16500000000E+002,  0.00000000000E+000,  0.10000000000E+001
  0.95756000000E+005,  0.67250624183E+007,  0.16500000000E+002,  0.00000000000E+000,  0.10000000000E+001
  0.95766000000E+005,  0.67280938392E+007,  0.16500000000E+002,  0.00000000000E+000,  0.10000000000E+001
  0.95776000000E+005,  0.67310964304E+007,  0.16500000000E+002,  0.00000000000E+000,  0.10000000000E+001
  0.95786000000E+005,  0.67340707932E+007,  0.16500000000E+002,  0.00000000000E+000,  0.10000000000E+001
  0.95796000000E+005,  0.67370175048E+007,  0.16500000000E+002,  0.00000000000E+000,  0.10000000000E+001
  0.95806000000E+005,  0.67399371202E+007,  0.16500000000E+002,  0.00000000000E+000,  0.10000000000E+001
  0.95816000000E+005,  0.67428301731E+007,  0.16500000000E+002,  0.00000000000E+000,  0.10000000000E+001
  0.95826000000E+005,  0.67456971775E+007,  0.16500000000E+002,  0.00000000000E+000,  0.10000000000E+001
  0.95836000000E+005,  0.67485386290E+007,  0.16500000000E+002,  0.00000000000E+000,  0.10000000000E+001
  0.95846000000E+005,  0.67513550056E+007,  0.16500000000E+002,  0.00000000000E+000,  0.10000000000E+001
  0.95856000000E+005,  0.67541467689E+007,  0.16500000000E+002,  0.00000000000E+000,  0.10000000000E+001
  0.95866000000E+005,  0.67569143647E+007,  0.16500000000E+002,  0.00000000000E+000,  0.10000000000E+001
  0.95876000000E+005,  0.67596582245E+007,  0.16500000000E+002,  0.00000000000E+000,  0.10000000000E+001
  0.95886000000E+005,  0.67623787657E+007,  0.16500000000E+002,  0.00000000000E+000,  0.10000000000E+001
  0.95896000000E+005,  0.67650763925E+007,  0.16500000000E+002,  0.00000000000E+000,  0.10000000000E+001
  0.95906000000E+005,  0.67677514968E+007,  0.16500000000E+002,  0.00000000000E+000,  0.10000000000E+001
  0.95916000000E+005,  0.67704044586E+007,  0.16500000000E+002,  0.00000000000E+000,  0.10000000000E+001
  0.95926000000E+005,  0.67730356466E+007,  0.16500000000E+002,  0.00000000000E+000,  0.10000000000E+001
  0.95936000000E+005,  0.67756454189E+007,  0.16500000000E+002,  0.00000000000E+000,  0.10000000000E+001
  0.95946000000E+005,  0.67782341234E+007,  0.16500000000E+002,  0.00000000000E+000,  0.10000000000E+001
  0.95956000000E+005,  0.67808020982E+007,  0.16500000000E+002,  0.00000000000E+000,  0.10000000000E+001
  0.95966000000E+005,  0.67833496723E+007,  0.16500000000E+002,  0.00000000000E+000,  0.10000000000E+001
  0.95976000000E+005,  0.67858771658E+007,  0.16500000000E+002,  0.00000000000E+000,  0.10000000000E+001
  0.95986000000E+005,  0.67883848904E+007,  0.16500000000E+002,  0.00000000000E+000,  0.10000000000E+001
  0.95996000000E+005,  0.67908731497E+007,  0.16500000000E+002,  0.00000000000E+000,  0.10000000000E+001
  0.96006000000E+005,  0.67933422394E+007,  0.16500000000E+002,  0.00000000000E+000,  0.10000000000E+001
  0.96016000000E+005,  0.67957924480E+007,  0.16500000000E+002,  0.00000000000E+000,  0.10000000000E+001
  0.96026000000E+005,  0.67982240568E+007,  0.16500000000E+002,  0.00000000000E+000,  0.10000000000E+001
  0.96036000000E+005,  0.68006373404E+007,  0.16500000000E+002,  0.00000000000E+000,  0.10000000000E+001
  0.96046000000E+005,  0.68030325665E+007,  0.16500000000E+002,  0.00000000000E+000,  0.10000000000E+001
  0.96056000000E+005,  0.68054099968E+007,  0.16500000000E+002,  0.00000000000E+000,  0.10000000000E+001
  0.96066000000E+005,  0.68077698868E+007,  0.16500000000E+002,  0.00000000000E+000,  0.10000000000E+001
  0.96076000000E+005,  0.68101124861E+007,  0.16500000000E+002,  0.00000000000E+000,  0.10000000000E+001
  0.96086000000E+005,  0.68124380388E+007,  0.16500000000E+002,  0.00000000000E+000,  0.10000000000E+001
  0.96096000000E+005,  0.68147467834E+007,  0.16500000000E+002,  0.00000000000E+000,  0.10000000000E+001
  0.96106000000E+005,  0.68170389533E+007,  0.16500000000E+002,  0.00000000000E+000,  0.10000000000E+001
  0.96116000000E+005,  0.68193147766E+007,  0.16500000000E+002,  0.00000000000E+000,  0.10000000000E+001
  0.96126000000E+005,  0.68215744767E+007,  0.16500000000E+002,  0.00000000000E+000,  0.10000000000E+001
  0.96136000000E+005,  0.68238182723E+007,  0.16500000000E+002,  0.00000000000E+000,  0.10000000000E+001
  0.96146000000E+005,  0.68260463772E+007,  0.16500000000E+002,  0.00000000000E+000,  0.10000000000E+001
  0.96156000000E+005,  0.68282590012E+007,  0.16500000000E+002,  0.00000000000E+000,  0.10000000000E+001
  0.96166000000E+005,  0.68304563493E+007,  0.16500000000E+002,  0.00000000000E+000,  0.10000000000E+001
  0.96176000000E+005,  0.68326386228E+007,  0.16500000000E+002,  0.00000000000E+000,  0.10000000000E+001
  0.96186000000E+005,  0.68348060186E+007,  0.16500000000E+002,  0.00000000000E+000,  0.10000000000E+001
  0.96196000000E+005,  0.68369587299E+007,  0.16500000000E+002,  0.00000000000E+000,  0.10000000000E+001
  0.96206000000E+005,  0.68390969460E+007,  0.16500000000E+002,  0.00000000000E+000,  0.10000000000E+001
  0.96216000000E+005,  0.68412208525E+007,  0.16500000000E+002,  0.00000000000E+000,  0.10000000000E+001
  0.96226000000E+005,  0.68433306315E+007,  0.16500000000E+002,  0.00000000000E+000,  0.10000000000E+001
  0.96236000000E+005,  0.68454264614E+007,  0.16500000000E+002,  0.00000000000E+000,  0.10000000000E+001
  0.96246000000E+005,  0.68475085174E+007,  0.16500000000E+002,  0.00000000000E+000,  0.10000000000E+001
  0.96256000000E+005,  0.68495769714E+007,  0.16500000000E+002,  0.00000000000E+000,  0.10000000000E+001
  0.96266000000E+005,  0.68516319920E+007,  0.16500000000E+002,  0.00000000000E+000,  0.10000000000E+001
  0.96276000000E+005,  0.68536737447E+007,  0.16500000000E+002,  0.00000000000E+000,  0.10000000000E+001
  0.96286000000E+005,  0.68557023920E+007,  0.16500000000E+002,  0.00000000000E+000,  0.10000000000E+001
  0.96296000000E+005,  0.68577180934E+007,  0.16500000000E+002,  0.00000000000E+000,  0.10000000000E+001
  0.96306000000E+005,  0.68597210054E+007,  0.16500000000E+002,  0.00000000000E+000,  0.10000000000E+001
  0.96316000000E+005,  0.68617112820E+007,  0.16500000000E+002,  0.00000000000E+000,  0.10000000000E+001
  0.96326000000E+005,  0.68636890742E+007,  0.16500000000E+002,  0.00000000000E+000,  0.10000000000E+001
  0.96336000000E+005,  0.68656545303E+007,  0.16500000000E+002,  0.00000000000E+000,  0.10000000000E+001
  0.96346000000E+005,  0.68676077962E+007,  0.16500000000E+002,  0.00000000000E+000,  0.10000000000E+001
  0.96356000000E+005,  0.68695490152E+007,  0.16500000000E+002,  0.00000000000E+000,  0.10000000000E+001
  0.96366000000E+005,  0.68714783279E+007,  0.16500000000E+002,  0.00000000000E+000,  0.10000000000E+001
  0.96376000000E+005,  0.68733958728E+007,  0.16500000000E+002,  0.00000000000E+000,  0.10000000000E+001
  0.96386000000E+005,  0.68753017858E+007,  0.16500000000E+002,  0.00000000000E+000,  0.10000000000E+001
  0.96396000000E+005,  0.68771962005E+007,  0.16500000000E+002,  0.00000000000E+000,  0.10000000000E+001
  0.96406000000E+005,  0.68790792485E+007,  0.16500000000E+002,  0.00000000000E+000,  0.10000000000E+001
  0.96416000000E+005,  0.68809510588E+007,  0.16500000000E+002,  0.00000000000E+000,  0.10000000000E+001
  0.96426000000E+005,  0.68828117586E+007,  0.16500000000E+002,  0.00000000000E+000,  0.10000000000E+001
  0.96436000000E+005,  0.68846614729E+007,  0.16500000000E+002,  0.00000000000E+000,  0.10000000000E+001
  0.96446000000E+005,  0.68865003244E+007,  0.16500000000E+002,  0.00000000000E+000,  0.10000000000E+001
  0.96456000000E+005,  0.68883284342E+007,  0.16500000000E+002,  0.00000000000E+000,  0.10000000000E+001
  0.96466000000E+005,  0.68901459210E+007,  0.16500000000E+002,  0.00000000000E+000,  0.10000000000E+001
  0.96476000000E+005,  0.68919529020E+007,  0.16500000000E+002,  0.00000000000E+000,  0.10000000000E+001
  0.96486000000E+005,  0.68937494922E+007,  0.16500000000E+002,  0.00000000000E+000,  0.10000000000E+001
  0.96496000000E+005,  0.68955358049E+007,  0.16500000000E+002,  0.00000000000E+000,  0.10000000000E+001
  0.96506000000E+005,  0.68973119516E+007,  0.16500000000E+002,  0.00000000000E+000,  0.10000000000E+001
  0.96516000000E+005,  0.68990780420E+007,  0.16500000000E+002,  0.00000000000E+000,  0.10000000000E+001
  0.96526000000E+005,  0.69008341840E+007,  0.16500000000E+002,  0.00000000000E+000,  0.10000000000E+001
  0.96536000000E+005,  0.69025804839E+007,  0.16500000000E+002,  0.00000000000E+000,  0.10000000000E+001
  0.96546000000E+005,  0.69043170464E+007,  0.16500000000E+002,  0.00000000000E+000,  0.10000000000E+001
  0.96556000000E+005,  0.69060439746E+007,  0.16500000000E+002,  0.00000000000E+000,  0.10000000000E+001
  0.96566000000E+005,  0.69077613697E+007,  0.16500000000E+002,  0.00000000000E+000,  0.10000000000E+001
  0.96576000000E+005,  0.69094693317E+007,  0.16500000000E+002,  0.00000000000E+000,  0.10000000000E+001
  0.96586000000E+005,  0.69111679590E+007,  0.16500000000E+002,  0.00000000000E+000,  0.10000000000E+001
  0.96596000000E+005,  0.69128573484E+007,  0.16500000000E+002,  0.00000000000E+000,  0.10000000000E+001
  0.96606000000E+005,  0.69145375953E+007,  0.16500000000E+002,  0.00000000000E+000,  0.10000000000E+001
  0.96616000000E+005,  0.69162087936E+007,  0.16500000000E+002,  0.00000000000E+000,  0.10000000000E+001
  0.96626000000E+005,  0.69178710360E+007,  0.16500000000E+002,  0.00000000000E+000,  0.10000000000E+001
  0.96636000000E+005,  0.69195244135E+007,  0.16500000000E+002,  0.00000000000E+000,  0.10000000000E+001
  0.96646000000E+005,  0.69211690161E+007,  0.16500000000E+002,  0.00000000000E+000,  0.10000000000E+001
  0.96656000000E+005,  0.69228049322E+007,  0.16500000000E+002,  0.00000000000E+000,  0.10000000000E+001
  0.96666000000E+005,  0.69244322490E+007,  0.16500000000E+002,  0.00000000000E+000,  0.10000000000E+001
  0.96676000000E+005,  0.69260510524E+007,  0.16500000000E+002,  0.00000000000E+000,  0.10000000000E+001
  0.96686000000E+005,  0.69276614272E+007,  0.16500000000E+002,  0.00000000000E+000,  0.10000000000E+001
  0.96696000000E+005,  0.69292634568E+007,  0.16500000000E+002,  0.00000000000E+000,  0.10000000000E+001
  0.96706000000E+005,  0.69308572234E+007,  0.16500000000E+002,  0.00000000000E+000,  0.10000000000E+001
  0.96716000000E+005,  0.69324428081E+007,  0.16500000000E+002,  0.00000000000E+000,  0.10000000000E+001
  0.96726000000E+005,  0.69340202909E+007,  0.16500000000E+002,  0.00000000000E+000,  0.10000000000E+001
  0.96736000000E+005,  0.69355897505E+007,  0.16500000000E+002,  0.00000000000E+000,  0.10000000000E+001
  0.96746000000E+005,  0.69371512646E+007,  0.16500000000E+002,  0.00000000000E+000,  0.10000000000E+001
  0.96756000000E+005,  0.69387049097E+007,  0.16500000000E+002,  0.00000000000E+000,  0.10000000000E+001
