"           TIME(S)","              PRES","              TEMP","             SAT_G","             SAT_L"
  0.94881000000E+005,  0.49931373409E+006,  0.16500000000E+002,  0.00000000000E+000,  0.10000000000E+001
  0.94886000000E+005,  0.17966765099E+007,  0.16500000000E+002,  0.00000000000E+000,  0.10000000000E+001
  0.94896000000E+005,  0.25527763145E+007,  0.16500000000E+002,  0.00000000000E+000,  0.10000000000E+001
  0.94906000000E+005,  0.28258731993E+007,  0.16500000000E+002,  0.00000000000E+000,  0.10000000000E+001
  0.94916000000E+005,  0.29730219361E+007,  0.16500000000E+002,  0.00000000000E+000,  0.10000000000E+001
  0.94926000000E+005,  0.30690822264E+007,  0.16500000000E+002,  0.00000000000E+000,  0.10000000000E+001
  0.94936000000E+005,  0.31383202529E+007,  0.16500000000E+002,  0.00000000000E+000,  0.10000000000E+001
  0.94946000000E+005,  0.31911241925E+007,  0.16500000000E+002,  0.00000000000E+000,  0.10000000000E+001
  0.94956000000E+005,  0.32328613714E+007,  0.16500000000E+002,  0.00000000000E+000,  0.10000000000E+001
  0.94966000000E+005,  0.32666885139E+007,  0.16500000000E+002,  0.00000000000E+000,  0.10000000000E+001
  0.94976000000E+005,  0.32946350367E+007,  0.16500000000E+002,  0.00000000000E+000,  0.10000000000E+001
  0.94986000000E+005,  0.33180883069E+007,  0.16500000000E+002,  0.00000000000E+000,  0.10000000000E+001
  0.94996000000E+005,  0.33380387192E+007,  0.16500000000E+002,  0.00000000000E+000,  0.10000000000E+001
  0.95006000000E+005,  0.33552158250E+007,  0.16500000000E+002,  0.00000000000E+000,  0.10000000000E+001
  0.95016000000E+005,  0.33701697955E+007,  0.16500000000E+002,  0.00000000000E+000,  0.10000000000E+001
  0.95026000000E+005,  0.33833230909E+007,  0.16500000000E+002,  0.00000000000E+000,  0.10000000000E+001
  0.95036000000E+005,  0.33950047688E+007,  0.16500000000E+002,  0.00000000000E+000,  0.10000000000E+001
  0.95046000000E+005,  0.34054741090E+007,  0.16500000000E+002,  0.00000000000E+000,  0.10000000000E+001
  0.95056000000E+005,  0.34149373664E+007,  0.16500000000E+002,  0.00000000000E+000,  0.10000000000E+001
  0.95066000000E+005,  0.34235599388E+007,  0.16500000000E+002,  0.00000000000E+000,  0.10000000000E+001
  0.95076000000E+005,  0.34314753800E+007,  0.16500000000E+002,  0.00000000000E+000,  0.10000000000E+001
  0.95086000000E+005,  0.34387921863E+007,  0.16500000000E+002,  0.00000000000E+000,  0.10000000000E+001
  0.95096000000E+005,  0.34455989776E+007,  0.16500000000E+002,  0.00000000000E+000,  0.10000000000E+001
  0.95106000000E+005,  0.34519684984E+007,  0.16500000000E+002,  0.00000000000E+000,  0.10000000000E+001
  0.95116000000E+005,  0.34579607379E+007,  0.16500000000E+002,  0.00000000000E+000,  0.10000000000E+001
  0.95126000000E+005,  0.34636253835E+007,  0.16500000000E+002,  0.00000000000E+000,  0.10000000000E+001
  0.95136000000E+005,  0.34690037643E+007,  0.16500000000E+002,  0.00000000000E+000,  0.10000000000E+001
  0.95146000000E+005,  0.34741304004E+007,  0.16500000000E+002,  0.00000000000E+000,  0.10000000000E+001
  0.95156000000E+005,  0.34790342433E+007,  0.16500000000E+002,  0.00000000000E+000,  0.10000000000E+001
  0.95166000000E+005,  0.34837396757E+007,  0.16500000000E+002,  0.00000000000E+000,  0.10000000000E+001
  0.95176000000E+005,  0.34882673187E+007,  0.16500000000E+002,  0.00000000000E+000,  0.10000000000E+001
  0.95186000000E+005,  0.34926346872E+007,  0.16500000000E+002,  0.00000000000E+000,  0.10000000000E+001
  0.95196000000E+005,  0.34968567238E+007,  0.16500000000E+002,  0.00000000000E+000,  0.10000000000E+001
  0.95206000000E+005,  0.35009462342E+007,  0.16500000000E+002,  0.00000000000E+000,  0.10000000000E+001
  0.95216000000E+005,  0.35049142439E+007,  0.16500000000E+002,  0.00000000000E+000,  0.10000000000E+001
  0.95226000000E+005,  0.35087702910E+007,  0.16500000000E+002,  0.00000000000E+000,  0.10000000000E+001
  0.95236000000E+005,  0.35125226676E+007,  0.16500000000E+002,  0.00000000000E+000,  0.10000000000E+001
  0.95246000000E+005,  0.35161786182E+007,  0.16500000000E+002,  0.00000000000E+000,  0.10000000000E+001
  0.95256000000E+005,  0.35197445042E+007,  0.16500000000E+002,  0.00000000000E+000,  0.10000000000E+001
  0.95266000000E+005,  0.35232259401E+007,  0.16500000000E+002,  0.00000000000E+000,  0.10000000000E+001
  0.95276000000E+005,  0.35266279064E+007,  0.16500000000E+002,  0.00000000000E+000,  0.10000000000E+001
  0.95286000000E+005,  0.35299548440E+007,  0.16500000000E+002,  0.00000000000E+000,  0.10000000000E+001
  0.95296000000E+005,  0.35332107325E+007,  0.16500000000E+002,  0.00000000000E+000,  0.10000000000E+001
  0.95306000000E+005,  0.35363991558E+007,  0.16500000000E+002,  0.00000000000E+000,  0.10000000000E+001
  0.95316000000E+005,  0.35395233571E+007,  0.16500000000E+002,  0.00000000000E+000,  0.10000000000E+001
  0.95326000000E+005,  0.35425862850E+007,  0.16500000000E+002,  0.00000000000E+000,  0.10000000000E+001
  0.95336000000E+005,  0.35455906324E+007,  0.16500000000E+002,  0.00000000000E+000,  0.10000000000E+001
  0.95346000000E+005,  0.35485388693E+007,  0.16500000000E+002,  0.00000000000E+000,  0.10000000000E+001
  0.95356000000E+005,  0.35514332706E+007,  0.16500000000E+002,  0.00000000000E+000,  0.10000000000E+001
  0.95366000000E+005,  0.35542759395E+007,  0.16500000000E+002,  0.00000000000E+000,  0.10000000000E+001
  0.95376000000E+005,  0.35570688278E+007,  0.16500000000E+002,  0.00000000000E+000,  0.10000000000E+001
  0.95386000000E+005,  0.35598137530E+007,  0.16500000000E+002,  0.00000000000E+000,  0.10000000000E+001
  0.95396000000E+005,  0.35625124125E+007,  0.16500000000E+002,  0.00000000000E+000,  0.10000000000E+001
  0.95406000000E+005,  0.35651663968E+007,  0.16500000000E+002,  0.00000000000E+000,  0.10000000000E+001
  0.95416000000E+005,  0.35677772001E+007,  0.16500000000E+002,  0.00000000000E+000,  0.10000000000E+001
  0.95426000000E+005,  0.35703462297E+007,  0.16500000000E+002,  0.00000000000E+000,  0.10000000000E+001
  0.95436000000E+005,  0.35728748142E+007,  0.16500000000E+002,  0.00000000000E+000,  0.10000000000E+001
  0.95446000000E+005,  0.35753642106E+007,  0.16500000000E+002,  0.00000000000E+000,  0.10000000000E+001
  0.95456000000E+005,  0.35778156103E+007,  0.16500000000E+002,  0.00000000000E+000,  0.10000000000E+001
  0.95466000000E+005,  0.35802301452E+007,  0.16500000000E+002,  0.00000000000E+000,  0.10000000000E+001
  0.95476000000E+005,  0.35826088917E+007,  0.16500000000E+002,  0.00000000000E+000,  0.10000000000E+001
  0.95486000000E+005,  0.35849528756E+007,  0.16500000000E+002,  0.00000000000E+000,  0.10000000000E+001
  0.95496000000E+005,  0.35872630756E+007,  0.16500000000E+002,  0.00000000000E+000,  0.10000000000E+001
  0.95506000000E+005,  0.35895404267E+007,  0.16500000000E+002,  0.00000000000E+000,  0.10000000000E+001
  0.95516000000E+005,  0.35917858233E+007,  0.16500000000E+002,  0.00000000000E+000,  0.10000000000E+001
  0.95526000000E+005,  0.35940001218E+007,  0.16500000000E+002,  0.00000000000E+000,  0.10000000000E+001
  0.95536000000E+005,  0.35961841431E+007,  0.16500000000E+002,  0.00000000000E+000,  0.10000000000E+001
  0.95546000000E+005,  0.35983386750E+007,  0.16500000000E+002,  0.00000000000E+000,  0.10000000000E+001
  0.95556000000E+005,  0.36004644739E+007,  0.16500000000E+002,  0.00000000000E+000,  0.10000000000E+001
  0.95566000000E+005,  0.36025622668E+007,  0.16500000000E+002,  0.00000000000E+000,  0.10000000000E+001
  0.95576000000E+005,  0.36046327531E+007,  0.16500000000E+002,  0.00000000000E+000,  0.10000000000E+001
  0.95586000000E+005,  0.36066766058E+007,  0.16500000000E+002,  0.00000000000E+000,  0.10000000000E+001
  0.95596000000E+005,  0.36086944733E+007,  0.16500000000E+002,  0.00000000000E+000,  0.10000000000E+001
  0.95606000000E+005,  0.36106869803E+007,  0.16500000000E+002,  0.00000000000E+000,  0.10000000000E+001
  0.95616000000E+005,  0.36126547295E+007,  0.16500000000E+002,  0.00000000000E+000,  0.10000000000E+001
  0.95626000000E+005,  0.36145983023E+007,  0.16500000000E+002,  0.00000000000E+000,  0.10000000000E+001
  0.95636000000E+005,  0.36165182599E+007,  0.16500000000E+002,  0.00000000000E+000,  0.10000000000E+001
  0.95646000000E+005,  0.36184151444E+007,  0.16500000000E+002,  0.00000000000E+000,  0.10000000000E+001
  0.95656000000E+005,  0.36202894798E+007,  0.16500000000E+002,  0.00000000000E+000,  0.10000000000E+001
  0.95666000000E+005,  0.36221417723E+007,  0.16500000000E+002,  0.00000000000E+000,  0.10000000000E+001
  0.95676000000E+005,  0.36239725120E+007,  0.16500000000E+002,  0.00000000000E+000,  0.10000000000E+001
  0.95686000000E+005,  0.36257821727E+007,  0.16500000000E+002,  0.00000000000E+000,  0.10000000000E+001
  0.95696000000E+005,  0.36275712132E+007,  0.16500000000E+002,  0.00000000000E+000,  0.10000000000E+001
  0.95706000000E+005,  0.36293400776E+007,  0.16500000000E+002,  0.00000000000E+000,  0.10000000000E+001
  0.95716000000E+005,  0.36310891963E+007,  0.16500000000E+002,  0.00000000000E+000,  0.10000000000E+001
  0.95726000000E+005,  0.36328189863E+007,  0.16500000000E+002,  0.00000000000E+000,  0.10000000000E+001
  0.95736000000E+005,  0.36345298517E+007,  0.16500000000E+002,  0.00000000000E+000,  0.10000000000E+001
  0.95746000000E+005,  0.36362221844E+007,  0.16500000000E+002,  0.00000000000E+000,  0.10000000000E+001
  0.95756000000E+005,  0.36378963645E+007,  0.16500000000E+002,  0.00000000000E+000,  0.10000000000E+001
  0.95766000000E+005,  0.36395527609E+007,  0.16500000000E+002,  0.00000000000E+000,  0.10000000000E+001
  0.95776000000E+005,  0.36411917316E+007,  0.16500000000E+002,  0.00000000000E+000,  0.10000000000E+001
  0.95786000000E+005,  0.36428136239E+007,  0.16500000000E+002,  0.00000000000E+000,  0.10000000000E+001
  0.95796000000E+005,  0.36444187755E+007,  0.16500000000E+002,  0.00000000000E+000,  0.10000000000E+001
  0.95806000000E+005,  0.36460075140E+007,  0.16500000000E+002,  0.00000000000E+000,  0.10000000000E+001
  0.95816000000E+005,  0.36475801579E+007,  0.16500000000E+002,  0.00000000000E+000,  0.10000000000E+001
  0.95826000000E+005,  0.36491370168E+007,  0.16500000000E+002,  0.00000000000E+000,  0.10000000000E+001
  0.95836000000E+005,  0.36506783916E+007,  0.16500000000E+002,  0.00000000000E+000,  0.10000000000E+001
  0.95846000000E+005,  0.36522045747E+007,  0.16500000000E+002,  0.00000000000E+000,  0.10000000000E+001
  0.95856000000E+005,  0.36537158509E+007,  0.16500000000E+002,  0.00000000000E+000,  0.10000000000E+001
  0.95866000000E+005,  0.36552124968E+007,  0.16500000000E+002,  0.00000000000E+000,  0.10000000000E+001
  0.95876000000E+005,  0.36566947819E+007,  0.16500000000E+002,  0.00000000000E+000,  0.10000000000E+001
  0.95886000000E+005,  0.36581629682E+007,  0.16500000000E+002,  0.00000000000E+000,  0.10000000000E+001
  0.95896000000E+005,  0.36596173110E+007,  0.16500000000E+002,  0.00000000000E+000,  0.10000000000E+001
  0.95906000000E+005,  0.36610580587E+007,  0.16500000000E+002,  0.00000000000E+000,  0.10000000000E+001
  0.95916000000E+005,  0.36624854534E+007,  0.16500000000E+002,  0.00000000000E+000,  0.10000000000E+001
  0.95926000000E+005,  0.36638997307E+007,  0.16500000000E+002,  0.00000000000E+000,  0.10000000000E+001
  0.95936000000E+005,  0.36653011204E+007,  0.16500000000E+002,  0.00000000000E+000,  0.10000000000E+001
  0.95946000000E+005,  0.36666898462E+007,  0.16500000000E+002,  0.00000000000E+000,  0.10000000000E+001
  0.95956000000E+005,  0.36680661264E+007,  0.16500000000E+002,  0.00000000000E+000,  0.10000000000E+001
  0.95966000000E+005,  0.36694301736E+007,  0.16500000000E+002,  0.00000000000E+000,  0.10000000000E+001
  0.95976000000E+005,  0.36707821952E+007,  0.16500000000E+002,  0.00000000000E+000,  0.10000000000E+001
  0.95986000000E+005,  0.36721223935E+007,  0.16500000000E+002,  0.00000000000E+000,  0.10000000000E+001
  0.95996000000E+005,  0.36734509657E+007,  0.16500000000E+002,  0.00000000000E+000,  0.10000000000E+001
  0.96006000000E+005,  0.36747681044E+007,  0.16500000000E+002,  0.00000000000E+000,  0.10000000000E+001
  0.96016000000E+005,  0.36760739973E+007,  0.16500000000E+002,  0.00000000000E+000,  0.10000000000E+001
  0.96026000000E+005,  0.36773688279E+007,  0.16500000000E+002,  0.00000000000E+000,  0.10000000000E+001
  0.96036000000E+005,  0.36786527750E+007,  0.16500000000E+002,  0.00000000000E+000,  0.10000000000E+001
  0.96046000000E+005,  0.36799260134E+007,  0.16500000000E+002,  0.00000000000E+000,  0.10000000000E+001
  0.96056000000E+005,  0.36811887138E+007,  0.16500000000E+002,  0.00000000000E+000,  0.10000000000E+001
  0.96066000000E+005,  0.36824410427E+007,  0.16500000000E+002,  0.00000000000E+000,  0.10000000000E+001
  0.96076000000E+005,  0.36836831630E+007,  0.16500000000E+002,  0.00000000000E+000,  0.10000000000E+001
  0.96086000000E+005,  0.36849152337E+007,  0.16500000000E+002,  0.00000000000E+000,  0.10000000000E+001
  0.96096000000E+005,  0.36861374103E+007,  0.16500000000E+002,  0.00000000000E+000,  0.10000000000E+001
  0.96106000000E+005,  0.36873498445E+007,  0.16500000000E+002,  0.00000000000E+000,  0.10000000000E+001
  0.96116000000E+005,  0.36885526849E+007,  0.16500000000E+002,  0.00000000000E+000,  0.10000000000E+001
  0.96126000000E+005,  0.36897460767E+007,  0.16500000000E+002,  0.00000000000E+000,  0.10000000000E+001
  0.96136000000E+005,  0.36909301617E+007,  0.16500000000E+002,  0.00000000000E+000,  0.10000000000E+001
  0.96146000000E+005,  0.36921050788E+007,  0.16500000000E+002,  0.00000000000E+000,  0.10000000000E+001
  0.96156000000E+005,  0.36932709638E+007,  0.16500000000E+002,  0.00000000000E+000,  0.10000000000E+001
  0.96166000000E+005,  0.36944279494E+007,  0.16500000000E+002,  0.00000000000E+000,  0.10000000000E+001
  0.96176000000E+005,  0.36955761655E+007,  0.16500000000E+002,  0.00000000000E+000,  0.10000000000E+001
  0.96186000000E+005,  0.36967157394E+007,  0.16500000000E+002,  0.00000000000E+000,  0.10000000000E+001
  0.96196000000E+005,  0.36978467955E+007,  0.16500000000E+002,  0.00000000000E+000,  0.10000000000E+001
  0.96206000000E+005,  0.36989694555E+007,  0.16500000000E+002,  0.00000000000E+000,  0.10000000000E+001
  0.96216000000E+005,  0.37000838387E+007,  0.16500000000E+002,  0.00000000000E+000,  0.10000000000E+001
  0.96226000000E+005,  0.37011900619E+007,  0.16500000000E+002,  0.00000000000E+000,  0.10000000000E+001
  0.96236000000E+005,  0.37022882394E+007,  0.16500000000E+002,  0.00000000000E+000,  0.10000000000E+001
  0.96246000000E+005,  0.37033784831E+007,  0.16500000000E+002,  0.00000000000E+000,  0.10000000000E+001
  0.96256000000E+005,  0.37044609027E+007,  0.16500000000E+002,  0.00000000000E+000,  0.10000000000E+001
  0.96266000000E+005,  0.37055356056E+007,  0.16500000000E+002,  0.00000000000E+000,  0.10000000000E+001
  0.96276000000E+005,  0.37066026971E+007,  0.16500000000E+002,  0.00000000000E+000,  0.10000000000E+001
  0.96286000000E+005,  0.37076622804E+007,  0.16500000000E+002,  0.00000000000E+000,  0.10000000000E+001
  0.96296000000E+005,  0.37087144565E+007,  0.16500000000E+002,  0.00000000000E+000,  0.10000000000E+001
  0.96306000000E+005,  0.37097593246E+007,  0.16500000000E+002,  0.00000000000E+000,  0.10000000000E+001
  0.96316000000E+005,  0.37107969816E+007,  0.16500000000E+002,  0.00000000000E+000,  0.10000000000E+001
  0.96326000000E+005,  0.37118275229E+007,  0.16500000000E+002,  0.00000000000E+000,  0.10000000000E+001
  0.96336000000E+005,  0.37128510418E+007,  0.16500000000E+002,  0.00000000000E+000,  0.10000000000E+001
  0.96346000000E+005,  0.37138676298E+007,  0.16500000000E+002,  0.00000000000E+000,  0.10000000000E+001
  0.96356000000E+005,  0.37148773768E+007,  0.16500000000E+002,  0.00000000000E+000,  0.10000000000E+001
  0.96366000000E+005,  0.37158803708E+007,  0.16500000000E+002,  0.00000000000E+000,  0.10000000000E+001
  0.96376000000E+005,  0.37168766982E+007,  0.16500000000E+002,  0.00000000000E+000,  0.10000000000E+001
  0.96386000000E+005,  0.37178664439E+007,  0.16500000000E+002,  0.00000000000E+000,  0.10000000000E+001
  0.96396000000E+005,  0.37188496908E+007,  0.16500000000E+002,  0.00000000000E+000,  0.10000000000E+001
  0.96406000000E+005,  0.37198265208E+007,  0.16500000000E+002,  0.00000000000E+000,  0.10000000000E+001
  0.96416000000E+005,  0.37207970138E+007,  0.16500000000E+002,  0.00000000000E+000,  0.10000000000E+001
  0.96426000000E+005,  0.37217612486E+007,  0.16500000000E+002,  0.00000000000E+000,  0.10000000000E+001
  0.96436000000E+005,  0.37227193023E+007,  0.16500000000E+002,  0.00000000000E+000,  0.10000000000E+001
  0.96446000000E+005,  0.37236712507E+007,  0.16500000000E+002,  0.00000000000E+000,  0.10000000000E+001
  0.96456000000E+005,  0.37246171681E+007,  0.16500000000E+002,  0.00000000000E+000,  0.10000000000E+001
  0.96466000000E+005,  0.37255571277E+007,  0.16500000000E+002,  0.00000000000E+000,  0.10000000000E+001
  0.96476000000E+005,  0.37264912012E+007,  0.16500000000E+002,  0.00000000000E+000,  0.10000000000E+001
  0.96486000000E+005,  0.37274194592E+007,  0.16500000000E+002,  0.00000000000E+000,  0.10000000000E+001
  0.96496000000E+005,  0.37283419707E+007,  0.16500000000E+002,  0.00000000000E+000,  0.10000000000E+001
  0.96506000000E+005,  0.37292588039E+007,  0.16500000000E+002,  0.00000000000E+000,  0.10000000000E+001
  0.96516000000E+005,  0.37301700255E+007,  0.16500000000E+002,  0.00000000000E+000,  0.10000000000E+001
  0.96526000000E+005,  0.37310757013E+007,  0.16500000000E+002,  0.00000000000E+000,  0.10000000000E+001
  0.96536000000E+005,  0.37319758957E+007,  0.16500000000E+002,  0.00000000000E+000,  0.10000000000E+001
  0.96546000000E+005,  0.37328706722E+007,  0.16500000000E+002,  0.00000000000E+000,  0.10000000000E+001
  0.96556000000E+005,  0.37337600930E+007,  0.16500000000E+002,  0.00000000000E+000,  0.10000000000E+001
  0.96566000000E+005,  0.37346442195E+007,  0.16500000000E+002,  0.00000000000E+000,  0.10000000000E+001
  0.96576000000E+005,  0.37355231119E+007,  0.16500000000E+002,  0.00000000000E+000,  0.10000000000E+001
  0.96586000000E+005,  0.37363968294E+007,  0.16500000000E+002,  0.00000000000E+000,  0.10000000000E+001
  0.96596000000E+005,  0.37372654301E+007,  0.16500000000E+002,  0.00000000000E+000,  0.10000000000E+001
  0.96606000000E+005,  0.37381289715E+007,  0.16500000000E+002,  0.00000000000E+000,  0.10000000000E+001
  0.96616000000E+005,  0.37389875097E+007,  0.16500000000E+002,  0.00000000000E+000,  0.10000000000E+001
  0.96626000000E+005,  0.37398411002E+007,  0.16500000000E+002,  0.00000000000E+000,  0.10000000000E+001
  0.96636000000E+005,  0.37406897974E+007,  0.16500000000E+002,  0.00000000000E+000,  0.10000000000E+001
  0.96646000000E+005,  0.37415336549E+007,  0.16500000000E+002,  0.00000000000E+000,  0.10000000000E+001
  0.96656000000E+005,  0.37423727255E+007,  0.16500000000E+002,  0.00000000000E+000,  0.10000000000E+001
  0.96666000000E+005,  0.37432070609E+007,  0.16500000000E+002,  0.00000000000E+000,  0.10000000000E+001
  0.96676000000E+005,  0.37440367123E+007,  0.16500000000E+002,  0.00000000000E+000,  0.10000000000E+001
  0.96686000000E+005,  0.37448617299E+007,  0.16500000000E+002,  0.00000000000E+000,  0.10000000000E+001
  0.96696000000E+005,  0.37456821630E+007,  0.16500000000E+002,  0.00000000000E+000,  0.10000000000E+001
  0.96706000000E+005,  0.37464980604E+007,  0.16500000000E+002,  0.00000000000E+000,  0.10000000000E+001
  0.96716000000E+005,  0.37473094698E+007,  0.16500000000E+002,  0.00000000000E+000,  0.10000000000E+001
  0.96726000000E+005,  0.37481164385E+007,  0.16500000000E+002,  0.00000000000E+000,  0.10000000000E+001
  0.96736000000E+005,  0.37489190129E+007,  0.16500000000E+002,  0.00000000000E+000,  0.10000000000E+001
  0.96746000000E+005,  0.37497172386E+007,  0.16500000000E+002,  0.00000000000E+000,  0.10000000000E+001
  0.96756000000E+005,  0.37505111605E+007,  0.16500000000E+002,  0.00000000000E+000,  0.10000000000E+001
