"           TIME(S)","              PRES","              TEMP","             SAT_G","             SAT_L"
  0.94881000000E+005,  0.49934339553E+006,  0.16500000000E+002,  0.00000000000E+000,  0.10000000000E+001
  0.94885000000E+005,  0.51168428801E+006,  0.16500000000E+002,  0.00000000000E+000,  0.10000000000E+001
  0.94890000000E+005,  0.52968080483E+006,  0.16500000000E+002,  0.00000000000E+000,  0.10000000000E+001
  0.94895000000E+005,  0.54767324019E+006,  0.16500000000E+002,  0.00000000000E+000,  0.10000000000E+001
  0.94900000000E+005,  0.56566218511E+006,  0.16500000000E+002,  0.00000000000E+000,  0.10000000000E+001
  0.94905000000E+005,  0.58364761191E+006,  0.16500000000E+002,  0.00000000000E+000,  0.10000000000E+001
  0.94911000000E+005,  0.60522590981E+006,  0.16500000000E+002,  0.00000000000E+000,  0.10000000000E+001
  0.94921000000E+005,  0.64655244940E+006,  0.16500000000E+002,  0.00000000000E+000,  0.10000000000E+001
  0.94931000000E+005,  0.70686344318E+006,  0.16500000000E+002,  0.00000000000E+000,  0.10000000000E+001
  0.94941000000E+005,  0.86090103448E+006,  0.16500000000E+002,  0.00000000000E+000,  0.10000000000E+001
  0.94951000000E+005,  0.10356347230E+007,  0.16500000000E+002,  0.00000000000E+000,  0.10000000000E+001
  0.94961000000E+005,  0.12137289876E+007,  0.16500000000E+002,  0.00000000000E+000,  0.10000000000E+001
  0.94971000000E+005,  0.13888751785E+007,  0.16500000000E+002,  0.00000000000E+000,  0.10000000000E+001
  0.94981000000E+005,  0.15637061868E+007,  0.16500000000E+002,  0.00000000000E+000,  0.10000000000E+001
  0.94991000000E+005,  0.17382224339E+007,  0.16500000000E+002,  0.00000000000E+000,  0.10000000000E+001
  0.95001000000E+005,  0.19161683800E+007,  0.16500000000E+002,  0.00000000000E+000,  0.10000000000E+001
  0.95011000000E+005,  0.20928696627E+007,  0.16500000000E+002,  0.00000000000E+000,  0.10000000000E+001
  0.95021000000E+005,  0.22693882591E+007,  0.16500000000E+002,  0.00000000000E+000,  0.10000000000E+001
  0.95031000000E+005,  0.24440308260E+007,  0.16500000000E+002,  0.00000000000E+000,  0.10000000000E+001
  0.95041000000E+005,  0.26169666704E+007,  0.16500000000E+002,  0.00000000000E+000,  0.10000000000E+001
  0.95051000000E+005,  0.27895948840E+007,  0.16500000000E+002,  0.00000000000E+000,  0.10000000000E+001
  0.95061000000E+005,  0.29619161716E+007,  0.16500000000E+002,  0.00000000000E+000,  0.10000000000E+001
  0.95071000000E+005,  0.31339316144E+007,  0.16500000000E+002,  0.00000000000E+000,  0.10000000000E+001
  0.95081000000E+005,  0.33056422911E+007,  0.16500000000E+002,  0.00000000000E+000,  0.10000000000E+001
  0.95091000000E+005,  0.34770492747E+007,  0.16500000000E+002,  0.00000000000E+000,  0.10000000000E+001
  0.95101000000E+005,  0.36481536323E+007,  0.16500000000E+002,  0.00000000000E+000,  0.10000000000E+001
  0.95111000000E+005,  0.38189564257E+007,  0.16500000000E+002,  0.00000000000E+000,  0.10000000000E+001
  0.95121000000E+005,  0.39894587110E+007,  0.16500000000E+002,  0.00000000000E+000,  0.10000000000E+001
  0.95131000000E+005,  0.41596615389E+007,  0.16500000000E+002,  0.00000000000E+000,  0.10000000000E+001
  0.95141000000E+005,  0.43295659544E+007,  0.16500000000E+002,  0.00000000000E+000,  0.10000000000E+001
  0.95151000000E+005,  0.44991729974E+007,  0.16500000000E+002,  0.00000000000E+000,  0.10000000000E+001
  0.95161000000E+005,  0.46684837019E+007,  0.16500000000E+002,  0.00000000000E+000,  0.10000000000E+001
  0.95171000000E+005,  0.48374990971E+007,  0.16500000000E+002,  0.00000000000E+000,  0.10000000000E+001
  0.95181000000E+005,  0.50062202064E+007,  0.16500000000E+002,  0.00000000000E+000,  0.10000000000E+001
  0.95191000000E+005,  0.51746480481E+007,  0.16500000000E+002,  0.00000000000E+000,  0.10000000000E+001
  0.95201000000E+005,  0.53427836353E+007,  0.16500000000E+002,  0.00000000000E+000,  0.10000000000E+001
  0.95211000000E+005,  0.55106279757E+007,  0.16500000000E+002,  0.00000000000E+000,  0.10000000000E+001
  0.95221000000E+005,  0.56781820720E+007,  0.16500000000E+002,  0.00000000000E+000,  0.10000000000E+001
  0.95231000000E+005,  0.58454469215E+007,  0.16500000000E+002,  0.00000000000E+000,  0.10000000000E+001
  0.95241000000E+005,  0.60124235167E+007,  0.16500000000E+002,  0.00000000000E+000,  0.10000000000E+001
  0.95251000000E+005,  0.61791128449E+007,  0.16500000000E+002,  0.00000000000E+000,  0.10000000000E+001
  0.95261000000E+005,  0.63455158881E+007,  0.16500000000E+002,  0.00000000000E+000,  0.10000000000E+001
  0.95271000000E+005,  0.65116336237E+007,  0.16500000000E+002,  0.00000000000E+000,  0.10000000000E+001
  0.95281000000E+005,  0.66774670237E+007,  0.16500000000E+002,  0.00000000000E+000,  0.10000000000E+001
  0.95291000000E+005,  0.68430170556E+007,  0.16500000000E+002,  0.00000000000E+000,  0.10000000000E+001
  0.95301000000E+005,  0.70082846816E+007,  0.16500000000E+002,  0.00000000000E+000,  0.10000000000E+001
  0.95311000000E+005,  0.71732708593E+007,  0.16500000000E+002,  0.00000000000E+000,  0.10000000000E+001
  0.95321000000E+005,  0.73379765412E+007,  0.16500000000E+002,  0.00000000000E+000,  0.10000000000E+001
  0.95331000000E+005,  0.75024026752E+007,  0.16500000000E+002,  0.00000000000E+000,  0.10000000000E+001
  0.95341000000E+005,  0.76665502043E+007,  0.16500000000E+002,  0.00000000000E+000,  0.10000000000E+001
  0.95351000000E+005,  0.78304200668E+007,  0.16500000000E+002,  0.00000000000E+000,  0.10000000000E+001
  0.95361000000E+005,  0.79940131962E+007,  0.16500000000E+002,  0.00000000000E+000,  0.10000000000E+001
  0.95371000000E+005,  0.81573305216E+007,  0.16500000000E+002,  0.00000000000E+000,  0.10000000000E+001
  0.95381000000E+005,  0.83203729670E+007,  0.16500000000E+002,  0.00000000000E+000,  0.10000000000E+001
  0.95391000000E+005,  0.84831414520E+007,  0.16500000000E+002,  0.00000000000E+000,  0.10000000000E+001
  0.95401000000E+005,  0.86456368918E+007,  0.16500000000E+002,  0.00000000000E+000,  0.10000000000E+001
  0.95411000000E+005,  0.88078601967E+007,  0.16500000000E+002,  0.00000000000E+000,  0.10000000000E+001
  0.95421000000E+005,  0.89698122727E+007,  0.16500000000E+002,  0.00000000000E+000,  0.10000000000E+001
  0.95431000000E+005,  0.91314940211E+007,  0.16500000000E+002,  0.00000000000E+000,  0.10000000000E+001
  0.95441000000E+005,  0.92929063389E+007,  0.16500000000E+002,  0.00000000000E+000,  0.10000000000E+001
  0.95451000000E+005,  0.94540501186E+007,  0.16500000000E+002,  0.00000000000E+000,  0.10000000000E+001
  0.95461000000E+005,  0.96149262483E+007,  0.16500000000E+002,  0.00000000000E+000,  0.10000000000E+001
  0.95471000000E+005,  0.97755356116E+007,  0.16500000000E+002,  0.00000000000E+000,  0.10000000000E+001
  0.95481000000E+005,  0.99358790880E+007,  0.16500000000E+002,  0.00000000000E+000,  0.10000000000E+001
  0.95491000000E+005,  0.10095957552E+008,  0.16500000000E+002,  0.00000000000E+000,  0.10000000000E+001
  0.95501000000E+005,  0.10255771876E+008,  0.16500000000E+002,  0.00000000000E+000,  0.10000000000E+001
  0.95511000000E+005,  0.10415322924E+008,  0.16500000000E+002,  0.00000000000E+000,  0.10000000000E+001
  0.95521000000E+005,  0.10574611559E+008,  0.16500000000E+002,  0.00000000000E+000,  0.10000000000E+001
  0.95531000000E+005,  0.10733638641E+008,  0.16500000000E+002,  0.00000000000E+000,  0.10000000000E+001
  0.95541000000E+005,  0.10892405021E+008,  0.16500000000E+002,  0.00000000000E+000,  0.10000000000E+001
  0.95551000000E+005,  0.11050911550E+008,  0.16500000000E+002,  0.00000000000E+000,  0.10000000000E+001
  0.95561000000E+005,  0.11209159073E+008,  0.16500000000E+002,  0.00000000000E+000,  0.10000000000E+001
  0.95571000000E+005,  0.11367148432E+008,  0.16500000000E+002,  0.00000000000E+000,  0.10000000000E+001
  0.95581000000E+005,  0.11524880464E+008,  0.16500000000E+002,  0.00000000000E+000,  0.10000000000E+001
  0.95591000000E+005,  0.11682356002E+008,  0.16500000000E+002,  0.00000000000E+000,  0.10000000000E+001
  0.95601000000E+005,  0.11839575875E+008,  0.16500000000E+002,  0.00000000000E+000,  0.10000000000E+001
  0.95611000000E+005,  0.11996540910E+008,  0.16500000000E+002,  0.00000000000E+000,  0.10000000000E+001
  0.95621000000E+005,  0.12153251926E+008,  0.16500000000E+002,  0.00000000000E+000,  0.10000000000E+001
  0.95631000000E+005,  0.12309709741E+008,  0.16500000000E+002,  0.00000000000E+000,  0.10000000000E+001
  0.95641000000E+005,  0.12465915169E+008,  0.16500000000E+002,  0.00000000000E+000,  0.10000000000E+001
  0.95651000000E+005,  0.12621869019E+008,  0.16500000000E+002,  0.00000000000E+000,  0.10000000000E+001
  0.95661000000E+005,  0.12777572097E+008,  0.16500000000E+002,  0.00000000000E+000,  0.10000000000E+001
  0.95671000000E+005,  0.12933025204E+008,  0.16500000000E+002,  0.00000000000E+000,  0.10000000000E+001
  0.95681000000E+005,  0.13088229138E+008,  0.16500000000E+002,  0.00000000000E+000,  0.10000000000E+001
  0.95691000000E+005,  0.13243184694E+008,  0.16500000000E+002,  0.00000000000E+000,  0.10000000000E+001
  0.95701000000E+005,  0.13397892661E+008,  0.16500000000E+002,  0.00000000000E+000,  0.10000000000E+001
  0.95711000000E+005,  0.13552353827E+008,  0.16500000000E+002,  0.00000000000E+000,  0.10000000000E+001
  0.95721000000E+005,  0.13706568973E+008,  0.16500000000E+002,  0.00000000000E+000,  0.10000000000E+001
  0.95731000000E+005,  0.13860538880E+008,  0.16500000000E+002,  0.00000000000E+000,  0.10000000000E+001
  0.95741000000E+005,  0.14014264323E+008,  0.16500000000E+002,  0.00000000000E+000,  0.10000000000E+001
  0.95751000000E+005,  0.14167746073E+008,  0.16500000000E+002,  0.00000000000E+000,  0.10000000000E+001
  0.95761000000E+005,  0.14320984899E+008,  0.16500000000E+002,  0.00000000000E+000,  0.10000000000E+001
  0.95771000000E+005,  0.14473981565E+008,  0.16500000000E+002,  0.00000000000E+000,  0.10000000000E+001
  0.95781000000E+005,  0.14626736832E+008,  0.16500000000E+002,  0.00000000000E+000,  0.10000000000E+001
  0.95791000000E+005,  0.14779251457E+008,  0.16500000000E+002,  0.00000000000E+000,  0.10000000000E+001
  0.95801000000E+005,  0.14931526195E+008,  0.16500000000E+002,  0.00000000000E+000,  0.10000000000E+001
  0.95811000000E+005,  0.15083561795E+008,  0.16500000000E+002,  0.00000000000E+000,  0.10000000000E+001
  0.95821000000E+005,  0.15235359005E+008,  0.16500000000E+002,  0.00000000000E+000,  0.10000000000E+001
  0.95831000000E+005,  0.15386918567E+008,  0.16500000000E+002,  0.00000000000E+000,  0.10000000000E+001
  0.95841000000E+005,  0.15538241222E+008,  0.16500000000E+002,  0.00000000000E+000,  0.10000000000E+001
  0.95851000000E+005,  0.15689327706E+008,  0.16500000000E+002,  0.00000000000E+000,  0.10000000000E+001
  0.95861000000E+005,  0.15840178752E+008,  0.16500000000E+002,  0.00000000000E+000,  0.10000000000E+001
  0.95871000000E+005,  0.15990795089E+008,  0.16500000000E+002,  0.00000000000E+000,  0.10000000000E+001
  0.95881000000E+005,  0.16141177444E+008,  0.16500000000E+002,  0.00000000000E+000,  0.10000000000E+001
  0.95891000000E+005,  0.16291326539E+008,  0.16500000000E+002,  0.00000000000E+000,  0.10000000000E+001
  0.95901000000E+005,  0.16441243095E+008,  0.16500000000E+002,  0.00000000000E+000,  0.10000000000E+001
  0.95911000000E+005,  0.16590927826E+008,  0.16500000000E+002,  0.00000000000E+000,  0.10000000000E+001
  0.95921000000E+005,  0.16740381447E+008,  0.16500000000E+002,  0.00000000000E+000,  0.10000000000E+001
  0.95931000000E+005,  0.16889604667E+008,  0.16500000000E+002,  0.00000000000E+000,  0.10000000000E+001
  0.95941000000E+005,  0.17038598192E+008,  0.16500000000E+002,  0.00000000000E+000,  0.10000000000E+001
  0.95951000000E+005,  0.17187362726E+008,  0.16500000000E+002,  0.00000000000E+000,  0.10000000000E+001
  0.95961000000E+005,  0.17335898968E+008,  0.16500000000E+002,  0.00000000000E+000,  0.10000000000E+001
  0.95971000000E+005,  0.17484207614E+008,  0.16500000000E+002,  0.00000000000E+000,  0.10000000000E+001
  0.95981000000E+005,  0.17632289360E+008,  0.16500000000E+002,  0.00000000000E+000,  0.10000000000E+001
  0.95991000000E+005,  0.17780144894E+008,  0.16500000000E+002,  0.00000000000E+000,  0.10000000000E+001
  0.96001000000E+005,  0.17927532906E+008,  0.16500000000E+002,  0.00000000000E+000,  0.10000000000E+001
  0.96011000000E+005,  0.18072522157E+008,  0.16500000000E+002,  0.00000000000E+000,  0.10000000000E+001
  0.96021000000E+005,  0.18217295083E+008,  0.16500000000E+002,  0.00000000000E+000,  0.10000000000E+001
  0.96031000000E+005,  0.18361851735E+008,  0.16500000000E+002,  0.00000000000E+000,  0.10000000000E+001
  0.96041000000E+005,  0.18506192753E+008,  0.16500000000E+002,  0.00000000000E+000,  0.10000000000E+001
  0.96051000000E+005,  0.18650318775E+008,  0.16500000000E+002,  0.00000000000E+000,  0.10000000000E+001
  0.96061000000E+005,  0.18794230438E+008,  0.16500000000E+002,  0.00000000000E+000,  0.10000000000E+001
  0.96071000000E+005,  0.18937928377E+008,  0.16500000000E+002,  0.00000000000E+000,  0.10000000000E+001
  0.96081000000E+005,  0.19081413224E+008,  0.16500000000E+002,  0.00000000000E+000,  0.10000000000E+001
  0.96091000000E+005,  0.19224685605E+008,  0.16500000000E+002,  0.00000000000E+000,  0.10000000000E+001
  0.96101000000E+005,  0.19367746148E+008,  0.16500000000E+002,  0.00000000000E+000,  0.10000000000E+001
  0.96111000000E+005,  0.19510595475E+008,  0.16500000000E+002,  0.00000000000E+000,  0.10000000000E+001
  0.96121000000E+005,  0.19653234207E+008,  0.16500000000E+002,  0.00000000000E+000,  0.10000000000E+001
  0.96131000000E+005,  0.19795662961E+008,  0.16500000000E+002,  0.00000000000E+000,  0.10000000000E+001
  0.96141000000E+005,  0.19937882352E+008,  0.16500000000E+002,  0.00000000000E+000,  0.10000000000E+001
  0.96151000000E+005,  0.20079892993E+008,  0.16500000000E+002,  0.00000000000E+000,  0.10000000000E+001
  0.96161000000E+005,  0.20221695492E+008,  0.16500000000E+002,  0.00000000000E+000,  0.10000000000E+001
  0.96171000000E+005,  0.20363290456E+008,  0.16500000000E+002,  0.00000000000E+000,  0.10000000000E+001
  0.96181000000E+005,  0.20504678491E+008,  0.16500000000E+002,  0.00000000000E+000,  0.10000000000E+001
  0.96191000000E+005,  0.20645860197E+008,  0.16500000000E+002,  0.00000000000E+000,  0.10000000000E+001
  0.96201000000E+005,  0.20786836174E+008,  0.16500000000E+002,  0.00000000000E+000,  0.10000000000E+001
  0.96211000000E+005,  0.20927607017E+008,  0.16500000000E+002,  0.00000000000E+000,  0.10000000000E+001
  0.96221000000E+005,  0.21068173321E+008,  0.16500000000E+002,  0.00000000000E+000,  0.10000000000E+001
  0.96231000000E+005,  0.21208535676E+008,  0.16500000000E+002,  0.00000000000E+000,  0.10000000000E+001
  0.96241000000E+005,  0.21348694672E+008,  0.16500000000E+002,  0.00000000000E+000,  0.10000000000E+001
  0.96251000000E+005,  0.21488650894E+008,  0.16500000000E+002,  0.00000000000E+000,  0.10000000000E+001
  0.96261000000E+005,  0.21628404927E+008,  0.16500000000E+002,  0.00000000000E+000,  0.10000000000E+001
  0.96271000000E+005,  0.21767957351E+008,  0.16500000000E+002,  0.00000000000E+000,  0.10000000000E+001
  0.96281000000E+005,  0.21907308745E+008,  0.16500000000E+002,  0.00000000000E+000,  0.10000000000E+001
  0.96291000000E+005,  0.22046459685E+008,  0.16500000000E+002,  0.00000000000E+000,  0.10000000000E+001
  0.96301000000E+005,  0.22185410745E+008,  0.16500000000E+002,  0.00000000000E+000,  0.10000000000E+001
  0.96311000000E+005,  0.22324162495E+008,  0.16500000000E+002,  0.00000000000E+000,  0.10000000000E+001
  0.96321000000E+005,  0.22462715505E+008,  0.16500000000E+002,  0.00000000000E+000,  0.10000000000E+001
  0.96331000000E+005,  0.22601070341E+008,  0.16500000000E+002,  0.00000000000E+000,  0.10000000000E+001
  0.96341000000E+005,  0.22739227567E+008,  0.16500000000E+002,  0.00000000000E+000,  0.10000000000E+001
  0.96351000000E+005,  0.22877187745E+008,  0.16500000000E+002,  0.00000000000E+000,  0.10000000000E+001
  0.96361000000E+005,  0.23014951433E+008,  0.16500000000E+002,  0.00000000000E+000,  0.10000000000E+001
  0.96371000000E+005,  0.23152519188E+008,  0.16500000000E+002,  0.00000000000E+000,  0.10000000000E+001
  0.96381000000E+005,  0.23289891565E+008,  0.16500000000E+002,  0.00000000000E+000,  0.10000000000E+001
  0.96391000000E+005,  0.23427069117E+008,  0.16500000000E+002,  0.00000000000E+000,  0.10000000000E+001
  0.96401000000E+005,  0.23564052392E+008,  0.16500000000E+002,  0.00000000000E+000,  0.10000000000E+001
  0.96411000000E+005,  0.23700841937E+008,  0.16500000000E+002,  0.00000000000E+000,  0.10000000000E+001
  0.96421000000E+005,  0.23837438300E+008,  0.16500000000E+002,  0.00000000000E+000,  0.10000000000E+001
  0.96431000000E+005,  0.23973842021E+008,  0.16500000000E+002,  0.00000000000E+000,  0.10000000000E+001
  0.96441000000E+005,  0.24110053642E+008,  0.16500000000E+002,  0.00000000000E+000,  0.10000000000E+001
  0.96451000000E+005,  0.24246073701E+008,  0.16500000000E+002,  0.00000000000E+000,  0.10000000000E+001
  0.96461000000E+005,  0.24381902733E+008,  0.16500000000E+002,  0.00000000000E+000,  0.10000000000E+001
  0.96471000000E+005,  0.24517541274E+008,  0.16500000000E+002,  0.00000000000E+000,  0.10000000000E+001
  0.96481000000E+005,  0.24652989854E+008,  0.16500000000E+002,  0.00000000000E+000,  0.10000000000E+001
  0.96491000000E+005,  0.24788249002E+008,  0.16500000000E+002,  0.00000000000E+000,  0.10000000000E+001
  0.96501000000E+005,  0.24923319247E+008,  0.16500000000E+002,  0.00000000000E+000,  0.10000000000E+001
  0.96511000000E+005,  0.25058201112E+008,  0.16500000000E+002,  0.00000000000E+000,  0.10000000000E+001
  0.96521000000E+005,  0.25192895121E+008,  0.16500000000E+002,  0.00000000000E+000,  0.10000000000E+001
  0.96531000000E+005,  0.25327401794E+008,  0.16500000000E+002,  0.00000000000E+000,  0.10000000000E+001
  0.96541000000E+005,  0.25461721649E+008,  0.16500000000E+002,  0.00000000000E+000,  0.10000000000E+001
  0.96551000000E+005,  0.25595855204E+008,  0.16500000000E+002,  0.00000000000E+000,  0.10000000000E+001
  0.96561000000E+005,  0.25729802972E+008,  0.16500000000E+002,  0.00000000000E+000,  0.10000000000E+001
  0.96571000000E+005,  0.25863565465E+008,  0.16500000000E+002,  0.00000000000E+000,  0.10000000000E+001
  0.96581000000E+005,  0.25997143193E+008,  0.16500000000E+002,  0.00000000000E+000,  0.10000000000E+001
  0.96591000000E+005,  0.26130536665E+008,  0.16500000000E+002,  0.00000000000E+000,  0.10000000000E+001
  0.96601000000E+005,  0.26263746385E+008,  0.16500000000E+002,  0.00000000000E+000,  0.10000000000E+001
  0.96611000000E+005,  0.26396772857E+008,  0.16500000000E+002,  0.00000000000E+000,  0.10000000000E+001
  0.96621000000E+005,  0.26529616584E+008,  0.16500000000E+002,  0.00000000000E+000,  0.10000000000E+001
  0.96631000000E+005,  0.26662278065E+008,  0.16500000000E+002,  0.00000000000E+000,  0.10000000000E+001
  0.96641000000E+005,  0.26794757797E+008,  0.16500000000E+002,  0.00000000000E+000,  0.10000000000E+001
  0.96651000000E+005,  0.26927056276E+008,  0.16500000000E+002,  0.00000000000E+000,  0.10000000000E+001
  0.96661000000E+005,  0.27059173995E+008,  0.16500000000E+002,  0.00000000000E+000,  0.10000000000E+001
  0.96671000000E+005,  0.27191111445E+008,  0.16500000000E+002,  0.00000000000E+000,  0.10000000000E+001
  0.96681000000E+005,  0.27322869118E+008,  0.16500000000E+002,  0.00000000000E+000,  0.10000000000E+001
  0.96691000000E+005,  0.27454447499E+008,  0.16500000000E+002,  0.00000000000E+000,  0.10000000000E+001
  0.96701000000E+005,  0.27585847074E+008,  0.16500000000E+002,  0.00000000000E+000,  0.10000000000E+001
  0.96711000000E+005,  0.27717068327E+008,  0.16500000000E+002,  0.00000000000E+000,  0.10000000000E+001
  0.96721000000E+005,  0.27848111740E+008,  0.16500000000E+002,  0.00000000000E+000,  0.10000000000E+001
  0.96731000000E+005,  0.27978977792E+008,  0.16500000000E+002,  0.00000000000E+000,  0.10000000000E+001
