"           TIME(S)","              PRES","              TEMP","             SAT_G","             SAT_L"
  0.94881000000E+005,  0.46016413506E+006,  0.16500000000E+002,  0.00000000000E+000,  0.10000000000E+001
  0.94885000000E+005,  0.46016413506E+006,  0.16500000000E+002,  0.00000000000E+000,  0.10000000000E+001
  0.94890000000E+005,  0.46016413505E+006,  0.16500000000E+002,  0.00000000000E+000,  0.10000000000E+001
  0.94895000000E+005,  0.46016413505E+006,  0.16500000000E+002,  0.00000000000E+000,  0.10000000000E+001
  0.94900000000E+005,  0.46016413504E+006,  0.16500000000E+002,  0.00000000000E+000,  0.10000000000E+001
  0.94905000000E+005,  0.46016413503E+006,  0.16500000000E+002,  0.00000000000E+000,  0.10000000000E+001
  0.94911000000E+005,  0.46016413501E+006,  0.16500000000E+002,  0.00000000000E+000,  0.10000000000E+001
  0.94921000000E+005,  0.46016413498E+006,  0.16500000000E+002,  0.00000000000E+000,  0.10000000000E+001
  0.94931000000E+005,  0.46016413495E+006,  0.16500000000E+002,  0.00000000000E+000,  0.10000000000E+001
  0.94941000000E+005,  0.46016413491E+006,  0.16500000000E+002,  0.00000000000E+000,  0.10000000000E+001
  0.94951000000E+005,  0.46016413486E+006,  0.16500000000E+002,  0.00000000000E+000,  0.10000000000E+001
  0.94961000000E+005,  0.46016413482E+006,  0.16500000000E+002,  0.00000000000E+000,  0.10000000000E+001
  0.94971000000E+005,  0.46016413477E+006,  0.16500000000E+002,  0.00000000000E+000,  0.10000000000E+001
  0.94981000000E+005,  0.46016413472E+006,  0.16500000000E+002,  0.00000000000E+000,  0.10000000000E+001
  0.94991000000E+005,  0.46016413466E+006,  0.16500000000E+002,  0.00000000000E+000,  0.10000000000E+001
  0.95001000000E+005,  0.46016413461E+006,  0.16500000000E+002,  0.00000000000E+000,  0.10000000000E+001
  0.95011000000E+005,  0.46016413455E+006,  0.16500000000E+002,  0.00000000000E+000,  0.10000000000E+001
  0.95021000000E+005,  0.46016413450E+006,  0.16500000000E+002,  0.00000000000E+000,  0.10000000000E+001
  0.95031000000E+005,  0.46016413444E+006,  0.16500000000E+002,  0.00000000000E+000,  0.10000000000E+001
  0.95041000000E+005,  0.46016413439E+006,  0.16500000000E+002,  0.00000000000E+000,  0.10000000000E+001
  0.95051000000E+005,  0.46016413433E+006,  0.16500000000E+002,  0.00000000000E+000,  0.10000000000E+001
  0.95061000000E+005,  0.46016413427E+006,  0.16500000000E+002,  0.00000000000E+000,  0.10000000000E+001
  0.95071000000E+005,  0.46016413421E+006,  0.16500000000E+002,  0.00000000000E+000,  0.10000000000E+001
  0.95081000000E+005,  0.46016413416E+006,  0.16500000000E+002,  0.00000000000E+000,  0.10000000000E+001
  0.95091000000E+005,  0.46016413410E+006,  0.16500000000E+002,  0.00000000000E+000,  0.10000000000E+001
  0.95101000000E+005,  0.46016413404E+006,  0.16500000000E+002,  0.00000000000E+000,  0.10000000000E+001
  0.95111000000E+005,  0.46016413399E+006,  0.16500000000E+002,  0.00000000000E+000,  0.10000000000E+001
  0.95121000000E+005,  0.46016413393E+006,  0.16500000000E+002,  0.00000000000E+000,  0.10000000000E+001
  0.95122250000E+005,  0.46016413392E+006,  0.16500000000E+002,  0.00000000000E+000,  0.10000000000E+001
  0.95128500000E+005,  0.46016413389E+006,  0.16500000000E+002,  0.00000000000E+000,  0.10000000000E+001
  0.95129750000E+005,  0.46016413388E+006,  0.16500000000E+002,  0.00000000000E+000,  0.10000000000E+001
  0.95136000000E+005,  0.46016413385E+006,  0.16500000000E+002,  0.00000000000E+000,  0.10000000000E+001
  0.95137250000E+005,  0.46016413384E+006,  0.16500000000E+002,  0.00000000000E+000,  0.10000000000E+001
  0.95143500000E+005,  0.46016413380E+006,  0.16500000000E+002,  0.00000000000E+000,  0.10000000000E+001
  0.95144437500E+005,  0.46016413380E+006,  0.16500000000E+002,  0.00000000000E+000,  0.10000000000E+001
  0.95149125000E+005,  0.46016413377E+006,  0.16500000000E+002,  0.00000000000E+000,  0.10000000000E+001
  0.95151000000E+005,  0.46016413376E+006,  0.16500000000E+002,  0.00000000000E+000,  0.10000000000E+001
  0.95161000000E+005,  0.46016413371E+006,  0.16500000000E+002,  0.00000000000E+000,  0.10000000000E+001
  0.95171000000E+005,  0.46016413365E+006,  0.16500000000E+002,  0.00000000000E+000,  0.10000000000E+001
  0.95181000000E+005,  0.46016413360E+006,  0.16500000000E+002,  0.00000000000E+000,  0.10000000000E+001
  0.95191000000E+005,  0.46016413354E+006,  0.16500000000E+002,  0.00000000000E+000,  0.10000000000E+001
  0.95192250000E+005,  0.46016413354E+006,  0.16500000000E+002,  0.00000000000E+000,  0.10000000000E+001
  0.95193031250E+005,  0.46016413353E+006,  0.16500000000E+002,  0.00000000000E+000,  0.10000000000E+001
  0.95196937500E+005,  0.46016413351E+006,  0.16500000000E+002,  0.00000000000E+000,  0.10000000000E+001
  0.95198187500E+005,  0.46016413351E+006,  0.16500000000E+002,  0.00000000000E+000,  0.10000000000E+001
  0.95204437500E+005,  0.46016413347E+006,  0.16500000000E+002,  0.00000000000E+000,  0.10000000000E+001
  0.95214437500E+005,  0.46016413342E+006,  0.16500000000E+002,  0.00000000000E+000,  0.10000000000E+001
  0.95215687500E+005,  0.46016413341E+006,  0.16500000000E+002,  0.00000000000E+000,  0.10000000000E+001
  0.95221937500E+005,  0.46016413338E+006,  0.16500000000E+002,  0.00000000000E+000,  0.10000000000E+001
  0.95231937500E+005,  0.46016413333E+006,  0.16500000000E+002,  0.00000000000E+000,  0.10000000000E+001
  0.95233187500E+005,  0.46016413332E+006,  0.16500000000E+002,  0.00000000000E+000,  0.10000000000E+001
  0.95239437500E+005,  0.46016413329E+006,  0.16500000000E+002,  0.00000000000E+000,  0.10000000000E+001
  0.95240687500E+005,  0.46016413328E+006,  0.16500000000E+002,  0.00000000000E+000,  0.10000000000E+001
  0.95241468750E+005,  0.46016413328E+006,  0.16500000000E+002,  0.00000000000E+000,  0.10000000000E+001
  0.95245375000E+005,  0.46016413326E+006,  0.16500000000E+002,  0.00000000000E+000,  0.10000000000E+001
  0.95255375000E+005,  0.46016413321E+006,  0.16500000000E+002,  0.00000000000E+000,  0.10000000000E+001
  0.95256625000E+005,  0.46016413320E+006,  0.16500000000E+002,  0.00000000000E+000,  0.10000000000E+001
  0.95262875000E+005,  0.46016413317E+006,  0.16500000000E+002,  0.00000000000E+000,  0.10000000000E+001
  0.95272875000E+005,  0.46016413312E+006,  0.16500000000E+002,  0.00000000000E+000,  0.10000000000E+001
  0.95274125000E+005,  0.46016413311E+006,  0.16500000000E+002,  0.00000000000E+000,  0.10000000000E+001
  0.95280375000E+005,  0.46016413308E+006,  0.16500000000E+002,  0.00000000000E+000,  0.10000000000E+001
  0.95290375000E+005,  0.46016413303E+006,  0.16500000000E+002,  0.00000000000E+000,  0.10000000000E+001
  0.95291625000E+005,  0.46016413303E+006,  0.16500000000E+002,  0.00000000000E+000,  0.10000000000E+001
  0.95297875000E+005,  0.46016413300E+006,  0.16500000000E+002,  0.00000000000E+000,  0.10000000000E+001
  0.95299125000E+005,  0.46016413299E+006,  0.16500000000E+002,  0.00000000000E+000,  0.10000000000E+001
  0.95305375000E+005,  0.46016413296E+006,  0.16500000000E+002,  0.00000000000E+000,  0.10000000000E+001
  0.95306625000E+005,  0.46016413295E+006,  0.16500000000E+002,  0.00000000000E+000,  0.10000000000E+001
  0.95307406250E+005,  0.46016413295E+006,  0.16500000000E+002,  0.00000000000E+000,  0.10000000000E+001
  0.95307894531E+005,  0.46016413295E+006,  0.16500000000E+002,  0.00000000000E+000,  0.10000000000E+001
  0.95310335938E+005,  0.46016413294E+006,  0.16500000000E+002,  0.00000000000E+000,  0.10000000000E+001
  0.95311585938E+005,  0.46016413293E+006,  0.16500000000E+002,  0.00000000000E+000,  0.10000000000E+001
  0.95312367188E+005,  0.46016413293E+006,  0.16500000000E+002,  0.00000000000E+000,  0.10000000000E+001
  0.95316273438E+005,  0.46016413291E+006,  0.16500000000E+002,  0.00000000000E+000,  0.10000000000E+001
  0.95317523438E+005,  0.46016413290E+006,  0.16500000000E+002,  0.00000000000E+000,  0.10000000000E+001
  0.95318304688E+005,  0.46016413290E+006,  0.16500000000E+002,  0.00000000000E+000,  0.10000000000E+001
  0.95318792969E+005,  0.46016413290E+006,  0.16500000000E+002,  0.00000000000E+000,  0.10000000000E+001
  0.95321234375E+005,  0.46016413288E+006,  0.16500000000E+002,  0.00000000000E+000,  0.10000000000E+001
  0.95322484375E+005,  0.46016413288E+006,  0.16500000000E+002,  0.00000000000E+000,  0.10000000000E+001
  0.95323265625E+005,  0.46016413288E+006,  0.16500000000E+002,  0.00000000000E+000,  0.10000000000E+001
  0.95327171875E+005,  0.46016413286E+006,  0.16500000000E+002,  0.00000000000E+000,  0.10000000000E+001
  0.95337171875E+005,  0.46016413281E+006,  0.16500000000E+002,  0.00000000000E+000,  0.10000000000E+001
  0.95338421875E+005,  0.46016413280E+006,  0.16500000000E+002,  0.00000000000E+000,  0.10000000000E+001
  0.95344671875E+005,  0.46016413277E+006,  0.16500000000E+002,  0.00000000000E+000,  0.10000000000E+001
  0.95345921875E+005,  0.46016413277E+006,  0.16500000000E+002,  0.00000000000E+000,  0.10000000000E+001
  0.95346703125E+005,  0.46016413277E+006,  0.16500000000E+002,  0.00000000000E+000,  0.10000000000E+001
  0.95347191406E+005,  0.46016413276E+006,  0.16500000000E+002,  0.00000000000E+000,  0.10000000000E+001
  0.95349632812E+005,  0.46016413275E+006,  0.16500000000E+002,  0.00000000000E+000,  0.10000000000E+001
  0.95350882812E+005,  0.46016413275E+006,  0.16500000000E+002,  0.00000000000E+000,  0.10000000000E+001
  0.95351664062E+005,  0.46016413274E+006,  0.16500000000E+002,  0.00000000000E+000,  0.10000000000E+001
  0.95355570312E+005,  0.46016413272E+006,  0.16500000000E+002,  0.00000000000E+000,  0.10000000000E+001
  0.95356820312E+005,  0.46016413272E+006,  0.16500000000E+002,  0.00000000000E+000,  0.10000000000E+001
  0.95363070312E+005,  0.46016413269E+006,  0.16500000000E+002,  0.00000000000E+000,  0.10000000000E+001
  0.95364320312E+005,  0.46016413268E+006,  0.16500000000E+002,  0.00000000000E+000,  0.10000000000E+001
  0.95365101562E+005,  0.46016413268E+006,  0.16500000000E+002,  0.00000000000E+000,  0.10000000000E+001
  0.95365589844E+005,  0.46016413268E+006,  0.16500000000E+002,  0.00000000000E+000,  0.10000000000E+001
  0.95368031250E+005,  0.46016413267E+006,  0.16500000000E+002,  0.00000000000E+000,  0.10000000000E+001
  0.95369281250E+005,  0.46016413266E+006,  0.16500000000E+002,  0.00000000000E+000,  0.10000000000E+001
  0.95375531250E+005,  0.46016413263E+006,  0.16500000000E+002,  0.00000000000E+000,  0.10000000000E+001
  0.95376781250E+005,  0.46016413263E+006,  0.16500000000E+002,  0.00000000000E+000,  0.10000000000E+001
  0.95377562500E+005,  0.46016413263E+006,  0.16500000000E+002,  0.00000000000E+000,  0.10000000000E+001
  0.95381468750E+005,  0.46016413261E+006,  0.16500000000E+002,  0.00000000000E+000,  0.10000000000E+001
  0.95382660156E+005,  0.46016413260E+006,  0.16500000000E+002,  0.00000000000E+000,  0.10000000000E+001
  0.95383404785E+005,  0.46016413260E+006,  0.16500000000E+002,  0.00000000000E+000,  0.10000000000E+001
  0.95383870178E+005,  0.46016413260E+006,  0.16500000000E+002,  0.00000000000E+000,  0.10000000000E+001
  0.95386197144E+005,  0.46016413259E+006,  0.16500000000E+002,  0.00000000000E+000,  0.10000000000E+001
  0.95391000000E+005,  0.46016413257E+006,  0.16500000000E+002,  0.00000000000E+000,  0.10000000000E+001
  0.95401000000E+005,  0.46016413252E+006,  0.16500000000E+002,  0.00000000000E+000,  0.10000000000E+001
  0.95411000000E+005,  0.46016413248E+006,  0.16500000000E+002,  0.00000000000E+000,  0.10000000000E+001
  0.95412250000E+005,  0.46016413247E+006,  0.16500000000E+002,  0.00000000000E+000,  0.10000000000E+001
  0.95418500000E+005,  0.46016413245E+006,  0.16500000000E+002,  0.00000000000E+000,  0.10000000000E+001
  0.95419750000E+005,  0.46016413244E+006,  0.16500000000E+002,  0.00000000000E+000,  0.10000000000E+001
  0.95426000000E+005,  0.46016413241E+006,  0.16500000000E+002,  0.00000000000E+000,  0.10000000000E+001
  0.95427250000E+005,  0.46016413241E+006,  0.16500000000E+002,  0.00000000000E+000,  0.10000000000E+001
  0.95428031250E+005,  0.46016413241E+006,  0.16500000000E+002,  0.00000000000E+000,  0.10000000000E+001
  0.95431937500E+005,  0.46016413239E+006,  0.16500000000E+002,  0.00000000000E+000,  0.10000000000E+001
  0.95433187500E+005,  0.46016413238E+006,  0.16500000000E+002,  0.00000000000E+000,  0.10000000000E+001
  0.95439437500E+005,  0.46016413236E+006,  0.16500000000E+002,  0.00000000000E+000,  0.10000000000E+001
  0.95449437500E+005,  0.46016413232E+006,  0.16500000000E+002,  0.00000000000E+000,  0.10000000000E+001
  0.95450687500E+005,  0.46016413231E+006,  0.16500000000E+002,  0.00000000000E+000,  0.10000000000E+001
  0.95451468750E+005,  0.46016413231E+006,  0.16500000000E+002,  0.00000000000E+000,  0.10000000000E+001
  0.95451957031E+005,  0.46016413231E+006,  0.16500000000E+002,  0.00000000000E+000,  0.10000000000E+001
  0.95454398438E+005,  0.46016413230E+006,  0.16500000000E+002,  0.00000000000E+000,  0.10000000000E+001
  0.95455648438E+005,  0.46016413229E+006,  0.16500000000E+002,  0.00000000000E+000,  0.10000000000E+001
  0.95461898438E+005,  0.46016413227E+006,  0.16500000000E+002,  0.00000000000E+000,  0.10000000000E+001
  0.95471898438E+005,  0.46016413223E+006,  0.16500000000E+002,  0.00000000000E+000,  0.10000000000E+001
  0.95473148438E+005,  0.46016413222E+006,  0.16500000000E+002,  0.00000000000E+000,  0.10000000000E+001
  0.95479398438E+005,  0.46016413220E+006,  0.16500000000E+002,  0.00000000000E+000,  0.10000000000E+001
  0.95480648438E+005,  0.46016413219E+006,  0.16500000000E+002,  0.00000000000E+000,  0.10000000000E+001
  0.95481429688E+005,  0.46016413219E+006,  0.16500000000E+002,  0.00000000000E+000,  0.10000000000E+001
  0.95485335938E+005,  0.46016413217E+006,  0.16500000000E+002,  0.00000000000E+000,  0.10000000000E+001
  0.95486585938E+005,  0.46016413217E+006,  0.16500000000E+002,  0.00000000000E+000,  0.10000000000E+001
  0.95487367188E+005,  0.46016413216E+006,  0.16500000000E+002,  0.00000000000E+000,  0.10000000000E+001
  0.95487855469E+005,  0.46016413216E+006,  0.16500000000E+002,  0.00000000000E+000,  0.10000000000E+001
  0.95490296875E+005,  0.46016413215E+006,  0.16500000000E+002,  0.00000000000E+000,  0.10000000000E+001
  0.95491546875E+005,  0.46016413215E+006,  0.16500000000E+002,  0.00000000000E+000,  0.10000000000E+001
  0.95497796875E+005,  0.46016413212E+006,  0.16500000000E+002,  0.00000000000E+000,  0.10000000000E+001
  0.95499046875E+005,  0.46016413212E+006,  0.16500000000E+002,  0.00000000000E+000,  0.10000000000E+001
  0.95499828125E+005,  0.46016413212E+006,  0.16500000000E+002,  0.00000000000E+000,  0.10000000000E+001
  0.95500316406E+005,  0.46016413211E+006,  0.16500000000E+002,  0.00000000000E+000,  0.10000000000E+001
  0.95502757812E+005,  0.46016413210E+006,  0.16500000000E+002,  0.00000000000E+000,  0.10000000000E+001
  0.95504007812E+005,  0.46016413210E+006,  0.16500000000E+002,  0.00000000000E+000,  0.10000000000E+001
  0.95504789062E+005,  0.46016413210E+006,  0.16500000000E+002,  0.00000000000E+000,  0.10000000000E+001
  0.95505277344E+005,  0.46016413209E+006,  0.16500000000E+002,  0.00000000000E+000,  0.10000000000E+001
  0.95507718750E+005,  0.46016413209E+006,  0.16500000000E+002,  0.00000000000E+000,  0.10000000000E+001
  0.95508968750E+005,  0.46016413208E+006,  0.16500000000E+002,  0.00000000000E+000,  0.10000000000E+001
  0.95509750000E+005,  0.46016413208E+006,  0.16500000000E+002,  0.00000000000E+000,  0.10000000000E+001
  0.95513656250E+005,  0.46016413206E+006,  0.16500000000E+002,  0.00000000000E+000,  0.10000000000E+001
  0.95514906250E+005,  0.46016413206E+006,  0.16500000000E+002,  0.00000000000E+000,  0.10000000000E+001
  0.95515687500E+005,  0.46016413206E+006,  0.16500000000E+002,  0.00000000000E+000,  0.10000000000E+001
  0.95516175781E+005,  0.46016413205E+006,  0.16500000000E+002,  0.00000000000E+000,  0.10000000000E+001
  0.95518617188E+005,  0.46016413204E+006,  0.16500000000E+002,  0.00000000000E+000,  0.10000000000E+001
  0.95528617188E+005,  0.46016413201E+006,  0.16500000000E+002,  0.00000000000E+000,  0.10000000000E+001
  0.95529867188E+005,  0.46016413200E+006,  0.16500000000E+002,  0.00000000000E+000,  0.10000000000E+001
  0.95536117188E+005,  0.46016413198E+006,  0.16500000000E+002,  0.00000000000E+000,  0.10000000000E+001
  0.95546117188E+005,  0.46016413194E+006,  0.16500000000E+002,  0.00000000000E+000,  0.10000000000E+001
  0.95547367188E+005,  0.46016413194E+006,  0.16500000000E+002,  0.00000000000E+000,  0.10000000000E+001
  0.95548148438E+005,  0.46016413193E+006,  0.16500000000E+002,  0.00000000000E+000,  0.10000000000E+001
  0.95548636719E+005,  0.46016413193E+006,  0.16500000000E+002,  0.00000000000E+000,  0.10000000000E+001
  0.95551078125E+005,  0.46016413192E+006,  0.16500000000E+002,  0.00000000000E+000,  0.10000000000E+001
  0.95552328125E+005,  0.46016413192E+006,  0.16500000000E+002,  0.00000000000E+000,  0.10000000000E+001
  0.95558578125E+005,  0.46016413190E+006,  0.16500000000E+002,  0.00000000000E+000,  0.10000000000E+001
  0.95559828125E+005,  0.46016413189E+006,  0.16500000000E+002,  0.00000000000E+000,  0.10000000000E+001
  0.95560609375E+005,  0.46016413189E+006,  0.16500000000E+002,  0.00000000000E+000,  0.10000000000E+001
  0.95564515625E+005,  0.46016413188E+006,  0.16500000000E+002,  0.00000000000E+000,  0.10000000000E+001
  0.95565765625E+005,  0.46016413187E+006,  0.16500000000E+002,  0.00000000000E+000,  0.10000000000E+001
  0.95566546875E+005,  0.46016413187E+006,  0.16500000000E+002,  0.00000000000E+000,  0.10000000000E+001
  0.95570453125E+005,  0.46016413185E+006,  0.16500000000E+002,  0.00000000000E+000,  0.10000000000E+001
  0.95571703125E+005,  0.46016413185E+006,  0.16500000000E+002,  0.00000000000E+000,  0.10000000000E+001
  0.95577953125E+005,  0.46016413183E+006,  0.16500000000E+002,  0.00000000000E+000,  0.10000000000E+001
  0.95587953125E+005,  0.46016413179E+006,  0.16500000000E+002,  0.00000000000E+000,  0.10000000000E+001
  0.95589203125E+005,  0.46016413179E+006,  0.16500000000E+002,  0.00000000000E+000,  0.10000000000E+001
  0.95589984375E+005,  0.46016413179E+006,  0.16500000000E+002,  0.00000000000E+000,  0.10000000000E+001
  0.95593890625E+005,  0.46016413177E+006,  0.16500000000E+002,  0.00000000000E+000,  0.10000000000E+001
  0.95595140625E+005,  0.46016413177E+006,  0.16500000000E+002,  0.00000000000E+000,  0.10000000000E+001
  0.95595921875E+005,  0.46016413177E+006,  0.16500000000E+002,  0.00000000000E+000,  0.10000000000E+001
  0.95599828125E+005,  0.46016413175E+006,  0.16500000000E+002,  0.00000000000E+000,  0.10000000000E+001
  0.95601078125E+005,  0.46016413175E+006,  0.16500000000E+002,  0.00000000000E+000,  0.10000000000E+001
  0.95601859375E+005,  0.46016413175E+006,  0.16500000000E+002,  0.00000000000E+000,  0.10000000000E+001
  0.95605765625E+005,  0.46016413173E+006,  0.16500000000E+002,  0.00000000000E+000,  0.10000000000E+001
  0.95607015625E+005,  0.46016413173E+006,  0.16500000000E+002,  0.00000000000E+000,  0.10000000000E+001
  0.95607796875E+005,  0.46016413173E+006,  0.16500000000E+002,  0.00000000000E+000,  0.10000000000E+001
  0.95611703125E+005,  0.46016413171E+006,  0.16500000000E+002,  0.00000000000E+000,  0.10000000000E+001
  0.95612953125E+005,  0.46016413171E+006,  0.16500000000E+002,  0.00000000000E+000,  0.10000000000E+001
  0.95619203125E+005,  0.46016413169E+006,  0.16500000000E+002,  0.00000000000E+000,  0.10000000000E+001
  0.95620453125E+005,  0.46016413168E+006,  0.16500000000E+002,  0.00000000000E+000,  0.10000000000E+001
  0.95626703125E+005,  0.46016413166E+006,  0.16500000000E+002,  0.00000000000E+000,  0.10000000000E+001
  0.95631000000E+005,  0.46016413165E+006,  0.16500000000E+002,  0.00000000000E+000,  0.10000000000E+001
  0.95632250000E+005,  0.46016413165E+006,  0.16500000000E+002,  0.00000000000E+000,  0.10000000000E+001
  0.95638500000E+005,  0.46016413163E+006,  0.16500000000E+002,  0.00000000000E+000,  0.10000000000E+001
