"           TIME(S)","              PRES","              TEMP","             SAT_G","             SAT_L"
  0.94881000000E+005,  0.49936720757E+006,  0.16500000000E+002,  0.00000000000E+000,  0.10000000000E+001
  0.94885000000E+005,  0.51809784581E+006,  0.16500000000E+002,  0.00000000000E+000,  0.10000000000E+001
  0.94890000000E+005,  0.54532184879E+006,  0.16500000000E+002,  0.00000000000E+000,  0.10000000000E+001
  0.94895000000E+005,  0.57254494259E+006,  0.16500000000E+002,  0.00000000000E+000,  0.10000000000E+001
  0.94900000000E+005,  0.59976712617E+006,  0.16500000000E+002,  0.00000000000E+000,  0.10000000000E+001
  0.94905000000E+005,  0.62698839962E+006,  0.16500000000E+002,  0.00000000000E+000,  0.10000000000E+001
  0.94911000000E+005,  0.65965270326E+006,  0.16500000000E+002,  0.00000000000E+000,  0.10000000000E+001
  0.94921000000E+005,  0.72222036791E+006,  0.16500000000E+002,  0.00000000000E+000,  0.10000000000E+001
  0.94931000000E+005,  0.81355998628E+006,  0.16500000000E+002,  0.00000000000E+000,  0.10000000000E+001
  0.94941000000E+005,  0.10469482632E+007,  0.16500000000E+002,  0.00000000000E+000,  0.10000000000E+001
  0.94951000000E+005,  0.13120931601E+007,  0.16500000000E+002,  0.00000000000E+000,  0.10000000000E+001
  0.94961000000E+005,  0.15827668619E+007,  0.16500000000E+002,  0.00000000000E+000,  0.10000000000E+001
  0.94971000000E+005,  0.18493862523E+007,  0.16500000000E+002,  0.00000000000E+000,  0.10000000000E+001
  0.94981000000E+005,  0.21159409799E+007,  0.16500000000E+002,  0.00000000000E+000,  0.10000000000E+001
  0.94991000000E+005,  0.23824310589E+007,  0.16500000000E+002,  0.00000000000E+000,  0.10000000000E+001
  0.95001000000E+005,  0.26545797238E+007,  0.16500000000E+002,  0.00000000000E+000,  0.10000000000E+001
  0.95011000000E+005,  0.29252558819E+007,  0.16500000000E+002,  0.00000000000E+000,  0.10000000000E+001
  0.95021000000E+005,  0.31960779185E+007,  0.16500000000E+002,  0.00000000000E+000,  0.10000000000E+001
  0.95031000000E+005,  0.34644442620E+007,  0.16500000000E+002,  0.00000000000E+000,  0.10000000000E+001
  0.95041000000E+005,  0.37306017350E+007,  0.16500000000E+002,  0.00000000000E+000,  0.10000000000E+001
  0.95051000000E+005,  0.39966946381E+007,  0.16500000000E+002,  0.00000000000E+000,  0.10000000000E+001
  0.95061000000E+005,  0.42627229909E+007,  0.16500000000E+002,  0.00000000000E+000,  0.10000000000E+001
  0.95071000000E+005,  0.45286868067E+007,  0.16500000000E+002,  0.00000000000E+000,  0.10000000000E+001
  0.95081000000E+005,  0.47945860992E+007,  0.16500000000E+002,  0.00000000000E+000,  0.10000000000E+001
  0.95091000000E+005,  0.50604208945E+007,  0.16500000000E+002,  0.00000000000E+000,  0.10000000000E+001
  0.95101000000E+005,  0.53261911813E+007,  0.16500000000E+002,  0.00000000000E+000,  0.10000000000E+001
  0.95111000000E+005,  0.55918969855E+007,  0.16500000000E+002,  0.00000000000E+000,  0.10000000000E+001
  0.95121000000E+005,  0.58575383208E+007,  0.16500000000E+002,  0.00000000000E+000,  0.10000000000E+001
  0.95131000000E+005,  0.61231152008E+007,  0.16500000000E+002,  0.00000000000E+000,  0.10000000000E+001
  0.95141000000E+005,  0.63886276390E+007,  0.16500000000E+002,  0.00000000000E+000,  0.10000000000E+001
  0.95151000000E+005,  0.66540755943E+007,  0.16500000000E+002,  0.00000000000E+000,  0.10000000000E+001
  0.95161000000E+005,  0.69194591899E+007,  0.16500000000E+002,  0.00000000000E+000,  0.10000000000E+001
  0.95171000000E+005,  0.71847783841E+007,  0.16500000000E+002,  0.00000000000E+000,  0.10000000000E+001
  0.95181000000E+005,  0.74500331909E+007,  0.16500000000E+002,  0.00000000000E+000,  0.10000000000E+001
  0.95191000000E+005,  0.77152236003E+007,  0.16500000000E+002,  0.00000000000E+000,  0.10000000000E+001
  0.95201000000E+005,  0.79803496730E+007,  0.16500000000E+002,  0.00000000000E+000,  0.10000000000E+001
  0.95211000000E+005,  0.82454113941E+007,  0.16500000000E+002,  0.00000000000E+000,  0.10000000000E+001
  0.95221000000E+005,  0.85104087871E+007,  0.16500000000E+002,  0.00000000000E+000,  0.10000000000E+001
  0.95231000000E+005,  0.87753418606E+007,  0.16500000000E+002,  0.00000000000E+000,  0.10000000000E+001
  0.95241000000E+005,  0.90402106282E+007,  0.16500000000E+002,  0.00000000000E+000,  0.10000000000E+001
  0.95251000000E+005,  0.93050151034E+007,  0.16500000000E+002,  0.00000000000E+000,  0.10000000000E+001
  0.95261000000E+005,  0.95697552997E+007,  0.16500000000E+002,  0.00000000000E+000,  0.10000000000E+001
  0.95271000000E+005,  0.98344312309E+007,  0.16500000000E+002,  0.00000000000E+000,  0.10000000000E+001
  0.95281000000E+005,  0.10099042910E+008,  0.16500000000E+002,  0.00000000000E+000,  0.10000000000E+001
  0.95291000000E+005,  0.10363590352E+008,  0.16500000000E+002,  0.00000000000E+000,  0.10000000000E+001
  0.95301000000E+005,  0.10628073569E+008,  0.16500000000E+002,  0.00000000000E+000,  0.10000000000E+001
  0.95311000000E+005,  0.10892492575E+008,  0.16500000000E+002,  0.00000000000E+000,  0.10000000000E+001
  0.95321000000E+005,  0.11156847383E+008,  0.16500000000E+002,  0.00000000000E+000,  0.10000000000E+001
  0.95331000000E+005,  0.11421138008E+008,  0.16500000000E+002,  0.00000000000E+000,  0.10000000000E+001
  0.95341000000E+005,  0.11685364462E+008,  0.16500000000E+002,  0.00000000000E+000,  0.10000000000E+001
  0.95351000000E+005,  0.11949526760E+008,  0.16500000000E+002,  0.00000000000E+000,  0.10000000000E+001
  0.95361000000E+005,  0.12213624915E+008,  0.16500000000E+002,  0.00000000000E+000,  0.10000000000E+001
  0.95371000000E+005,  0.12477658940E+008,  0.16500000000E+002,  0.00000000000E+000,  0.10000000000E+001
  0.95381000000E+005,  0.12741628850E+008,  0.16500000000E+002,  0.00000000000E+000,  0.10000000000E+001
  0.95391000000E+005,  0.13005534657E+008,  0.16500000000E+002,  0.00000000000E+000,  0.10000000000E+001
  0.95401000000E+005,  0.13269376375E+008,  0.16500000000E+002,  0.00000000000E+000,  0.10000000000E+001
  0.95411000000E+005,  0.13533154018E+008,  0.16500000000E+002,  0.00000000000E+000,  0.10000000000E+001
  0.95421000000E+005,  0.13796867599E+008,  0.16500000000E+002,  0.00000000000E+000,  0.10000000000E+001
  0.95431000000E+005,  0.14060517132E+008,  0.16500000000E+002,  0.00000000000E+000,  0.10000000000E+001
  0.95441000000E+005,  0.14324102630E+008,  0.16500000000E+002,  0.00000000000E+000,  0.10000000000E+001
  0.95451000000E+005,  0.14587624108E+008,  0.16500000000E+002,  0.00000000000E+000,  0.10000000000E+001
  0.95461000000E+005,  0.14851081578E+008,  0.16500000000E+002,  0.00000000000E+000,  0.10000000000E+001
  0.95471000000E+005,  0.15114475054E+008,  0.16500000000E+002,  0.00000000000E+000,  0.10000000000E+001
  0.95481000000E+005,  0.15377804550E+008,  0.16500000000E+002,  0.00000000000E+000,  0.10000000000E+001
  0.95491000000E+005,  0.15641070079E+008,  0.16500000000E+002,  0.00000000000E+000,  0.10000000000E+001
  0.95501000000E+005,  0.15904271654E+008,  0.16500000000E+002,  0.00000000000E+000,  0.10000000000E+001
  0.95511000000E+005,  0.16167409290E+008,  0.16500000000E+002,  0.00000000000E+000,  0.10000000000E+001
  0.95521000000E+005,  0.16430483000E+008,  0.16500000000E+002,  0.00000000000E+000,  0.10000000000E+001
  0.95531000000E+005,  0.16693492798E+008,  0.16500000000E+002,  0.00000000000E+000,  0.10000000000E+001
  0.95541000000E+005,  0.16956438696E+008,  0.16500000000E+002,  0.00000000000E+000,  0.10000000000E+001
  0.95551000000E+005,  0.17219320709E+008,  0.16500000000E+002,  0.00000000000E+000,  0.10000000000E+001
  0.95561000000E+005,  0.17482138850E+008,  0.16500000000E+002,  0.00000000000E+000,  0.10000000000E+001
  0.95571000000E+005,  0.17744893133E+008,  0.16500000000E+002,  0.00000000000E+000,  0.10000000000E+001
  0.95581000000E+005,  0.18007583571E+008,  0.16500000000E+002,  0.00000000000E+000,  0.10000000000E+001
  0.95591000000E+005,  0.18270210178E+008,  0.16500000000E+002,  0.00000000000E+000,  0.10000000000E+001
  0.95601000000E+005,  0.18532772966E+008,  0.16500000000E+002,  0.00000000000E+000,  0.10000000000E+001
  0.95611000000E+005,  0.18795271951E+008,  0.16500000000E+002,  0.00000000000E+000,  0.10000000000E+001
  0.95621000000E+005,  0.19057707145E+008,  0.16500000000E+002,  0.00000000000E+000,  0.10000000000E+001
  0.95631000000E+005,  0.19320078562E+008,  0.16500000000E+002,  0.00000000000E+000,  0.10000000000E+001
  0.95641000000E+005,  0.19582386216E+008,  0.16500000000E+002,  0.00000000000E+000,  0.10000000000E+001
  0.95651000000E+005,  0.19844630119E+008,  0.16500000000E+002,  0.00000000000E+000,  0.10000000000E+001
  0.95661000000E+005,  0.20106810286E+008,  0.16500000000E+002,  0.00000000000E+000,  0.10000000000E+001
  0.95671000000E+005,  0.20368926730E+008,  0.16500000000E+002,  0.00000000000E+000,  0.10000000000E+001
  0.95681000000E+005,  0.20630979465E+008,  0.16500000000E+002,  0.00000000000E+000,  0.10000000000E+001
  0.95691000000E+005,  0.20892968503E+008,  0.16500000000E+002,  0.00000000000E+000,  0.10000000000E+001
  0.95701000000E+005,  0.21154893859E+008,  0.16500000000E+002,  0.00000000000E+000,  0.10000000000E+001
  0.95711000000E+005,  0.21416755547E+008,  0.16500000000E+002,  0.00000000000E+000,  0.10000000000E+001
  0.95721000000E+005,  0.21678553579E+008,  0.16500000000E+002,  0.00000000000E+000,  0.10000000000E+001
  0.95731000000E+005,  0.21940287970E+008,  0.16500000000E+002,  0.00000000000E+000,  0.10000000000E+001
  0.95741000000E+005,  0.22201958732E+008,  0.16500000000E+002,  0.00000000000E+000,  0.10000000000E+001
  0.95751000000E+005,  0.22463565879E+008,  0.16500000000E+002,  0.00000000000E+000,  0.10000000000E+001
  0.95761000000E+005,  0.22725109426E+008,  0.16500000000E+002,  0.00000000000E+000,  0.10000000000E+001
  0.95771000000E+005,  0.22986589384E+008,  0.16500000000E+002,  0.00000000000E+000,  0.10000000000E+001
  0.95781000000E+005,  0.23248005769E+008,  0.16500000000E+002,  0.00000000000E+000,  0.10000000000E+001
  0.95791000000E+005,  0.23509358592E+008,  0.16500000000E+002,  0.00000000000E+000,  0.10000000000E+001
  0.95801000000E+005,  0.23770647869E+008,  0.16500000000E+002,  0.00000000000E+000,  0.10000000000E+001
  0.95811000000E+005,  0.24031873612E+008,  0.16500000000E+002,  0.00000000000E+000,  0.10000000000E+001
  0.95821000000E+005,  0.24293035835E+008,  0.16500000000E+002,  0.00000000000E+000,  0.10000000000E+001
  0.95831000000E+005,  0.24554134552E+008,  0.16500000000E+002,  0.00000000000E+000,  0.10000000000E+001
  0.95841000000E+005,  0.24815169775E+008,  0.16500000000E+002,  0.00000000000E+000,  0.10000000000E+001
  0.95851000000E+005,  0.25076141519E+008,  0.16500000000E+002,  0.00000000000E+000,  0.10000000000E+001
  0.95861000000E+005,  0.25337049797E+008,  0.16500000000E+002,  0.00000000000E+000,  0.10000000000E+001
  0.95871000000E+005,  0.25597894622E+008,  0.16500000000E+002,  0.00000000000E+000,  0.10000000000E+001
  0.95881000000E+005,  0.25858676008E+008,  0.16500000000E+002,  0.00000000000E+000,  0.10000000000E+001
  0.95891000000E+005,  0.26119393969E+008,  0.16500000000E+002,  0.00000000000E+000,  0.10000000000E+001
  0.95901000000E+005,  0.26380048518E+008,  0.16500000000E+002,  0.00000000000E+000,  0.10000000000E+001
  0.95911000000E+005,  0.26640639668E+008,  0.16500000000E+002,  0.00000000000E+000,  0.10000000000E+001
  0.95921000000E+005,  0.26901167433E+008,  0.16500000000E+002,  0.00000000000E+000,  0.10000000000E+001
  0.95931000000E+005,  0.27161631826E+008,  0.16500000000E+002,  0.00000000000E+000,  0.10000000000E+001
  0.95941000000E+005,  0.27422032862E+008,  0.16500000000E+002,  0.00000000000E+000,  0.10000000000E+001
  0.95951000000E+005,  0.27682370553E+008,  0.16500000000E+002,  0.00000000000E+000,  0.10000000000E+001
  0.95961000000E+005,  0.27942644913E+008,  0.16500000000E+002,  0.00000000000E+000,  0.10000000000E+001
  0.95971000000E+005,  0.28202855955E+008,  0.16500000000E+002,  0.00000000000E+000,  0.10000000000E+001
  0.95981000000E+005,  0.28463003693E+008,  0.16500000000E+002,  0.00000000000E+000,  0.10000000000E+001
  0.95991000000E+005,  0.28723088141E+008,  0.16500000000E+002,  0.00000000000E+000,  0.10000000000E+001
  0.96001000000E+005,  0.28982683200E+008,  0.16500000000E+002,  0.00000000000E+000,  0.10000000000E+001
  0.96011000000E+005,  0.29238381037E+008,  0.16500000000E+002,  0.00000000000E+000,  0.10000000000E+001
  0.96021000000E+005,  0.29494017590E+008,  0.16500000000E+002,  0.00000000000E+000,  0.10000000000E+001
  0.96031000000E+005,  0.29749592873E+008,  0.16500000000E+002,  0.00000000000E+000,  0.10000000000E+001
  0.96041000000E+005,  0.30005106900E+008,  0.16500000000E+002,  0.00000000000E+000,  0.10000000000E+001
  0.96051000000E+005,  0.30260559683E+008,  0.16500000000E+002,  0.00000000000E+000,  0.10000000000E+001
  0.96061000000E+005,  0.30515951235E+008,  0.16500000000E+002,  0.00000000000E+000,  0.10000000000E+001
  0.96071000000E+005,  0.30771281569E+008,  0.16500000000E+002,  0.00000000000E+000,  0.10000000000E+001
  0.96081000000E+005,  0.31026550698E+008,  0.16500000000E+002,  0.00000000000E+000,  0.10000000000E+001
  0.96091000000E+005,  0.31281758634E+008,  0.16500000000E+002,  0.00000000000E+000,  0.10000000000E+001
  0.96101000000E+005,  0.31536905391E+008,  0.16500000000E+002,  0.00000000000E+000,  0.10000000000E+001
  0.96111000000E+005,  0.31791990982E+008,  0.16500000000E+002,  0.00000000000E+000,  0.10000000000E+001
  0.96121000000E+005,  0.32047015419E+008,  0.16500000000E+002,  0.00000000000E+000,  0.10000000000E+001
  0.96131000000E+005,  0.32301978716E+008,  0.16500000000E+002,  0.00000000000E+000,  0.10000000000E+001
  0.96141000000E+005,  0.32556880885E+008,  0.16500000000E+002,  0.00000000000E+000,  0.10000000000E+001
  0.96151000000E+005,  0.32811721939E+008,  0.16500000000E+002,  0.00000000000E+000,  0.10000000000E+001
  0.96161000000E+005,  0.33066501891E+008,  0.16500000000E+002,  0.00000000000E+000,  0.10000000000E+001
  0.96171000000E+005,  0.33321220754E+008,  0.16500000000E+002,  0.00000000000E+000,  0.10000000000E+001
  0.96181000000E+005,  0.33575878540E+008,  0.16500000000E+002,  0.00000000000E+000,  0.10000000000E+001
  0.96191000000E+005,  0.33830475264E+008,  0.16500000000E+002,  0.00000000000E+000,  0.10000000000E+001
  0.96201000000E+005,  0.34085010937E+008,  0.16500000000E+002,  0.00000000000E+000,  0.10000000000E+001
  0.96211000000E+005,  0.34339485573E+008,  0.16500000000E+002,  0.00000000000E+000,  0.10000000000E+001
  0.96221000000E+005,  0.34593899184E+008,  0.16500000000E+002,  0.00000000000E+000,  0.10000000000E+001
  0.96231000000E+005,  0.34848251783E+008,  0.16500000000E+002,  0.00000000000E+000,  0.10000000000E+001
  0.96241000000E+005,  0.35102543384E+008,  0.16500000000E+002,  0.00000000000E+000,  0.10000000000E+001
  0.96251000000E+005,  0.35356774005E+008,  0.16500000000E+002,  0.00000000000E+000,  0.10000000000E+001
  0.96261000000E+005,  0.35610943647E+008,  0.16500000000E+002,  0.00000000000E+000,  0.10000000000E+001
  0.96271000000E+005,  0.35865052418E+008,  0.16500000000E+002,  0.00000000000E+000,  0.10000000000E+001
  0.96281000000E+005,  0.36119100176E+008,  0.16500000000E+002,  0.00000000000E+000,  0.10000000000E+001
  0.96291000000E+005,  0.36373086976E+008,  0.16500000000E+002,  0.00000000000E+000,  0.10000000000E+001
  0.96301000000E+005,  0.36627012853E+008,  0.16500000000E+002,  0.00000000000E+000,  0.10000000000E+001
  0.96311000000E+005,  0.36880877826E+008,  0.16500000000E+002,  0.00000000000E+000,  0.10000000000E+001
  0.96321000000E+005,  0.37134681899E+008,  0.16500000000E+002,  0.00000000000E+000,  0.10000000000E+001
  0.96331000000E+005,  0.37388425089E+008,  0.16500000000E+002,  0.00000000000E+000,  0.10000000000E+001
  0.96341000000E+005,  0.37642107409E+008,  0.16500000000E+002,  0.00000000000E+000,  0.10000000000E+001
  0.96351000000E+005,  0.37895728871E+008,  0.16500000000E+002,  0.00000000000E+000,  0.10000000000E+001
  0.96361000000E+005,  0.38149289489E+008,  0.16500000000E+002,  0.00000000000E+000,  0.10000000000E+001
  0.96371000000E+005,  0.38402789288E+008,  0.16500000000E+002,  0.00000000000E+000,  0.10000000000E+001
  0.96381000000E+005,  0.38656228256E+008,  0.16500000000E+002,  0.00000000000E+000,  0.10000000000E+001
  0.96391000000E+005,  0.38909606417E+008,  0.16500000000E+002,  0.00000000000E+000,  0.10000000000E+001
  0.96401000000E+005,  0.39162923786E+008,  0.16500000000E+002,  0.00000000000E+000,  0.10000000000E+001
  0.96411000000E+005,  0.39416180374E+008,  0.16500000000E+002,  0.00000000000E+000,  0.10000000000E+001
  0.96421000000E+005,  0.39669376196E+008,  0.16500000000E+002,  0.00000000000E+000,  0.10000000000E+001
  0.96431000000E+005,  0.39922511262E+008,  0.16500000000E+002,  0.00000000000E+000,  0.10000000000E+001
  0.96441000000E+005,  0.40175585587E+008,  0.16500000000E+002,  0.00000000000E+000,  0.10000000000E+001
  0.96451000000E+005,  0.40428599183E+008,  0.16500000000E+002,  0.00000000000E+000,  0.10000000000E+001
  0.96461000000E+005,  0.40681552063E+008,  0.16500000000E+002,  0.00000000000E+000,  0.10000000000E+001
  0.96471000000E+005,  0.40934444295E+008,  0.16500000000E+002,  0.00000000000E+000,  0.10000000000E+001
  0.96481000000E+005,  0.41187275781E+008,  0.16500000000E+002,  0.00000000000E+000,  0.10000000000E+001
  0.96491000000E+005,  0.41440046590E+008,  0.16500000000E+002,  0.00000000000E+000,  0.10000000000E+001
  0.96501000000E+005,  0.41692756763E+008,  0.16500000000E+002,  0.00000000000E+000,  0.10000000000E+001
  0.96511000000E+005,  0.41945406256E+008,  0.16500000000E+002,  0.00000000000E+000,  0.10000000000E+001
  0.96521000000E+005,  0.42197995109E+008,  0.16500000000E+002,  0.00000000000E+000,  0.10000000000E+001
  0.96531000000E+005,  0.42450523335E+008,  0.16500000000E+002,  0.00000000000E+000,  0.10000000000E+001
  0.96541000000E+005,  0.42702990949E+008,  0.16500000000E+002,  0.00000000000E+000,  0.10000000000E+001
  0.96551000000E+005,  0.42955397961E+008,  0.16500000000E+002,  0.00000000000E+000,  0.10000000000E+001
  0.96561000000E+005,  0.43207744438E+008,  0.16500000000E+002,  0.00000000000E+000,  0.10000000000E+001
  0.96571000000E+005,  0.43460030288E+008,  0.16500000000E+002,  0.00000000000E+000,  0.10000000000E+001
  0.96581000000E+005,  0.43712255590E+008,  0.16500000000E+002,  0.00000000000E+000,  0.10000000000E+001
  0.96591000000E+005,  0.43964420328E+008,  0.16500000000E+002,  0.00000000000E+000,  0.10000000000E+001
  0.96601000000E+005,  0.44216524529E+008,  0.16500000000E+002,  0.00000000000E+000,  0.10000000000E+001
  0.96611000000E+005,  0.44468568268E+008,  0.16500000000E+002,  0.00000000000E+000,  0.10000000000E+001
  0.96621000000E+005,  0.44720551468E+008,  0.16500000000E+002,  0.00000000000E+000,  0.10000000000E+001
  0.96631000000E+005,  0.44972474145E+008,  0.16500000000E+002,  0.00000000000E+000,  0.10000000000E+001
  0.96641000000E+005,  0.45224336394E+008,  0.16500000000E+002,  0.00000000000E+000,  0.10000000000E+001
  0.96651000000E+005,  0.45476138105E+008,  0.16500000000E+002,  0.00000000000E+000,  0.10000000000E+001
  0.96661000000E+005,  0.45727879361E+008,  0.16500000000E+002,  0.00000000000E+000,  0.10000000000E+001
  0.96671000000E+005,  0.45979560165E+008,  0.16500000000E+002,  0.00000000000E+000,  0.10000000000E+001
  0.96681000000E+005,  0.46231180534E+008,  0.16500000000E+002,  0.00000000000E+000,  0.10000000000E+001
  0.96691000000E+005,  0.46482740533E+008,  0.16500000000E+002,  0.00000000000E+000,  0.10000000000E+001
  0.96701000000E+005,  0.46734240072E+008,  0.16500000000E+002,  0.00000000000E+000,  0.10000000000E+001
  0.96711000000E+005,  0.46985679215E+008,  0.16500000000E+002,  0.00000000000E+000,  0.10000000000E+001
  0.96721000000E+005,  0.47237058019E+008,  0.16500000000E+002,  0.00000000000E+000,  0.10000000000E+001
  0.96731000000E+005,  0.47488376441E+008,  0.16500000000E+002,  0.00000000000E+000,  0.10000000000E+001
