"           TIME(S)","              PRES","              TEMP","             SAT_G","             SAT_L"
  0.94881000000E+005,  0.49932651700E+006,  0.16500000000E+002,  0.00000000000E+000,  0.10000000000E+001
  0.94885000000E+005,  0.51776368411E+006,  0.16500000000E+002,  0.00000000000E+000,  0.10000000000E+001
  0.94890000000E+005,  0.54439323759E+006,  0.16500000000E+002,  0.00000000000E+000,  0.10000000000E+001
  0.94895000000E+005,  0.57080616329E+006,  0.16500000000E+002,  0.00000000000E+000,  0.10000000000E+001
  0.94900000000E+005,  0.59701216277E+006,  0.16500000000E+002,  0.00000000000E+000,  0.10000000000E+001
  0.94905000000E+005,  0.62301927799E+006,  0.16500000000E+002,  0.00000000000E+000,  0.10000000000E+001
  0.94911000000E+005,  0.65395290112E+006,  0.16500000000E+002,  0.00000000000E+000,  0.10000000000E+001
  0.94921000000E+005,  0.71277387723E+006,  0.16500000000E+002,  0.00000000000E+000,  0.10000000000E+001
  0.94931000000E+005,  0.79904739776E+006,  0.16500000000E+002,  0.00000000000E+000,  0.10000000000E+001
  0.94941000000E+005,  0.10236500577E+007,  0.16500000000E+002,  0.00000000000E+000,  0.10000000000E+001
  0.94951000000E+005,  0.12760511974E+007,  0.16500000000E+002,  0.00000000000E+000,  0.10000000000E+001
  0.94961000000E+005,  0.15302096855E+007,  0.16500000000E+002,  0.00000000000E+000,  0.10000000000E+001
  0.94971000000E+005,  0.17768333125E+007,  0.16500000000E+002,  0.00000000000E+000,  0.10000000000E+001
  0.94981000000E+005,  0.20200762609E+007,  0.16500000000E+002,  0.00000000000E+000,  0.10000000000E+001
  0.94991000000E+005,  0.22600724369E+007,  0.16500000000E+002,  0.00000000000E+000,  0.10000000000E+001
  0.95001000000E+005,  0.25025581134E+007,  0.16500000000E+002,  0.00000000000E+000,  0.10000000000E+001
  0.95011000000E+005,  0.27405340898E+007,  0.16500000000E+002,  0.00000000000E+000,  0.10000000000E+001
  0.95021000000E+005,  0.29757061199E+007,  0.16500000000E+002,  0.00000000000E+000,  0.10000000000E+001
  0.95031000000E+005,  0.32055955279E+007,  0.16500000000E+002,  0.00000000000E+000,  0.10000000000E+001
  0.95041000000E+005,  0.34305560767E+007,  0.16500000000E+002,  0.00000000000E+000,  0.10000000000E+001
  0.95051000000E+005,  0.36527932391E+007,  0.16500000000E+002,  0.00000000000E+000,  0.10000000000E+001
  0.95061000000E+005,  0.38723647458E+007,  0.16500000000E+002,  0.00000000000E+000,  0.10000000000E+001
  0.95071000000E+005,  0.40893253787E+007,  0.16500000000E+002,  0.00000000000E+000,  0.10000000000E+001
  0.95081000000E+005,  0.43037271589E+007,  0.16500000000E+002,  0.00000000000E+000,  0.10000000000E+001
  0.95091000000E+005,  0.45156195871E+007,  0.16500000000E+002,  0.00000000000E+000,  0.10000000000E+001
  0.95101000000E+005,  0.47250498785E+007,  0.16500000000E+002,  0.00000000000E+000,  0.10000000000E+001
  0.95111000000E+005,  0.49320631743E+007,  0.16500000000E+002,  0.00000000000E+000,  0.10000000000E+001
  0.95121000000E+005,  0.51367027374E+007,  0.16500000000E+002,  0.00000000000E+000,  0.10000000000E+001
  0.95122250000E+005,  0.51622434495E+007,  0.16500000000E+002,  0.00000000000E+000,  0.10000000000E+001
  0.95128500000E+005,  0.52890385092E+007,  0.16500000000E+002,  0.00000000000E+000,  0.10000000000E+001
  0.95129750000E+005,  0.53143597572E+007,  0.16500000000E+002,  0.00000000000E+000,  0.10000000000E+001
  0.95136000000E+005,  0.54400693868E+007,  0.16500000000E+002,  0.00000000000E+000,  0.10000000000E+001
  0.95137250000E+005,  0.54651740473E+007,  0.16500000000E+002,  0.00000000000E+000,  0.10000000000E+001
  0.95143500000E+005,  0.55898122824E+007,  0.16500000000E+002,  0.00000000000E+000,  0.10000000000E+001
  0.95144437500E+005,  0.56084870337E+007,  0.16500000000E+002,  0.00000000000E+000,  0.10000000000E+001
  0.95149125000E+005,  0.57013676960E+007,  0.16500000000E+002,  0.00000000000E+000,  0.10000000000E+001
  0.95151000000E+005,  0.57384397684E+007,  0.16500000000E+002,  0.00000000000E+000,  0.10000000000E+001
  0.95161000000E+005,  0.59339576481E+007,  0.16500000000E+002,  0.00000000000E+000,  0.10000000000E+001
  0.95171000000E+005,  0.61272960919E+007,  0.16500000000E+002,  0.00000000000E+000,  0.10000000000E+001
  0.95181000000E+005,  0.63184898787E+007,  0.16500000000E+002,  0.00000000000E+000,  0.10000000000E+001
  0.95191000000E+005,  0.65075727504E+007,  0.16500000000E+002,  0.00000000000E+000,  0.10000000000E+001
  0.95192250000E+005,  0.65311732850E+007,  0.16500000000E+002,  0.00000000000E+000,  0.10000000000E+001
  0.95193031250E+005,  0.65459107641E+007,  0.16500000000E+002,  0.00000000000E+000,  0.10000000000E+001
  0.95196937500E+005,  0.66192809576E+007,  0.16500000000E+002,  0.00000000000E+000,  0.10000000000E+001
  0.95198187500E+005,  0.66427262405E+007,  0.16500000000E+002,  0.00000000000E+000,  0.10000000000E+001
  0.95204437500E+005,  0.67591507555E+007,  0.16500000000E+002,  0.00000000000E+000,  0.10000000000E+001
  0.95214437500E+005,  0.69434012106E+007,  0.16500000000E+002,  0.00000000000E+000,  0.10000000000E+001
  0.95215687500E+005,  0.69663990327E+007,  0.16500000000E+002,  0.00000000000E+000,  0.10000000000E+001
  0.95221937500E+005,  0.70806071024E+007,  0.16500000000E+002,  0.00000000000E+000,  0.10000000000E+001
  0.95231937500E+005,  0.72613643085E+007,  0.16500000000E+002,  0.00000000000E+000,  0.10000000000E+001
  0.95233187500E+005,  0.72839263065E+007,  0.16500000000E+002,  0.00000000000E+000,  0.10000000000E+001
  0.95239437500E+005,  0.73959757986E+007,  0.16500000000E+002,  0.00000000000E+000,  0.10000000000E+001
  0.95240687500E+005,  0.74183541543E+007,  0.16500000000E+002,  0.00000000000E+000,  0.10000000000E+001
  0.95241468750E+005,  0.74323287232E+007,  0.16500000000E+002,  0.00000000000E+000,  0.10000000000E+001
  0.95245375000E+005,  0.75019067235E+007,  0.16500000000E+002,  0.00000000000E+000,  0.10000000000E+001
  0.95255375000E+005,  0.76781218934E+007,  0.16500000000E+002,  0.00000000000E+000,  0.10000000000E+001
  0.95256625000E+005,  0.77001172791E+007,  0.16500000000E+002,  0.00000000000E+000,  0.10000000000E+001
  0.95262875000E+005,  0.78093594729E+007,  0.16500000000E+002,  0.00000000000E+000,  0.10000000000E+001
  0.95272875000E+005,  0.79822866785E+007,  0.16500000000E+002,  0.00000000000E+000,  0.10000000000E+001
  0.95274125000E+005,  0.80038718776E+007,  0.16500000000E+002,  0.00000000000E+000,  0.10000000000E+001
  0.95280375000E+005,  0.81110814064E+007,  0.16500000000E+002,  0.00000000000E+000,  0.10000000000E+001
  0.95290375000E+005,  0.82808022889E+007,  0.16500000000E+002,  0.00000000000E+000,  0.10000000000E+001
  0.95291625000E+005,  0.83019876260E+007,  0.16500000000E+002,  0.00000000000E+000,  0.10000000000E+001
  0.95297875000E+005,  0.84072146409E+007,  0.16500000000E+002,  0.00000000000E+000,  0.10000000000E+001
  0.95299125000E+005,  0.84282311448E+007,  0.16500000000E+002,  0.00000000000E+000,  0.10000000000E+001
  0.95305375000E+005,  0.85326218523E+007,  0.16500000000E+002,  0.00000000000E+000,  0.10000000000E+001
  0.95306625000E+005,  0.85534714457E+007,  0.16500000000E+002,  0.00000000000E+000,  0.10000000000E+001
  0.95307406250E+005,  0.85664914922E+007,  0.16500000000E+002,  0.00000000000E+000,  0.10000000000E+001
  0.95307894531E+005,  0.85746247519E+007,  0.16500000000E+002,  0.00000000000E+000,  0.10000000000E+001
  0.95310335938E+005,  0.86151863454E+007,  0.16500000000E+002,  0.00000000000E+000,  0.10000000000E+001
  0.95311585938E+005,  0.86359260881E+007,  0.16500000000E+002,  0.00000000000E+000,  0.10000000000E+001
  0.95312367188E+005,  0.86488776116E+007,  0.16500000000E+002,  0.00000000000E+000,  0.10000000000E+001
  0.95316273438E+005,  0.87133691888E+007,  0.16500000000E+002,  0.00000000000E+000,  0.10000000000E+001
  0.95317523438E+005,  0.87339786876E+007,  0.16500000000E+002,  0.00000000000E+000,  0.10000000000E+001
  0.95318304688E+005,  0.87468490062E+007,  0.16500000000E+002,  0.00000000000E+000,  0.10000000000E+001
  0.95318792969E+005,  0.87548887253E+007,  0.16500000000E+002,  0.00000000000E+000,  0.10000000000E+001
  0.95321234375E+005,  0.87949839941E+007,  0.16500000000E+002,  0.00000000000E+000,  0.10000000000E+001
  0.95322484375E+005,  0.88154854212E+007,  0.16500000000E+002,  0.00000000000E+000,  0.10000000000E+001
  0.95323265625E+005,  0.88282881498E+007,  0.16500000000E+002,  0.00000000000E+000,  0.10000000000E+001
  0.95327171875E+005,  0.88920397610E+007,  0.16500000000E+002,  0.00000000000E+000,  0.10000000000E+001
  0.95337171875E+005,  0.90535475775E+007,  0.16500000000E+002,  0.00000000000E+000,  0.10000000000E+001
  0.95338421875E+005,  0.90737082173E+007,  0.16500000000E+002,  0.00000000000E+000,  0.10000000000E+001
  0.95344671875E+005,  0.91738557598E+007,  0.16500000000E+002,  0.00000000000E+000,  0.10000000000E+001
  0.95345921875E+005,  0.91938582602E+007,  0.16500000000E+002,  0.00000000000E+000,  0.10000000000E+001
  0.95346703125E+005,  0.92063495181E+007,  0.16500000000E+002,  0.00000000000E+000,  0.10000000000E+001
  0.95347191406E+005,  0.92141525459E+007,  0.16500000000E+002,  0.00000000000E+000,  0.10000000000E+001
  0.95349632812E+005,  0.92530681324E+007,  0.16500000000E+002,  0.00000000000E+000,  0.10000000000E+001
  0.95350882812E+005,  0.92729665944E+007,  0.16500000000E+002,  0.00000000000E+000,  0.10000000000E+001
  0.95351664062E+005,  0.92853929277E+007,  0.16500000000E+002,  0.00000000000E+000,  0.10000000000E+001
  0.95355570312E+005,  0.93472723483E+007,  0.16500000000E+002,  0.00000000000E+000,  0.10000000000E+001
  0.95356820312E+005,  0.93670474328E+007,  0.16500000000E+002,  0.00000000000E+000,  0.10000000000E+001
  0.95363070312E+005,  0.94652841115E+007,  0.16500000000E+002,  0.00000000000E+000,  0.10000000000E+001
  0.95364320312E+005,  0.94849050306E+007,  0.16500000000E+002,  0.00000000000E+000,  0.10000000000E+001
  0.95365101562E+005,  0.94971580708E+007,  0.16500000000E+002,  0.00000000000E+000,  0.10000000000E+001
  0.95365589844E+005,  0.95048123089E+007,  0.16500000000E+002,  0.00000000000E+000,  0.10000000000E+001
  0.95368031250E+005,  0.95429865405E+007,  0.16500000000E+002,  0.00000000000E+000,  0.10000000000E+001
  0.95369281250E+005,  0.95625060809E+007,  0.16500000000E+002,  0.00000000000E+000,  0.10000000000E+001
  0.95375531250E+005,  0.96594756630E+007,  0.16500000000E+002,  0.00000000000E+000,  0.10000000000E+001
  0.95376781250E+005,  0.96788437123E+007,  0.16500000000E+002,  0.00000000000E+000,  0.10000000000E+001
  0.95377562500E+005,  0.96909388079E+007,  0.16500000000E+002,  0.00000000000E+000,  0.10000000000E+001
  0.95381468750E+005,  0.97511707711E+007,  0.16500000000E+002,  0.00000000000E+000,  0.10000000000E+001
  0.95382660156E+005,  0.97695184612E+007,  0.16500000000E+002,  0.00000000000E+000,  0.10000000000E+001
  0.95383404785E+005,  0.97809768386E+007,  0.16500000000E+002,  0.00000000000E+000,  0.10000000000E+001
  0.95383870178E+005,  0.97881348702E+007,  0.16500000000E+002,  0.00000000000E+000,  0.10000000000E+001
  0.95386197144E+005,  0.98238388897E+007,  0.16500000000E+002,  0.00000000000E+000,  0.10000000000E+001
  0.95391000000E+005,  0.98971681042E+007,  0.16500000000E+002,  0.00000000000E+000,  0.10000000000E+001
  0.95401000000E+005,  0.10048288773E+008,  0.16500000000E+002,  0.00000000000E+000,  0.10000000000E+001
  0.95411000000E+005,  0.10197866208E+008,  0.16500000000E+002,  0.00000000000E+000,  0.10000000000E+001
  0.95412250000E+005,  0.10216538198E+008,  0.16500000000E+002,  0.00000000000E+000,  0.10000000000E+001
  0.95418500000E+005,  0.10309304225E+008,  0.16500000000E+002,  0.00000000000E+000,  0.10000000000E+001
  0.95419750000E+005,  0.10327832992E+008,  0.16500000000E+002,  0.00000000000E+000,  0.10000000000E+001
  0.95426000000E+005,  0.10419888744E+008,  0.16500000000E+002,  0.00000000000E+000,  0.10000000000E+001
  0.95427250000E+005,  0.10438275718E+008,  0.16500000000E+002,  0.00000000000E+000,  0.10000000000E+001
  0.95428031250E+005,  0.10449758319E+008,  0.16500000000E+002,  0.00000000000E+000,  0.10000000000E+001
  0.95431937500E+005,  0.10506943260E+008,  0.16500000000E+002,  0.00000000000E+000,  0.10000000000E+001
  0.95433187500E+005,  0.10525218696E+008,  0.16500000000E+002,  0.00000000000E+000,  0.10000000000E+001
  0.95439437500E+005,  0.10616018231E+008,  0.16500000000E+002,  0.00000000000E+000,  0.10000000000E+001
  0.95449437500E+005,  0.10759833576E+008,  0.16500000000E+002,  0.00000000000E+000,  0.10000000000E+001
  0.95450687500E+005,  0.10777786485E+008,  0.16500000000E+002,  0.00000000000E+000,  0.10000000000E+001
  0.95451468750E+005,  0.10788998166E+008,  0.16500000000E+002,  0.00000000000E+000,  0.10000000000E+001
  0.95451957031E+005,  0.10796001923E+008,  0.16500000000E+002,  0.00000000000E+000,  0.10000000000E+001
  0.95454398438E+005,  0.10830934198E+008,  0.16500000000E+002,  0.00000000000E+000,  0.10000000000E+001
  0.95455648438E+005,  0.10848796758E+008,  0.16500000000E+002,  0.00000000000E+000,  0.10000000000E+001
  0.95461898438E+005,  0.10937547806E+008,  0.16500000000E+002,  0.00000000000E+000,  0.10000000000E+001
  0.95471898438E+005,  0.11078127153E+008,  0.16500000000E+002,  0.00000000000E+000,  0.10000000000E+001
  0.95473148438E+005,  0.11095676262E+008,  0.16500000000E+002,  0.00000000000E+000,  0.10000000000E+001
  0.95479398438E+005,  0.11182873091E+008,  0.16500000000E+002,  0.00000000000E+000,  0.10000000000E+001
  0.95480648438E+005,  0.11200289824E+008,  0.16500000000E+002,  0.00000000000E+000,  0.10000000000E+001
  0.95481429688E+005,  0.11211166712E+008,  0.16500000000E+002,  0.00000000000E+000,  0.10000000000E+001
  0.95485335938E+005,  0.11265338102E+008,  0.16500000000E+002,  0.00000000000E+000,  0.10000000000E+001
  0.95486585938E+005,  0.11282650820E+008,  0.16500000000E+002,  0.00000000000E+000,  0.10000000000E+001
  0.95487367188E+005,  0.11293462743E+008,  0.16500000000E+002,  0.00000000000E+000,  0.10000000000E+001
  0.95487855469E+005,  0.11300216832E+008,  0.16500000000E+002,  0.00000000000E+000,  0.10000000000E+001
  0.95490296875E+005,  0.11333904550E+008,  0.16500000000E+002,  0.00000000000E+000,  0.10000000000E+001
  0.95491546875E+005,  0.11351130891E+008,  0.16500000000E+002,  0.00000000000E+000,  0.10000000000E+001
  0.95497796875E+005,  0.11436726077E+008,  0.16500000000E+002,  0.00000000000E+000,  0.10000000000E+001
  0.95499046875E+005,  0.11453823094E+008,  0.16500000000E+002,  0.00000000000E+000,  0.10000000000E+001
  0.95499828125E+005,  0.11464500271E+008,  0.16500000000E+002,  0.00000000000E+000,  0.10000000000E+001
  0.95500316406E+005,  0.11471170198E+008,  0.16500000000E+002,  0.00000000000E+000,  0.10000000000E+001
  0.95502757812E+005,  0.11504438553E+008,  0.16500000000E+002,  0.00000000000E+000,  0.10000000000E+001
  0.95504007812E+005,  0.11521450537E+008,  0.16500000000E+002,  0.00000000000E+000,  0.10000000000E+001
  0.95504789062E+005,  0.11532074629E+008,  0.16500000000E+002,  0.00000000000E+000,  0.10000000000E+001
  0.95505277344E+005,  0.11538711371E+008,  0.16500000000E+002,  0.00000000000E+000,  0.10000000000E+001
  0.95507718750E+005,  0.11571814365E+008,  0.16500000000E+002,  0.00000000000E+000,  0.10000000000E+001
  0.95508968750E+005,  0.11588741808E+008,  0.16500000000E+002,  0.00000000000E+000,  0.10000000000E+001
  0.95509750000E+005,  0.11599313102E+008,  0.16500000000E+002,  0.00000000000E+000,  0.10000000000E+001
  0.95513656250E+005,  0.11651964176E+008,  0.16500000000E+002,  0.00000000000E+000,  0.10000000000E+001
  0.95514906250E+005,  0.11668791177E+008,  0.16500000000E+002,  0.00000000000E+000,  0.10000000000E+001
  0.95515687500E+005,  0.11679299791E+008,  0.16500000000E+002,  0.00000000000E+000,  0.10000000000E+001
  0.95516175781E+005,  0.11685864432E+008,  0.16500000000E+002,  0.00000000000E+000,  0.10000000000E+001
  0.95518617188E+005,  0.11718607935E+008,  0.16500000000E+002,  0.00000000000E+000,  0.10000000000E+001
  0.95528617188E+005,  0.11851404874E+008,  0.16500000000E+002,  0.00000000000E+000,  0.10000000000E+001
  0.95529867188E+005,  0.11867982942E+008,  0.16500000000E+002,  0.00000000000E+000,  0.10000000000E+001
  0.95536117188E+005,  0.11950361869E+008,  0.16500000000E+002,  0.00000000000E+000,  0.10000000000E+001
  0.95546117188E+005,  0.12080872766E+008,  0.16500000000E+002,  0.00000000000E+000,  0.10000000000E+001
  0.95547367188E+005,  0.12097165481E+008,  0.16500000000E+002,  0.00000000000E+000,  0.10000000000E+001
  0.95548148438E+005,  0.12107340519E+008,  0.16500000000E+002,  0.00000000000E+000,  0.10000000000E+001
  0.95548636719E+005,  0.12113696801E+008,  0.16500000000E+002,  0.00000000000E+000,  0.10000000000E+001
  0.95551078125E+005,  0.12145401626E+008,  0.16500000000E+002,  0.00000000000E+000,  0.10000000000E+001
  0.95552328125E+005,  0.12161614337E+008,  0.16500000000E+002,  0.00000000000E+000,  0.10000000000E+001
  0.95558578125E+005,  0.12242180518E+008,  0.16500000000E+002,  0.00000000000E+000,  0.10000000000E+001
  0.95559828125E+005,  0.12258273294E+008,  0.16500000000E+002,  0.00000000000E+000,  0.10000000000E+001
  0.95560609375E+005,  0.12268323485E+008,  0.16500000000E+002,  0.00000000000E+000,  0.10000000000E+001
  0.95564515625E+005,  0.12318381659E+008,  0.16500000000E+002,  0.00000000000E+000,  0.10000000000E+001
  0.95565765625E+005,  0.12334380204E+008,  0.16500000000E+002,  0.00000000000E+000,  0.10000000000E+001
  0.95566546875E+005,  0.12344371559E+008,  0.16500000000E+002,  0.00000000000E+000,  0.10000000000E+001
  0.95570453125E+005,  0.12394136957E+008,  0.16500000000E+002,  0.00000000000E+000,  0.10000000000E+001
  0.95571703125E+005,  0.12410042056E+008,  0.16500000000E+002,  0.00000000000E+000,  0.10000000000E+001
  0.95577953125E+005,  0.12489081932E+008,  0.16500000000E+002,  0.00000000000E+000,  0.10000000000E+001
  0.95587953125E+005,  0.12614315494E+008,  0.16500000000E+002,  0.00000000000E+000,  0.10000000000E+001
  0.95589203125E+005,  0.12629949647E+008,  0.16500000000E+002,  0.00000000000E+000,  0.10000000000E+001
  0.95589984375E+005,  0.12639713463E+008,  0.16500000000E+002,  0.00000000000E+000,  0.10000000000E+001
  0.95593890625E+005,  0.12688346502E+008,  0.16500000000E+002,  0.00000000000E+000,  0.10000000000E+001
  0.95595140625E+005,  0.12703889832E+008,  0.16500000000E+002,  0.00000000000E+000,  0.10000000000E+001
  0.95595921875E+005,  0.12713596906E+008,  0.16500000000E+002,  0.00000000000E+000,  0.10000000000E+001
  0.95599828125E+005,  0.12761947530E+008,  0.16500000000E+002,  0.00000000000E+000,  0.10000000000E+001
  0.95601078125E+005,  0.12777400550E+008,  0.16500000000E+002,  0.00000000000E+000,  0.10000000000E+001
  0.95601859375E+005,  0.12787051254E+008,  0.16500000000E+002,  0.00000000000E+000,  0.10000000000E+001
  0.95605765625E+005,  0.12835121513E+008,  0.16500000000E+002,  0.00000000000E+000,  0.10000000000E+001
  0.95607015625E+005,  0.12850485030E+008,  0.16500000000E+002,  0.00000000000E+000,  0.10000000000E+001
  0.95607796875E+005,  0.12860079834E+008,  0.16500000000E+002,  0.00000000000E+000,  0.10000000000E+001
  0.95611703125E+005,  0.12907871754E+008,  0.16500000000E+002,  0.00000000000E+000,  0.10000000000E+001
  0.95612953125E+005,  0.12923146307E+008,  0.16500000000E+002,  0.00000000000E+000,  0.10000000000E+001
  0.95619203125E+005,  0.12999057352E+008,  0.16500000000E+002,  0.00000000000E+000,  0.10000000000E+001
  0.95620453125E+005,  0.13014220685E+008,  0.16500000000E+002,  0.00000000000E+000,  0.10000000000E+001
  0.95626703125E+005,  0.13089579664E+008,  0.16500000000E+002,  0.00000000000E+000,  0.10000000000E+001
  0.95631000000E+005,  0.13141172316E+008,  0.16500000000E+002,  0.00000000000E+000,  0.10000000000E+001
  0.95632250000E+005,  0.13156162602E+008,  0.16500000000E+002,  0.00000000000E+000,  0.10000000000E+001
  0.95638500000E+005,  0.13230663084E+008,  0.16500000000E+002,  0.00000000000E+000,  0.10000000000E+001
