"           TIME(S)","              PRES","              TEMP","             SAT_G","             SAT_L"
  0.94881000000E+005,  0.48270236063E+006,  0.16500000000E+002,  0.00000000000E+000,  0.10000000000E+001
  0.94885000000E+005,  0.48270236052E+006,  0.16500000000E+002,  0.00000000000E+000,  0.10000000000E+001
  0.94890000000E+005,  0.48270236039E+006,  0.16500000000E+002,  0.00000000000E+000,  0.10000000000E+001
  0.94895000000E+005,  0.48270236026E+006,  0.16500000000E+002,  0.00000000000E+000,  0.10000000000E+001
  0.94900000000E+005,  0.48270236013E+006,  0.16500000000E+002,  0.00000000000E+000,  0.10000000000E+001
  0.94905000000E+005,  0.48270236000E+006,  0.16500000000E+002,  0.00000000000E+000,  0.10000000000E+001
  0.94911000000E+005,  0.48270235986E+006,  0.16500000000E+002,  0.00000000000E+000,  0.10000000000E+001
  0.94921000000E+005,  0.48270235962E+006,  0.16500000000E+002,  0.00000000000E+000,  0.10000000000E+001
  0.94931000000E+005,  0.48270235940E+006,  0.16500000000E+002,  0.00000000000E+000,  0.10000000000E+001
  0.94941000000E+005,  0.48270235919E+006,  0.16500000000E+002,  0.00000000000E+000,  0.10000000000E+001
  0.94951000000E+005,  0.48270235899E+006,  0.16500000000E+002,  0.00000000000E+000,  0.10000000000E+001
  0.94961000000E+005,  0.48270235880E+006,  0.16500000000E+002,  0.00000000000E+000,  0.10000000000E+001
  0.94971000000E+005,  0.48270235862E+006,  0.16500000000E+002,  0.00000000000E+000,  0.10000000000E+001
  0.94981000000E+005,  0.48270235845E+006,  0.16500000000E+002,  0.00000000000E+000,  0.10000000000E+001
  0.94991000000E+005,  0.48270235828E+006,  0.16500000000E+002,  0.00000000000E+000,  0.10000000000E+001
  0.95001000000E+005,  0.48270235813E+006,  0.16500000000E+002,  0.00000000000E+000,  0.10000000000E+001
  0.95011000000E+005,  0.48270235798E+006,  0.16500000000E+002,  0.00000000000E+000,  0.10000000000E+001
  0.95021000000E+005,  0.48270235784E+006,  0.16500000000E+002,  0.00000000000E+000,  0.10000000000E+001
  0.95031000000E+005,  0.48270235771E+006,  0.16500000000E+002,  0.00000000000E+000,  0.10000000000E+001
  0.95041000000E+005,  0.48270235758E+006,  0.16500000000E+002,  0.00000000000E+000,  0.10000000000E+001
  0.95051000000E+005,  0.48270235746E+006,  0.16500000000E+002,  0.00000000000E+000,  0.10000000000E+001
  0.95061000000E+005,  0.48270235735E+006,  0.16500000000E+002,  0.00000000000E+000,  0.10000000000E+001
  0.95071000000E+005,  0.48270235724E+006,  0.16500000000E+002,  0.00000000000E+000,  0.10000000000E+001
  0.95081000000E+005,  0.48270235713E+006,  0.16500000000E+002,  0.00000000000E+000,  0.10000000000E+001
  0.95091000000E+005,  0.48270235703E+006,  0.16500000000E+002,  0.00000000000E+000,  0.10000000000E+001
  0.95101000000E+005,  0.48270235694E+006,  0.16500000000E+002,  0.00000000000E+000,  0.10000000000E+001
  0.95111000000E+005,  0.48270235685E+006,  0.16500000000E+002,  0.00000000000E+000,  0.10000000000E+001
  0.95121000000E+005,  0.48270235677E+006,  0.16500000000E+002,  0.00000000000E+000,  0.10000000000E+001
  0.95131000000E+005,  0.48270235669E+006,  0.16500000000E+002,  0.00000000000E+000,  0.10000000000E+001
  0.95141000000E+005,  0.48270235661E+006,  0.16500000000E+002,  0.00000000000E+000,  0.10000000000E+001
  0.95151000000E+005,  0.48270235654E+006,  0.16500000000E+002,  0.00000000000E+000,  0.10000000000E+001
  0.95161000000E+005,  0.48270235647E+006,  0.16500000000E+002,  0.00000000000E+000,  0.10000000000E+001
  0.95171000000E+005,  0.48270235641E+006,  0.16500000000E+002,  0.00000000000E+000,  0.10000000000E+001
  0.95181000000E+005,  0.48270235635E+006,  0.16500000000E+002,  0.00000000000E+000,  0.10000000000E+001
  0.95191000000E+005,  0.48270235629E+006,  0.16500000000E+002,  0.00000000000E+000,  0.10000000000E+001
  0.95201000000E+005,  0.48270235624E+006,  0.16500000000E+002,  0.00000000000E+000,  0.10000000000E+001
  0.95211000000E+005,  0.48270235619E+006,  0.16500000000E+002,  0.00000000000E+000,  0.10000000000E+001
  0.95221000000E+005,  0.48270235614E+006,  0.16500000000E+002,  0.00000000000E+000,  0.10000000000E+001
  0.95231000000E+005,  0.48270235609E+006,  0.16500000000E+002,  0.00000000000E+000,  0.10000000000E+001
  0.95241000000E+005,  0.48270235605E+006,  0.16500000000E+002,  0.00000000000E+000,  0.10000000000E+001
  0.95251000000E+005,  0.48270235601E+006,  0.16500000000E+002,  0.00000000000E+000,  0.10000000000E+001
  0.95261000000E+005,  0.48270235597E+006,  0.16500000000E+002,  0.00000000000E+000,  0.10000000000E+001
  0.95271000000E+005,  0.48270235594E+006,  0.16500000000E+002,  0.00000000000E+000,  0.10000000000E+001
  0.95281000000E+005,  0.48270235591E+006,  0.16500000000E+002,  0.00000000000E+000,  0.10000000000E+001
  0.95291000000E+005,  0.48270235588E+006,  0.16500000000E+002,  0.00000000000E+000,  0.10000000000E+001
  0.95301000000E+005,  0.48270235585E+006,  0.16500000000E+002,  0.00000000000E+000,  0.10000000000E+001
  0.95311000000E+005,  0.48270235583E+006,  0.16500000000E+002,  0.00000000000E+000,  0.10000000000E+001
  0.95321000000E+005,  0.48270235580E+006,  0.16500000000E+002,  0.00000000000E+000,  0.10000000000E+001
  0.95331000000E+005,  0.48270235578E+006,  0.16500000000E+002,  0.00000000000E+000,  0.10000000000E+001
  0.95341000000E+005,  0.48270235577E+006,  0.16500000000E+002,  0.00000000000E+000,  0.10000000000E+001
  0.95351000000E+005,  0.48270235575E+006,  0.16500000000E+002,  0.00000000000E+000,  0.10000000000E+001
  0.95361000000E+005,  0.48270235574E+006,  0.16500000000E+002,  0.00000000000E+000,  0.10000000000E+001
  0.95371000000E+005,  0.48270235573E+006,  0.16500000000E+002,  0.00000000000E+000,  0.10000000000E+001
  0.95381000000E+005,  0.48270235573E+006,  0.16500000000E+002,  0.00000000000E+000,  0.10000000000E+001
  0.95391000000E+005,  0.48270235572E+006,  0.16500000000E+002,  0.00000000000E+000,  0.10000000000E+001
  0.95401000000E+005,  0.48270235573E+006,  0.16500000000E+002,  0.00000000000E+000,  0.10000000000E+001
  0.95411000000E+005,  0.48270235573E+006,  0.16500000000E+002,  0.00000000000E+000,  0.10000000000E+001
  0.95421000000E+005,  0.48270235575E+006,  0.16500000000E+002,  0.00000000000E+000,  0.10000000000E+001
  0.95431000000E+005,  0.48270235576E+006,  0.16500000000E+002,  0.00000000000E+000,  0.10000000000E+001
  0.95441000000E+005,  0.48270235579E+006,  0.16500000000E+002,  0.00000000000E+000,  0.10000000000E+001
  0.95451000000E+005,  0.48270235582E+006,  0.16500000000E+002,  0.00000000000E+000,  0.10000000000E+001
  0.95461000000E+005,  0.48270235586E+006,  0.16500000000E+002,  0.00000000000E+000,  0.10000000000E+001
  0.95471000000E+005,  0.48270235592E+006,  0.16500000000E+002,  0.00000000000E+000,  0.10000000000E+001
  0.95481000000E+005,  0.48270235598E+006,  0.16500000000E+002,  0.00000000000E+000,  0.10000000000E+001
  0.95491000000E+005,  0.48270235606E+006,  0.16500000000E+002,  0.00000000000E+000,  0.10000000000E+001
  0.95501000000E+005,  0.48270235615E+006,  0.16500000000E+002,  0.00000000000E+000,  0.10000000000E+001
  0.95511000000E+005,  0.48270235627E+006,  0.16500000000E+002,  0.00000000000E+000,  0.10000000000E+001
  0.95521000000E+005,  0.48270235640E+006,  0.16500000000E+002,  0.00000000000E+000,  0.10000000000E+001
  0.95531000000E+005,  0.48270235656E+006,  0.16500000000E+002,  0.00000000000E+000,  0.10000000000E+001
  0.95541000000E+005,  0.48270235675E+006,  0.16500000000E+002,  0.00000000000E+000,  0.10000000000E+001
  0.95551000000E+005,  0.48270235697E+006,  0.16500000000E+002,  0.00000000000E+000,  0.10000000000E+001
  0.95561000000E+005,  0.48270235723E+006,  0.16500000000E+002,  0.00000000000E+000,  0.10000000000E+001
  0.95571000000E+005,  0.48270235753E+006,  0.16500000000E+002,  0.00000000000E+000,  0.10000000000E+001
  0.95581000000E+005,  0.48270235788E+006,  0.16500000000E+002,  0.00000000000E+000,  0.10000000000E+001
  0.95591000000E+005,  0.48270235828E+006,  0.16500000000E+002,  0.00000000000E+000,  0.10000000000E+001
  0.95601000000E+005,  0.48270235875E+006,  0.16500000000E+002,  0.00000000000E+000,  0.10000000000E+001
  0.95611000000E+005,  0.48270235929E+006,  0.16500000000E+002,  0.00000000000E+000,  0.10000000000E+001
  0.95621000000E+005,  0.48270235991E+006,  0.16500000000E+002,  0.00000000000E+000,  0.10000000000E+001
  0.95631000000E+005,  0.48270236063E+006,  0.16500000000E+002,  0.00000000000E+000,  0.10000000000E+001
  0.95641000000E+005,  0.48270236144E+006,  0.16500000000E+002,  0.00000000000E+000,  0.10000000000E+001
  0.95651000000E+005,  0.48270236237E+006,  0.16500000000E+002,  0.00000000000E+000,  0.10000000000E+001
  0.95661000000E+005,  0.48270236343E+006,  0.16500000000E+002,  0.00000000000E+000,  0.10000000000E+001
  0.95671000000E+005,  0.48270236463E+006,  0.16500000000E+002,  0.00000000000E+000,  0.10000000000E+001
  0.95681000000E+005,  0.48270236599E+006,  0.16500000000E+002,  0.00000000000E+000,  0.10000000000E+001
  0.95691000000E+005,  0.48270236753E+006,  0.16500000000E+002,  0.00000000000E+000,  0.10000000000E+001
  0.95701000000E+005,  0.48270236927E+006,  0.16500000000E+002,  0.00000000000E+000,  0.10000000000E+001
  0.95711000000E+005,  0.48270237123E+006,  0.16500000000E+002,  0.00000000000E+000,  0.10000000000E+001
  0.95721000000E+005,  0.48270237343E+006,  0.16500000000E+002,  0.00000000000E+000,  0.10000000000E+001
  0.95731000000E+005,  0.48270237591E+006,  0.16500000000E+002,  0.00000000000E+000,  0.10000000000E+001
  0.95741000000E+005,  0.48270237868E+006,  0.16500000000E+002,  0.00000000000E+000,  0.10000000000E+001
  0.95751000000E+005,  0.48270238178E+006,  0.16500000000E+002,  0.00000000000E+000,  0.10000000000E+001
  0.95761000000E+005,  0.48270238524E+006,  0.16500000000E+002,  0.00000000000E+000,  0.10000000000E+001
  0.95771000000E+005,  0.48270238909E+006,  0.16500000000E+002,  0.00000000000E+000,  0.10000000000E+001
  0.95781000000E+005,  0.48270239337E+006,  0.16500000000E+002,  0.00000000000E+000,  0.10000000000E+001
  0.95791000000E+005,  0.48270239813E+006,  0.16500000000E+002,  0.00000000000E+000,  0.10000000000E+001
  0.95801000000E+005,  0.48270240341E+006,  0.16500000000E+002,  0.00000000000E+000,  0.10000000000E+001
  0.95811000000E+005,  0.48270240925E+006,  0.16500000000E+002,  0.00000000000E+000,  0.10000000000E+001
  0.95821000000E+005,  0.48270241571E+006,  0.16500000000E+002,  0.00000000000E+000,  0.10000000000E+001
  0.95831000000E+005,  0.48270242283E+006,  0.16500000000E+002,  0.00000000000E+000,  0.10000000000E+001
  0.95841000000E+005,  0.48270243068E+006,  0.16500000000E+002,  0.00000000000E+000,  0.10000000000E+001
  0.95851000000E+005,  0.48270243931E+006,  0.16500000000E+002,  0.00000000000E+000,  0.10000000000E+001
  0.95861000000E+005,  0.48270244879E+006,  0.16500000000E+002,  0.00000000000E+000,  0.10000000000E+001
  0.95871000000E+005,  0.48270245920E+006,  0.16500000000E+002,  0.00000000000E+000,  0.10000000000E+001
  0.95881000000E+005,  0.48270247060E+006,  0.16500000000E+002,  0.00000000000E+000,  0.10000000000E+001
  0.95891000000E+005,  0.48270248307E+006,  0.16500000000E+002,  0.00000000000E+000,  0.10000000000E+001
  0.95901000000E+005,  0.48270249670E+006,  0.16500000000E+002,  0.00000000000E+000,  0.10000000000E+001
  0.95911000000E+005,  0.48270251158E+006,  0.16500000000E+002,  0.00000000000E+000,  0.10000000000E+001
  0.95921000000E+005,  0.48270252778E+006,  0.16500000000E+002,  0.00000000000E+000,  0.10000000000E+001
  0.95931000000E+005,  0.48270254543E+006,  0.16500000000E+002,  0.00000000000E+000,  0.10000000000E+001
  0.95941000000E+005,  0.48270256461E+006,  0.16500000000E+002,  0.00000000000E+000,  0.10000000000E+001
  0.95951000000E+005,  0.48270258545E+006,  0.16500000000E+002,  0.00000000000E+000,  0.10000000000E+001
  0.95961000000E+005,  0.48270260804E+006,  0.16500000000E+002,  0.00000000000E+000,  0.10000000000E+001
  0.95971000000E+005,  0.48270263252E+006,  0.16500000000E+002,  0.00000000000E+000,  0.10000000000E+001
  0.95981000000E+005,  0.48270265902E+006,  0.16500000000E+002,  0.00000000000E+000,  0.10000000000E+001
  0.95991000000E+005,  0.48270268766E+006,  0.16500000000E+002,  0.00000000000E+000,  0.10000000000E+001
  0.96001000000E+005,  0.48270271860E+006,  0.16500000000E+002,  0.00000000000E+000,  0.10000000000E+001
  0.96011000000E+005,  0.48270275197E+006,  0.16500000000E+002,  0.00000000000E+000,  0.10000000000E+001
  0.96021000000E+005,  0.48270278793E+006,  0.16500000000E+002,  0.00000000000E+000,  0.10000000000E+001
  0.96031000000E+005,  0.48270282665E+006,  0.16500000000E+002,  0.00000000000E+000,  0.10000000000E+001
  0.96041000000E+005,  0.48270286829E+006,  0.16500000000E+002,  0.00000000000E+000,  0.10000000000E+001
  0.96051000000E+005,  0.48270291303E+006,  0.16500000000E+002,  0.00000000000E+000,  0.10000000000E+001
  0.96061000000E+005,  0.48270296106E+006,  0.16500000000E+002,  0.00000000000E+000,  0.10000000000E+001
  0.96071000000E+005,  0.48270301258E+006,  0.16500000000E+002,  0.00000000000E+000,  0.10000000000E+001
  0.96081000000E+005,  0.48270306777E+006,  0.16500000000E+002,  0.00000000000E+000,  0.10000000000E+001
  0.96091000000E+005,  0.48270312686E+006,  0.16500000000E+002,  0.00000000000E+000,  0.10000000000E+001
  0.96101000000E+005,  0.48270319007E+006,  0.16500000000E+002,  0.00000000000E+000,  0.10000000000E+001
  0.96111000000E+005,  0.48270325761E+006,  0.16500000000E+002,  0.00000000000E+000,  0.10000000000E+001
  0.96121000000E+005,  0.48270332974E+006,  0.16500000000E+002,  0.00000000000E+000,  0.10000000000E+001
  0.96131000000E+005,  0.48270340669E+006,  0.16500000000E+002,  0.00000000000E+000,  0.10000000000E+001
  0.96141000000E+005,  0.48270348872E+006,  0.16500000000E+002,  0.00000000000E+000,  0.10000000000E+001
  0.96151000000E+005,  0.48270357610E+006,  0.16500000000E+002,  0.00000000000E+000,  0.10000000000E+001
  0.96161000000E+005,  0.48270366910E+006,  0.16500000000E+002,  0.00000000000E+000,  0.10000000000E+001
  0.96171000000E+005,  0.48270376802E+006,  0.16500000000E+002,  0.00000000000E+000,  0.10000000000E+001
  0.96181000000E+005,  0.48270387314E+006,  0.16500000000E+002,  0.00000000000E+000,  0.10000000000E+001
  0.96191000000E+005,  0.48270398477E+006,  0.16500000000E+002,  0.00000000000E+000,  0.10000000000E+001
  0.96201000000E+005,  0.48270410323E+006,  0.16500000000E+002,  0.00000000000E+000,  0.10000000000E+001
  0.96211000000E+005,  0.48270422884E+006,  0.16500000000E+002,  0.00000000000E+000,  0.10000000000E+001
  0.96221000000E+005,  0.48270436196E+006,  0.16500000000E+002,  0.00000000000E+000,  0.10000000000E+001
  0.96231000000E+005,  0.48270450292E+006,  0.16500000000E+002,  0.00000000000E+000,  0.10000000000E+001
  0.96241000000E+005,  0.48270465209E+006,  0.16500000000E+002,  0.00000000000E+000,  0.10000000000E+001
  0.96251000000E+005,  0.48270480983E+006,  0.16500000000E+002,  0.00000000000E+000,  0.10000000000E+001
  0.96261000000E+005,  0.48270497655E+006,  0.16500000000E+002,  0.00000000000E+000,  0.10000000000E+001
  0.96271000000E+005,  0.48270515262E+006,  0.16500000000E+002,  0.00000000000E+000,  0.10000000000E+001
  0.96281000000E+005,  0.48270533847E+006,  0.16500000000E+002,  0.00000000000E+000,  0.10000000000E+001
  0.96291000000E+005,  0.48270553450E+006,  0.16500000000E+002,  0.00000000000E+000,  0.10000000000E+001
  0.96301000000E+005,  0.48270574116E+006,  0.16500000000E+002,  0.00000000000E+000,  0.10000000000E+001
  0.96311000000E+005,  0.48270595889E+006,  0.16500000000E+002,  0.00000000000E+000,  0.10000000000E+001
  0.96321000000E+005,  0.48270618814E+006,  0.16500000000E+002,  0.00000000000E+000,  0.10000000000E+001
  0.96331000000E+005,  0.48270642938E+006,  0.16500000000E+002,  0.00000000000E+000,  0.10000000000E+001
  0.96341000000E+005,  0.48270668310E+006,  0.16500000000E+002,  0.00000000000E+000,  0.10000000000E+001
  0.96351000000E+005,  0.48270694980E+006,  0.16500000000E+002,  0.00000000000E+000,  0.10000000000E+001
  0.96361000000E+005,  0.48270722998E+006,  0.16500000000E+002,  0.00000000000E+000,  0.10000000000E+001
  0.96371000000E+005,  0.48270752416E+006,  0.16500000000E+002,  0.00000000000E+000,  0.10000000000E+001
  0.96381000000E+005,  0.48270783289E+006,  0.16500000000E+002,  0.00000000000E+000,  0.10000000000E+001
  0.96391000000E+005,  0.48270815670E+006,  0.16500000000E+002,  0.00000000000E+000,  0.10000000000E+001
  0.96401000000E+005,  0.48270849616E+006,  0.16500000000E+002,  0.00000000000E+000,  0.10000000000E+001
  0.96411000000E+005,  0.48270885185E+006,  0.16500000000E+002,  0.00000000000E+000,  0.10000000000E+001
  0.96421000000E+005,  0.48270922435E+006,  0.16500000000E+002,  0.00000000000E+000,  0.10000000000E+001
  0.96431000000E+005,  0.48270961427E+006,  0.16500000000E+002,  0.00000000000E+000,  0.10000000000E+001
  0.96441000000E+005,  0.48271002222E+006,  0.16500000000E+002,  0.00000000000E+000,  0.10000000000E+001
  0.96451000000E+005,  0.48271044884E+006,  0.16500000000E+002,  0.00000000000E+000,  0.10000000000E+001
  0.96461000000E+005,  0.48271089477E+006,  0.16500000000E+002,  0.00000000000E+000,  0.10000000000E+001
  0.96471000000E+005,  0.48271136066E+006,  0.16500000000E+002,  0.00000000000E+000,  0.10000000000E+001
  0.96481000000E+005,  0.48271184720E+006,  0.16500000000E+002,  0.00000000000E+000,  0.10000000000E+001
  0.96491000000E+005,  0.48271235506E+006,  0.16500000000E+002,  0.00000000000E+000,  0.10000000000E+001
  0.96501000000E+005,  0.48271288495E+006,  0.16500000000E+002,  0.00000000000E+000,  0.10000000000E+001
  0.96511000000E+005,  0.48271343758E+006,  0.16500000000E+002,  0.00000000000E+000,  0.10000000000E+001
  0.96521000000E+005,  0.48271401369E+006,  0.16500000000E+002,  0.00000000000E+000,  0.10000000000E+001
  0.96531000000E+005,  0.48271461402E+006,  0.16500000000E+002,  0.00000000000E+000,  0.10000000000E+001
  0.96541000000E+005,  0.48271523932E+006,  0.16500000000E+002,  0.00000000000E+000,  0.10000000000E+001
  0.96551000000E+005,  0.48271589036E+006,  0.16500000000E+002,  0.00000000000E+000,  0.10000000000E+001
  0.96561000000E+005,  0.48271656795E+006,  0.16500000000E+002,  0.00000000000E+000,  0.10000000000E+001
  0.96571000000E+005,  0.48271727287E+006,  0.16500000000E+002,  0.00000000000E+000,  0.10000000000E+001
  0.96581000000E+005,  0.48271800593E+006,  0.16500000000E+002,  0.00000000000E+000,  0.10000000000E+001
  0.96591000000E+005,  0.48271876799E+006,  0.16500000000E+002,  0.00000000000E+000,  0.10000000000E+001
  0.96601000000E+005,  0.48271955988E+006,  0.16500000000E+002,  0.00000000000E+000,  0.10000000000E+001
  0.96611000000E+005,  0.48272038245E+006,  0.16500000000E+002,  0.00000000000E+000,  0.10000000000E+001
  0.96621000000E+005,  0.48272123659E+006,  0.16500000000E+002,  0.00000000000E+000,  0.10000000000E+001
  0.96631000000E+005,  0.48272212318E+006,  0.16500000000E+002,  0.00000000000E+000,  0.10000000000E+001
  0.96641000000E+005,  0.48272304312E+006,  0.16500000000E+002,  0.00000000000E+000,  0.10000000000E+001
  0.96651000000E+005,  0.48272399734E+006,  0.16500000000E+002,  0.00000000000E+000,  0.10000000000E+001
  0.96661000000E+005,  0.48272498675E+006,  0.16500000000E+002,  0.00000000000E+000,  0.10000000000E+001
  0.96671000000E+005,  0.48272601231E+006,  0.16500000000E+002,  0.00000000000E+000,  0.10000000000E+001
  0.96681000000E+005,  0.48272707501E+006,  0.16500000000E+002,  0.00000000000E+000,  0.10000000000E+001
  0.96691000000E+005,  0.48272817577E+006,  0.16500000000E+002,  0.00000000000E+000,  0.10000000000E+001
  0.96701000000E+005,  0.48272931562E+006,  0.16500000000E+002,  0.00000000000E+000,  0.10000000000E+001
  0.96711000000E+005,  0.48273049554E+006,  0.16500000000E+002,  0.00000000000E+000,  0.10000000000E+001
  0.96721000000E+005,  0.48273171657E+006,  0.16500000000E+002,  0.00000000000E+000,  0.10000000000E+001
  0.96731000000E+005,  0.48273297973E+006,  0.16500000000E+002,  0.00000000000E+000,  0.10000000000E+001
