"           TIME(S)","              PRES","              TEMP","             SAT_G","             SAT_L"
  0.17593600000E+008,  0.20991877576E+007,  0.19000000000E+002,  0.00000000000E+000,  0.10000000000E+001
  0.17601100000E+008,  0.20732062038E+007,  0.19000000000E+002,  0.00000000000E+000,  0.10000000000E+001
  0.17616100000E+008,  0.20394473414E+007,  0.19000000000E+002,  0.00000000000E+000,  0.10000000000E+001
  0.17631100000E+008,  0.20216978391E+007,  0.19000000000E+002,  0.00000000000E+000,  0.10000000000E+001
  0.17646100000E+008,  0.20122622946E+007,  0.19000000000E+002,  0.00000000000E+000,  0.10000000000E+001
  0.17661100000E+008,  0.20072265475E+007,  0.19000000000E+002,  0.00000000000E+000,  0.10000000000E+001
  0.17676100000E+008,  0.20045368208E+007,  0.19000000000E+002,  0.00000000000E+000,  0.10000000000E+001
  0.17691100000E+008,  0.20030998842E+007,  0.19000000000E+002,  0.00000000000E+000,  0.10000000000E+001
  0.17706100000E+008,  0.20023321813E+007,  0.19000000000E+002,  0.00000000000E+000,  0.10000000000E+001
  0.17721100000E+008,  0.20019220163E+007,  0.19000000000E+002,  0.00000000000E+000,  0.10000000000E+001
  0.17736100000E+008,  0.20017028731E+007,  0.19000000000E+002,  0.00000000000E+000,  0.10000000000E+001
  0.17751100000E+008,  0.20015857886E+007,  0.19000000000E+002,  0.00000000000E+000,  0.10000000000E+001
  0.17766100000E+008,  0.20015232326E+007,  0.19000000000E+002,  0.00000000000E+000,  0.10000000000E+001
  0.17781100000E+008,  0.20014898094E+007,  0.19000000000E+002,  0.00000000000E+000,  0.10000000000E+001
  0.17796100000E+008,  0.20014719520E+007,  0.19000000000E+002,  0.00000000000E+000,  0.10000000000E+001
  0.17811100000E+008,  0.20014624111E+007,  0.19000000000E+002,  0.00000000000E+000,  0.10000000000E+001
  0.17826100000E+008,  0.20014573135E+007,  0.19000000000E+002,  0.00000000000E+000,  0.10000000000E+001
  0.17841100000E+008,  0.20014545899E+007,  0.19000000000E+002,  0.00000000000E+000,  0.10000000000E+001
  0.17856100000E+008,  0.20014545899E+007,  0.19000000000E+002,  0.00000000000E+000,  0.10000000000E+001
  0.17871100000E+008,  0.20015578798E+007,  0.19000000000E+002,  0.00000000000E+000,  0.10000000000E+001
  0.17886100000E+008,  0.20015889661E+007,  0.19000000000E+002,  0.00000000000E+000,  0.10000000000E+001
  0.17901100000E+008,  0.20016024799E+007,  0.19000000000E+002,  0.00000000000E+000,  0.10000000000E+001
  0.17916100000E+008,  0.20016503839E+007,  0.19000000000E+002,  0.00000000000E+000,  0.10000000000E+001
  0.17931100000E+008,  0.20017216561E+007,  0.19000000000E+002,  0.00000000000E+000,  0.10000000000E+001
  0.17946100000E+008,  0.20017389878E+007,  0.19000000000E+002,  0.00000000000E+000,  0.10000000000E+001
  0.17961100000E+008,  0.20017450935E+007,  0.19000000000E+002,  0.00000000000E+000,  0.10000000000E+001
  0.17976100000E+008,  0.20017442260E+007,  0.19000000000E+002,  0.00000000000E+000,  0.10000000000E+001
  0.17991100000E+008,  0.20017413422E+007,  0.19000000000E+002,  0.00000000000E+000,  0.10000000000E+001
  0.18006100000E+008,  0.20017373894E+007,  0.19000000000E+002,  0.00000000000E+000,  0.10000000000E+001
  0.18021100000E+008,  0.20017339123E+007,  0.19000000000E+002,  0.00000000000E+000,  0.10000000000E+001
  0.18036100000E+008,  0.20017313288E+007,  0.19000000000E+002,  0.00000000000E+000,  0.10000000000E+001
  0.18051100000E+008,  0.20017272781E+007,  0.19000000000E+002,  0.00000000000E+000,  0.10000000000E+001
  0.18066100000E+008,  0.20017230738E+007,  0.19000000000E+002,  0.00000000000E+000,  0.10000000000E+001
  0.18081100000E+008,  0.20018097943E+007,  0.19000000000E+002,  0.00000000000E+000,  0.10000000000E+001
  0.18096100000E+008,  0.20018453075E+007,  0.19000000000E+002,  0.00000000000E+000,  0.10000000000E+001
  0.18111100000E+008,  0.20018535218E+007,  0.19000000000E+002,  0.00000000000E+000,  0.10000000000E+001
  0.18126100000E+008,  0.20018936659E+007,  0.19000000000E+002,  0.00000000000E+000,  0.10000000000E+001
  0.18141100000E+008,  0.20019979315E+007,  0.19000000000E+002,  0.00000000000E+000,  0.10000000000E+001
  0.18156100000E+008,  0.20020149062E+007,  0.19000000000E+002,  0.00000000000E+000,  0.10000000000E+001
  0.18171100000E+008,  0.20020161334E+007,  0.19000000000E+002,  0.00000000000E+000,  0.10000000000E+001
  0.18186100000E+008,  0.20020136083E+007,  0.19000000000E+002,  0.00000000000E+000,  0.10000000000E+001
  0.18201100000E+008,  0.20020056800E+007,  0.19000000000E+002,  0.00000000000E+000,  0.10000000000E+001
  0.18216100000E+008,  0.20019948713E+007,  0.19000000000E+002,  0.00000000000E+000,  0.10000000000E+001
  0.18231100000E+008,  0.20019847541E+007,  0.19000000000E+002,  0.00000000000E+000,  0.10000000000E+001
  0.18246100000E+008,  0.20019784171E+007,  0.19000000000E+002,  0.00000000000E+000,  0.10000000000E+001
  0.18261100000E+008,  0.20021401105E+007,  0.19000000000E+002,  0.00000000000E+000,  0.10000000000E+001
  0.18276100000E+008,  0.20028015351E+007,  0.19000000000E+002,  0.00000000000E+000,  0.10000000000E+001
  0.18291100000E+008,  0.20030762651E+007,  0.19000000000E+002,  0.00000000000E+000,  0.10000000000E+001
  0.18306100000E+008,  0.20032567497E+007,  0.19000000000E+002,  0.00000000000E+000,  0.10000000000E+001
  0.18321100000E+008,  0.20033860334E+007,  0.19000000000E+002,  0.00000000000E+000,  0.10000000000E+001
  0.18336100000E+008,  0.20034934265E+007,  0.19000000000E+002,  0.00000000000E+000,  0.10000000000E+001
  0.18351100000E+008,  0.20036023216E+007,  0.19000000000E+002,  0.00000000000E+000,  0.10000000000E+001
  0.18366100000E+008,  0.20036922166E+007,  0.19000000000E+002,  0.00000000000E+000,  0.10000000000E+001
  0.18381100000E+008,  0.20037755557E+007,  0.19000000000E+002,  0.00000000000E+000,  0.10000000000E+001
  0.18396100000E+008,  0.20038819710E+007,  0.19000000000E+002,  0.00000000000E+000,  0.10000000000E+001
  0.18411100000E+008,  0.20039852333E+007,  0.19000000000E+002,  0.00000000000E+000,  0.10000000000E+001
  0.18426100000E+008,  0.20040731705E+007,  0.19000000000E+002,  0.00000000000E+000,  0.10000000000E+001
  0.18441100000E+008,  0.20041594846E+007,  0.19000000000E+002,  0.00000000000E+000,  0.10000000000E+001
  0.18456100000E+008,  0.20042713550E+007,  0.19000000000E+002,  0.00000000000E+000,  0.10000000000E+001
  0.18471100000E+008,  0.20043617404E+007,  0.19000000000E+002,  0.00000000000E+000,  0.10000000000E+001
  0.18486100000E+008,  0.20044469545E+007,  0.19000000000E+002,  0.00000000000E+000,  0.10000000000E+001
  0.18501100000E+008,  0.20045497482E+007,  0.19000000000E+002,  0.00000000000E+000,  0.10000000000E+001
  0.18516100000E+008,  0.20046540566E+007,  0.19000000000E+002,  0.00000000000E+000,  0.10000000000E+001
  0.18531100000E+008,  0.20047439744E+007,  0.19000000000E+002,  0.00000000000E+000,  0.10000000000E+001
  0.18546100000E+008,  0.20048308493E+007,  0.19000000000E+002,  0.00000000000E+000,  0.10000000000E+001
  0.18561100000E+008,  0.20049626275E+007,  0.19000000000E+002,  0.00000000000E+000,  0.10000000000E+001
  0.18576100000E+008,  0.20050618117E+007,  0.19000000000E+002,  0.00000000000E+000,  0.10000000000E+001
  0.18591100000E+008,  0.20051532495E+007,  0.19000000000E+002,  0.00000000000E+000,  0.10000000000E+001
  0.18606100000E+008,  0.20052528999E+007,  0.19000000000E+002,  0.00000000000E+000,  0.10000000000E+001
  0.18621100000E+008,  0.20053548179E+007,  0.19000000000E+002,  0.00000000000E+000,  0.10000000000E+001
  0.18636100000E+008,  0.20054455559E+007,  0.19000000000E+002,  0.00000000000E+000,  0.10000000000E+001
  0.18651100000E+008,  0.20055326596E+007,  0.19000000000E+002,  0.00000000000E+000,  0.10000000000E+001
  0.18666100000E+008,  0.20056944287E+007,  0.19000000000E+002,  0.00000000000E+000,  0.10000000000E+001
  0.18681100000E+008,  0.20058088468E+007,  0.19000000000E+002,  0.00000000000E+000,  0.10000000000E+001
  0.18696100000E+008,  0.20059094865E+007,  0.19000000000E+002,  0.00000000000E+000,  0.10000000000E+001
  0.18698900000E+008,  0.20059374025E+007,  0.19000000000E+002,  0.00000000000E+000,  0.10000000000E+001
  0.18713900000E+008,  0.20060486614E+007,  0.19000000000E+002,  0.00000000000E+000,  0.10000000000E+001
  0.18728900000E+008,  0.20061622159E+007,  0.19000000000E+002,  0.00000000000E+000,  0.10000000000E+001
  0.18743900000E+008,  0.20062698307E+007,  0.19000000000E+002,  0.00000000000E+000,  0.10000000000E+001
  0.18758900000E+008,  0.20063810306E+007,  0.19000000000E+002,  0.00000000000E+000,  0.10000000000E+001
  0.18773900000E+008,  0.20065234399E+007,  0.19000000000E+002,  0.00000000000E+000,  0.10000000000E+001
  0.18788900000E+008,  0.20066333286E+007,  0.19000000000E+002,  0.00000000000E+000,  0.10000000000E+001
  0.18803900000E+008,  0.20067338215E+007,  0.19000000000E+002,  0.00000000000E+000,  0.10000000000E+001
  0.18818900000E+008,  0.20068630271E+007,  0.19000000000E+002,  0.00000000000E+000,  0.10000000000E+001
  0.18833900000E+008,  0.20069951783E+007,  0.19000000000E+002,  0.00000000000E+000,  0.10000000000E+001
  0.18848900000E+008,  0.20071036436E+007,  0.19000000000E+002,  0.00000000000E+000,  0.10000000000E+001
  0.18863900000E+008,  0.20072062439E+007,  0.19000000000E+002,  0.00000000000E+000,  0.10000000000E+001
  0.18878900000E+008,  0.20073795219E+007,  0.19000000000E+002,  0.00000000000E+000,  0.10000000000E+001
  0.18893900000E+008,  0.20075028317E+007,  0.19000000000E+002,  0.00000000000E+000,  0.10000000000E+001
  0.18908900000E+008,  0.20076122362E+007,  0.19000000000E+002,  0.00000000000E+000,  0.10000000000E+001
  0.18923900000E+008,  0.20077555913E+007,  0.19000000000E+002,  0.00000000000E+000,  0.10000000000E+001
  0.18938900000E+008,  0.20079123357E+007,  0.19000000000E+002,  0.00000000000E+000,  0.10000000000E+001
  0.18953900000E+008,  0.20080338593E+007,  0.19000000000E+002,  0.00000000000E+000,  0.10000000000E+001
  0.18968900000E+008,  0.20081436465E+007,  0.19000000000E+002,  0.00000000000E+000,  0.10000000000E+001
  0.18983900000E+008,  0.20083471910E+007,  0.19000000000E+002,  0.00000000000E+000,  0.10000000000E+001
  0.18998900000E+008,  0.20084905083E+007,  0.19000000000E+002,  0.00000000000E+000,  0.10000000000E+001
  0.19013900000E+008,  0.20086125337E+007,  0.19000000000E+002,  0.00000000000E+000,  0.10000000000E+001
  0.19028900000E+008,  0.20087516165E+007,  0.19000000000E+002,  0.00000000000E+000,  0.10000000000E+001
  0.19043900000E+008,  0.20089044685E+007,  0.19000000000E+002,  0.00000000000E+000,  0.10000000000E+001
  0.19058900000E+008,  0.20090275707E+007,  0.19000000000E+002,  0.00000000000E+000,  0.10000000000E+001
  0.19073900000E+008,  0.20091401813E+007,  0.19000000000E+002,  0.00000000000E+000,  0.10000000000E+001
  0.19088900000E+008,  0.20093523640E+007,  0.19000000000E+002,  0.00000000000E+000,  0.10000000000E+001
  0.19103900000E+008,  0.20095100433E+007,  0.19000000000E+002,  0.00000000000E+000,  0.10000000000E+001
  0.19118900000E+008,  0.20096406353E+007,  0.19000000000E+002,  0.00000000000E+000,  0.10000000000E+001
  0.19133900000E+008,  0.20097915444E+007,  0.19000000000E+002,  0.00000000000E+000,  0.10000000000E+001
  0.19148900000E+008,  0.20099730026E+007,  0.19000000000E+002,  0.00000000000E+000,  0.10000000000E+001
  0.19163900000E+008,  0.20101111274E+007,  0.19000000000E+002,  0.00000000000E+000,  0.10000000000E+001
  0.19178900000E+008,  0.20102340728E+007,  0.19000000000E+002,  0.00000000000E+000,  0.10000000000E+001
  0.19193900000E+008,  0.20104577576E+007,  0.19000000000E+002,  0.00000000000E+000,  0.10000000000E+001
  0.19208900000E+008,  0.20106346805E+007,  0.19000000000E+002,  0.00000000000E+000,  0.10000000000E+001
  0.19223900000E+008,  0.20107766922E+007,  0.19000000000E+002,  0.00000000000E+000,  0.10000000000E+001
  0.19238900000E+008,  0.20109282419E+007,  0.19000000000E+002,  0.00000000000E+000,  0.10000000000E+001
  0.19253900000E+008,  0.20111132645E+007,  0.19000000000E+002,  0.00000000000E+000,  0.10000000000E+001
  0.19268900000E+008,  0.20112560186E+007,  0.19000000000E+002,  0.00000000000E+000,  0.10000000000E+001
  0.19283900000E+008,  0.20113833585E+007,  0.19000000000E+002,  0.00000000000E+000,  0.10000000000E+001
  0.19298900000E+008,  0.20116295828E+007,  0.19000000000E+002,  0.00000000000E+000,  0.10000000000E+001
  0.19313900000E+008,  0.20118350215E+007,  0.19000000000E+002,  0.00000000000E+000,  0.10000000000E+001
  0.19328900000E+008,  0.20119928437E+007,  0.19000000000E+002,  0.00000000000E+000,  0.10000000000E+001
  0.19343900000E+008,  0.20121669951E+007,  0.19000000000E+002,  0.00000000000E+000,  0.10000000000E+001
  0.19358900000E+008,  0.20124255912E+007,  0.19000000000E+002,  0.00000000000E+000,  0.10000000000E+001
  0.19373900000E+008,  0.20126043670E+007,  0.19000000000E+002,  0.00000000000E+000,  0.10000000000E+001
  0.19388900000E+008,  0.20127544540E+007,  0.19000000000E+002,  0.00000000000E+000,  0.10000000000E+001
  0.19403900000E+008,  0.20088153083E+007,  0.19000000000E+002,  0.00000000000E+000,  0.10000000000E+001
  0.19418900000E+008,  0.20055042284E+007,  0.19000000000E+002,  0.00000000000E+000,  0.10000000000E+001
  0.19433900000E+008,  0.20039272729E+007,  0.19000000000E+002,  0.00000000000E+000,  0.10000000000E+001
  0.19448900000E+008,  0.20030145746E+007,  0.19000000000E+002,  0.00000000000E+000,  0.10000000000E+001
  0.19463900000E+008,  0.20023358309E+007,  0.19000000000E+002,  0.00000000000E+000,  0.10000000000E+001
  0.19478900000E+008,  0.20019660436E+007,  0.19000000000E+002,  0.00000000000E+000,  0.10000000000E+001
  0.19493900000E+008,  0.20017525824E+007,  0.19000000000E+002,  0.00000000000E+000,  0.10000000000E+001
  0.19508900000E+008,  0.20017379418E+007,  0.19000000000E+002,  0.00000000000E+000,  0.10000000000E+001
  0.19523900000E+008,  0.20017710026E+007,  0.19000000000E+002,  0.00000000000E+000,  0.10000000000E+001
  0.19538900000E+008,  0.20017781116E+007,  0.19000000000E+002,  0.00000000000E+000,  0.10000000000E+001
  0.19553900000E+008,  0.20017614812E+007,  0.19000000000E+002,  0.00000000000E+000,  0.10000000000E+001
  0.19568900000E+008,  0.20016038412E+007,  0.19000000000E+002,  0.00000000000E+000,  0.10000000000E+001
  0.19583900000E+008,  0.20015371850E+007,  0.19000000000E+002,  0.00000000000E+000,  0.10000000000E+001
  0.19598900000E+008,  0.20015011538E+007,  0.19000000000E+002,  0.00000000000E+000,  0.10000000000E+001
  0.19613900000E+008,  0.20015052142E+007,  0.19000000000E+002,  0.00000000000E+000,  0.10000000000E+001
  0.19628900000E+008,  0.20015213908E+007,  0.19000000000E+002,  0.00000000000E+000,  0.10000000000E+001
  0.19643900000E+008,  0.20015273836E+007,  0.19000000000E+002,  0.00000000000E+000,  0.10000000000E+001
  0.19658900000E+008,  0.20015418246E+007,  0.19000000000E+002,  0.00000000000E+000,  0.10000000000E+001
  0.19673900000E+008,  0.20017499522E+007,  0.19000000000E+002,  0.00000000000E+000,  0.10000000000E+001
  0.19688900000E+008,  0.20018378682E+007,  0.19000000000E+002,  0.00000000000E+000,  0.10000000000E+001
  0.19703900000E+008,  0.20018854637E+007,  0.19000000000E+002,  0.00000000000E+000,  0.10000000000E+001
  0.19718900000E+008,  0.20017797792E+007,  0.19000000000E+002,  0.00000000000E+000,  0.10000000000E+001
  0.19733900000E+008,  0.20016173123E+007,  0.19000000000E+002,  0.00000000000E+000,  0.10000000000E+001
  0.19748900000E+008,  0.20015453292E+007,  0.19000000000E+002,  0.00000000000E+000,  0.10000000000E+001
  0.19763900000E+008,  0.20015059798E+007,  0.19000000000E+002,  0.00000000000E+000,  0.10000000000E+001
  0.19778900000E+008,  0.20015044056E+007,  0.19000000000E+002,  0.00000000000E+000,  0.10000000000E+001
  0.19793900000E+008,  0.20015002920E+007,  0.19000000000E+002,  0.00000000000E+000,  0.10000000000E+001
  0.19805800000E+008,  0.20014978188E+007,  0.19000000000E+002,  0.00000000000E+000,  0.10000000000E+001
  0.19820800000E+008,  0.20014906411E+007,  0.19000000000E+002,  0.00000000000E+000,  0.10000000000E+001
  0.19835800000E+008,  0.20014712342E+007,  0.19000000000E+002,  0.00000000000E+000,  0.10000000000E+001
  0.19850800000E+008,  0.20014626599E+007,  0.19000000000E+002,  0.00000000000E+000,  0.10000000000E+001
  0.19865800000E+008,  0.20014579673E+007,  0.19000000000E+002,  0.00000000000E+000,  0.10000000000E+001
  0.19880800000E+008,  0.20015935869E+007,  0.19000000000E+002,  0.00000000000E+000,  0.10000000000E+001
  0.19895800000E+008,  0.20017036784E+007,  0.19000000000E+002,  0.00000000000E+000,  0.10000000000E+001
  0.19910800000E+008,  0.20017564911E+007,  0.19000000000E+002,  0.00000000000E+000,  0.10000000000E+001
  0.19925800000E+008,  0.20017899947E+007,  0.19000000000E+002,  0.00000000000E+000,  0.10000000000E+001
  0.19940800000E+008,  0.20018262030E+007,  0.19000000000E+002,  0.00000000000E+000,  0.10000000000E+001
  0.19955800000E+008,  0.20018444735E+007,  0.19000000000E+002,  0.00000000000E+000,  0.10000000000E+001
  0.19970800000E+008,  0.20018548843E+007,  0.19000000000E+002,  0.00000000000E+000,  0.10000000000E+001
  0.19985800000E+008,  0.20017212659E+007,  0.19000000000E+002,  0.00000000000E+000,  0.10000000000E+001
  0.20000800000E+008,  0.20015922189E+007,  0.19000000000E+002,  0.00000000000E+000,  0.10000000000E+001
  0.20015800000E+008,  0.20015317535E+007,  0.19000000000E+002,  0.00000000000E+000,  0.10000000000E+001
  0.20030800000E+008,  0.20014982084E+007,  0.19000000000E+002,  0.00000000000E+000,  0.10000000000E+001
  0.20045800000E+008,  0.20014788359E+007,  0.19000000000E+002,  0.00000000000E+000,  0.10000000000E+001
  0.20060800000E+008,  0.20014675162E+007,  0.19000000000E+002,  0.00000000000E+000,  0.10000000000E+001
  0.20075800000E+008,  0.20014608814E+007,  0.19000000000E+002,  0.00000000000E+000,  0.10000000000E+001
  0.20090800000E+008,  0.20015585688E+007,  0.19000000000E+002,  0.00000000000E+000,  0.10000000000E+001
  0.20105800000E+008,  0.20016684515E+007,  0.19000000000E+002,  0.00000000000E+000,  0.10000000000E+001
  0.20120800000E+008,  0.20017192283E+007,  0.19000000000E+002,  0.00000000000E+000,  0.10000000000E+001
  0.20135800000E+008,  0.20017370627E+007,  0.19000000000E+002,  0.00000000000E+000,  0.10000000000E+001
  0.20150800000E+008,  0.20015879685E+007,  0.19000000000E+002,  0.00000000000E+000,  0.10000000000E+001
  0.20165800000E+008,  0.20015277031E+007,  0.19000000000E+002,  0.00000000000E+000,  0.10000000000E+001
  0.20180800000E+008,  0.20014955791E+007,  0.19000000000E+002,  0.00000000000E+000,  0.10000000000E+001
  0.20195800000E+008,  0.20014772564E+007,  0.19000000000E+002,  0.00000000000E+000,  0.10000000000E+001
  0.20210800000E+008,  0.20014665851E+007,  0.19000000000E+002,  0.00000000000E+000,  0.10000000000E+001
  0.20225800000E+008,  0.20014603351E+007,  0.19000000000E+002,  0.00000000000E+000,  0.10000000000E+001
  0.20240800000E+008,  0.20014566694E+007,  0.19000000000E+002,  0.00000000000E+000,  0.10000000000E+001
  0.20255800000E+008,  0.20014545186E+007,  0.19000000000E+002,  0.00000000000E+000,  0.10000000000E+001
  0.20270800000E+008,  0.20014532565E+007,  0.19000000000E+002,  0.00000000000E+000,  0.10000000000E+001
  0.20285800000E+008,  0.20014525159E+007,  0.19000000000E+002,  0.00000000000E+000,  0.10000000000E+001
  0.20300800000E+008,  0.20015221191E+007,  0.19000000000E+002,  0.00000000000E+000,  0.10000000000E+001
  0.20315800000E+008,  0.20016312525E+007,  0.19000000000E+002,  0.00000000000E+000,  0.10000000000E+001
  0.20330800000E+008,  0.20016804721E+007,  0.19000000000E+002,  0.00000000000E+000,  0.10000000000E+001
  0.20345800000E+008,  0.20017075587E+007,  0.19000000000E+002,  0.00000000000E+000,  0.10000000000E+001
  0.20360800000E+008,  0.20015830251E+007,  0.19000000000E+002,  0.00000000000E+000,  0.10000000000E+001
  0.20375800000E+008,  0.20015234241E+007,  0.19000000000E+002,  0.00000000000E+000,  0.10000000000E+001
  0.20390800000E+008,  0.20014929189E+007,  0.19000000000E+002,  0.00000000000E+000,  0.10000000000E+001
