"           TIME(S)","              PRES","              TEMP","             SAT_G","             SAT_L"
  0.17593600000E+008,  0.21000016484E+007,  0.19000000000E+002,  0.10000000000E+001,  0.00000000000E+000
  0.17601100000E+008,  0.21000086470E+007,  0.19000000000E+002,  0.10000000000E+001,  0.00000000000E+000
  0.17616100000E+008,  0.21000052821E+007,  0.19000000000E+002,  0.10000000000E+001,  0.00000000000E+000
  0.17631100000E+008,  0.20999886135E+007,  0.19000000000E+002,  0.10000000000E+001,  0.00000000000E+000
  0.17646100000E+008,  0.20999662281E+007,  0.19000000000E+002,  0.10000000000E+001,  0.00000000000E+000
  0.17661100000E+008,  0.20999417119E+007,  0.19000000000E+002,  0.10000000000E+001,  0.00000000000E+000
  0.17676100000E+008,  0.20999164082E+007,  0.19000000000E+002,  0.10000000000E+001,  0.00000000000E+000
  0.17691100000E+008,  0.20998933219E+007,  0.19000000000E+002,  0.10000000000E+001,  0.00000000000E+000
  0.17698600042E+008,  0.20998872668E+007,  0.19000000000E+002,  0.10000000000E+001,  0.00000000000E+000
  0.17702350087E+008,  0.20998841028E+007,  0.19000000000E+002,  0.10000000000E+001,  0.00000000000E+000
  0.17717350087E+008,  0.20998774196E+007,  0.19000000000E+002,  0.10000000000E+001,  0.00000000000E+000
  0.17724850123E+008,  0.20998779703E+007,  0.19000000000E+002,  0.10000000000E+001,  0.00000000000E+000
  0.17739850123E+008,  0.20998785746E+007,  0.19000000000E+002,  0.10000000000E+001,  0.00000000000E+000
  0.17754850123E+008,  0.20998788531E+007,  0.19000000000E+002,  0.10000000000E+001,  0.00000000000E+000
  0.17769850123E+008,  0.20998789839E+007,  0.19000000000E+002,  0.10000000000E+001,  0.00000000000E+000
  0.17784850123E+008,  0.20998790456E+007,  0.19000000000E+002,  0.10000000000E+001,  0.00000000000E+000
  0.17799850123E+008,  0.20998790747E+007,  0.19000000000E+002,  0.10000000000E+001,  0.00000000000E+000
  0.17814850123E+008,  0.20998790885E+007,  0.19000000000E+002,  0.10000000000E+001,  0.00000000000E+000
  0.17829850123E+008,  0.20998790950E+007,  0.19000000000E+002,  0.10000000000E+001,  0.00000000000E+000
  0.17844850123E+008,  0.20998790981E+007,  0.19000000000E+002,  0.10000000000E+001,  0.00000000000E+000
  0.17859850123E+008,  0.21006385129E+007,  0.19000000000E+002,  0.10000000000E+001,  0.00000000000E+000
  0.17874850123E+008,  0.21045038965E+007,  0.19000000000E+002,  0.10000000000E+001,  0.00000000000E+000
  0.17889850123E+008,  0.21078125429E+007,  0.19000000000E+002,  0.10000000000E+001,  0.00000000000E+000
  0.17904850123E+008,  0.21111166408E+007,  0.19000000000E+002,  0.10000000000E+001,  0.00000000000E+000
  0.17919850123E+008,  0.21169447061E+007,  0.19000000000E+002,  0.10000000000E+001,  0.00000000000E+000
  0.17934850123E+008,  0.21236596641E+007,  0.19000000000E+002,  0.10000000000E+001,  0.00000000000E+000
  0.17949850123E+008,  0.21301459882E+007,  0.19000000000E+002,  0.10000000000E+001,  0.00000000000E+000
  0.17964850123E+008,  0.21366227327E+007,  0.19000000000E+002,  0.10000000000E+001,  0.00000000000E+000
  0.17979850123E+008,  0.21430491006E+007,  0.19000000000E+002,  0.10000000000E+001,  0.00000000000E+000
  0.17994850123E+008,  0.21494842756E+007,  0.19000000000E+002,  0.10000000000E+001,  0.00000000000E+000
  0.18009850123E+008,  0.21559195548E+007,  0.19000000000E+002,  0.10000000000E+001,  0.00000000000E+000
  0.18024850123E+008,  0.21624258684E+007,  0.19000000000E+002,  0.10000000000E+001,  0.00000000000E+000
  0.18039850123E+008,  0.21689682372E+007,  0.19000000000E+002,  0.10000000000E+001,  0.00000000000E+000
  0.18054850123E+008,  0.21755024900E+007,  0.19000000000E+002,  0.10000000000E+001,  0.00000000000E+000
  0.18069850123E+008,  0.21823621650E+007,  0.19000000000E+002,  0.10000000000E+001,  0.00000000000E+000
  0.18084850123E+008,  0.21939759769E+007,  0.19000000000E+002,  0.10000000000E+001,  0.00000000000E+000
  0.18099850123E+008,  0.22047883981E+007,  0.19000000000E+002,  0.10000000000E+001,  0.00000000000E+000
  0.18114850123E+008,  0.22155945889E+007,  0.19000000000E+002,  0.10000000000E+001,  0.00000000000E+000
  0.18129850123E+008,  0.22301367874E+007,  0.19000000000E+002,  0.10000000000E+001,  0.00000000000E+000
  0.18144850123E+008,  0.22473721886E+007,  0.19000000000E+002,  0.10000000000E+001,  0.00000000000E+000
  0.18159850123E+008,  0.22640613113E+007,  0.19000000000E+002,  0.10000000000E+001,  0.00000000000E+000
  0.18174850123E+008,  0.22807474872E+007,  0.19000000000E+002,  0.10000000000E+001,  0.00000000000E+000
  0.18189850123E+008,  0.22977175172E+007,  0.19000000000E+002,  0.10000000000E+001,  0.00000000000E+000
  0.18204850123E+008,  0.23146422727E+007,  0.19000000000E+002,  0.10000000000E+001,  0.00000000000E+000
  0.18219850123E+008,  0.23315670358E+007,  0.19000000000E+002,  0.10000000000E+001,  0.00000000000E+000
  0.18234850123E+008,  0.23486710441E+007,  0.19000000000E+002,  0.10000000000E+001,  0.00000000000E+000
  0.18249850123E+008,  0.23659486523E+007,  0.19000000000E+002,  0.10000000000E+001,  0.00000000000E+000
  0.18264850123E+008,  0.23831947667E+007,  0.19000000000E+002,  0.10000000000E+001,  0.00000000000E+000
  0.18279850123E+008,  0.24004409850E+007,  0.19000000000E+002,  0.10000000000E+001,  0.00000000000E+000
  0.18294850123E+008,  0.24182210867E+007,  0.19000000000E+002,  0.10000000000E+001,  0.00000000000E+000
  0.18309850123E+008,  0.24359553206E+007,  0.19000000000E+002,  0.10000000000E+001,  0.00000000000E+000
  0.18324850123E+008,  0.24536837860E+007,  0.19000000000E+002,  0.10000000000E+001,  0.00000000000E+000
  0.18339850123E+008,  0.24715346519E+007,  0.19000000000E+002,  0.10000000000E+001,  0.00000000000E+000
  0.18354850123E+008,  0.24895475600E+007,  0.19000000000E+002,  0.10000000000E+001,  0.00000000000E+000
  0.18369850123E+008,  0.25075331129E+007,  0.19000000000E+002,  0.10000000000E+001,  0.00000000000E+000
  0.18384850123E+008,  0.25255187356E+007,  0.19000000000E+002,  0.10000000000E+001,  0.00000000000E+000
  0.18399850123E+008,  0.25440176839E+007,  0.19000000000E+002,  0.10000000000E+001,  0.00000000000E+000
  0.18414850123E+008,  0.25625132094E+007,  0.19000000000E+002,  0.10000000000E+001,  0.00000000000E+000
  0.18429850123E+008,  0.25809979063E+007,  0.19000000000E+002,  0.10000000000E+001,  0.00000000000E+000
  0.18444850123E+008,  0.25996232539E+007,  0.19000000000E+002,  0.10000000000E+001,  0.00000000000E+000
  0.18459850123E+008,  0.26184968516E+007,  0.19000000000E+002,  0.10000000000E+001,  0.00000000000E+000
  0.18474850123E+008,  0.26373318889E+007,  0.19000000000E+002,  0.10000000000E+001,  0.00000000000E+000
  0.18489850123E+008,  0.26561669311E+007,  0.19000000000E+002,  0.10000000000E+001,  0.00000000000E+000
  0.18504850123E+008,  0.26753391245E+007,  0.19000000000E+002,  0.10000000000E+001,  0.00000000000E+000
  0.18519850123E+008,  0.26945428199E+007,  0.19000000000E+002,  0.10000000000E+001,  0.00000000000E+000
  0.18534850123E+008,  0.27137353526E+007,  0.19000000000E+002,  0.10000000000E+001,  0.00000000000E+000
  0.18549850123E+008,  0.27330713948E+007,  0.19000000000E+002,  0.10000000000E+001,  0.00000000000E+000
  0.18564850123E+008,  0.27527621138E+007,  0.19000000000E+002,  0.10000000000E+001,  0.00000000000E+000
  0.18579850123E+008,  0.27724012223E+007,  0.19000000000E+002,  0.10000000000E+001,  0.00000000000E+000
  0.18594850123E+008,  0.27920402496E+007,  0.19000000000E+002,  0.10000000000E+001,  0.00000000000E+000
  0.18609850123E+008,  0.28118600375E+007,  0.19000000000E+002,  0.10000000000E+001,  0.00000000000E+000
  0.18624850123E+008,  0.28317156814E+007,  0.19000000000E+002,  0.10000000000E+001,  0.00000000000E+000
  0.18639850123E+008,  0.28515632997E+007,  0.19000000000E+002,  0.10000000000E+001,  0.00000000000E+000
  0.18654850123E+008,  0.28715683594E+007,  0.19000000000E+002,  0.10000000000E+001,  0.00000000000E+000
  0.18669850123E+008,  0.28921206941E+007,  0.19000000000E+002,  0.10000000000E+001,  0.00000000000E+000
  0.18684850123E+008,  0.29125978801E+007,  0.19000000000E+002,  0.10000000000E+001,  0.00000000000E+000
  0.18698900000E+008,  0.29317777934E+007,  0.19000000000E+002,  0.10000000000E+001,  0.00000000000E+000
  0.18713900000E+008,  0.29524732032E+007,  0.19000000000E+002,  0.10000000000E+001,  0.00000000000E+000
  0.18728900000E+008,  0.29732740726E+007,  0.19000000000E+002,  0.10000000000E+001,  0.00000000000E+000
  0.18743900000E+008,  0.29941318965E+007,  0.19000000000E+002,  0.10000000000E+001,  0.00000000000E+000
  0.18758900000E+008,  0.30150988203E+007,  0.19000000000E+002,  0.10000000000E+001,  0.00000000000E+000
  0.18773900000E+008,  0.30364115291E+007,  0.19000000000E+002,  0.10000000000E+001,  0.00000000000E+000
  0.18788900000E+008,  0.30576785285E+007,  0.19000000000E+002,  0.10000000000E+001,  0.00000000000E+000
  0.18803900000E+008,  0.30789454762E+007,  0.19000000000E+002,  0.10000000000E+001,  0.00000000000E+000
  0.18818900000E+008,  0.31004731699E+007,  0.19000000000E+002,  0.10000000000E+001,  0.00000000000E+000
  0.18833900000E+008,  0.31221730952E+007,  0.19000000000E+002,  0.10000000000E+001,  0.00000000000E+000
  0.18848900000E+008,  0.31438476744E+007,  0.19000000000E+002,  0.10000000000E+001,  0.00000000000E+000
  0.18863900000E+008,  0.31655376202E+007,  0.19000000000E+002,  0.10000000000E+001,  0.00000000000E+000
  0.18878900000E+008,  0.31877842331E+007,  0.19000000000E+002,  0.10000000000E+001,  0.00000000000E+000
  0.18893900000E+008,  0.32099630191E+007,  0.19000000000E+002,  0.10000000000E+001,  0.00000000000E+000
  0.18908900000E+008,  0.32321416277E+007,  0.19000000000E+002,  0.10000000000E+001,  0.00000000000E+000
  0.18923900000E+008,  0.32546091217E+007,  0.19000000000E+002,  0.10000000000E+001,  0.00000000000E+000
  0.18938900000E+008,  0.32773385242E+007,  0.19000000000E+002,  0.10000000000E+001,  0.00000000000E+000
  0.18953900000E+008,  0.33000327018E+007,  0.19000000000E+002,  0.10000000000E+001,  0.00000000000E+000
  0.18968900000E+008,  0.33227268752E+007,  0.19000000000E+002,  0.10000000000E+001,  0.00000000000E+000
  0.18983900000E+008,  0.33460906901E+007,  0.19000000000E+002,  0.10000000000E+001,  0.00000000000E+000
  0.18998900000E+008,  0.33694043775E+007,  0.19000000000E+002,  0.10000000000E+001,  0.00000000000E+000
  0.19013900000E+008,  0.33927146032E+007,  0.19000000000E+002,  0.10000000000E+001,  0.00000000000E+000
  0.19028900000E+008,  0.34162010735E+007,  0.19000000000E+002,  0.10000000000E+001,  0.00000000000E+000
  0.19043900000E+008,  0.34398976129E+007,  0.19000000000E+002,  0.10000000000E+001,  0.00000000000E+000
  0.19058900000E+008,  0.34635679941E+007,  0.19000000000E+002,  0.10000000000E+001,  0.00000000000E+000
  0.19073900000E+008,  0.34872384086E+007,  0.19000000000E+002,  0.10000000000E+001,  0.00000000000E+000
  0.19088900000E+008,  0.35115593709E+007,  0.19000000000E+002,  0.10000000000E+001,  0.00000000000E+000
  0.19103900000E+008,  0.35358798975E+007,  0.19000000000E+002,  0.10000000000E+001,  0.00000000000E+000
  0.19118900000E+008,  0.35601921893E+007,  0.19000000000E+002,  0.10000000000E+001,  0.00000000000E+000
  0.19133900000E+008,  0.35846993748E+007,  0.19000000000E+002,  0.10000000000E+001,  0.00000000000E+000
  0.19148900000E+008,  0.36095214863E+007,  0.19000000000E+002,  0.10000000000E+001,  0.00000000000E+000
  0.19163900000E+008,  0.36343069138E+007,  0.19000000000E+002,  0.10000000000E+001,  0.00000000000E+000
  0.19178900000E+008,  0.36590923127E+007,  0.19000000000E+002,  0.10000000000E+001,  0.00000000000E+000
  0.19193900000E+008,  0.36845038209E+007,  0.19000000000E+002,  0.10000000000E+001,  0.00000000000E+000
  0.19208900000E+008,  0.37099734051E+007,  0.19000000000E+002,  0.10000000000E+001,  0.00000000000E+000
  0.19223900000E+008,  0.37354294720E+007,  0.19000000000E+002,  0.10000000000E+001,  0.00000000000E+000
  0.19238900000E+008,  0.37610238313E+007,  0.19000000000E+002,  0.10000000000E+001,  0.00000000000E+000
  0.19253900000E+008,  0.37869160312E+007,  0.19000000000E+002,  0.10000000000E+001,  0.00000000000E+000
  0.19268900000E+008,  0.38127755933E+007,  0.19000000000E+002,  0.10000000000E+001,  0.00000000000E+000
  0.19283900000E+008,  0.38386351341E+007,  0.19000000000E+002,  0.10000000000E+001,  0.00000000000E+000
  0.19298900000E+008,  0.38651807413E+007,  0.19000000000E+002,  0.10000000000E+001,  0.00000000000E+000
  0.19313900000E+008,  0.38918568317E+007,  0.19000000000E+002,  0.10000000000E+001,  0.00000000000E+000
  0.19328900000E+008,  0.39185121877E+007,  0.19000000000E+002,  0.10000000000E+001,  0.00000000000E+000
  0.19343900000E+008,  0.39453594922E+007,  0.19000000000E+002,  0.10000000000E+001,  0.00000000000E+000
  0.19358900000E+008,  0.39727948646E+007,  0.19000000000E+002,  0.10000000000E+001,  0.00000000000E+000
  0.19373900000E+008,  0.40001693056E+007,  0.19000000000E+002,  0.10000000000E+001,  0.00000000000E+000
  0.19388900000E+008,  0.40275435914E+007,  0.19000000000E+002,  0.10000000000E+001,  0.00000000000E+000
  0.19403900000E+008,  0.40341417801E+007,  0.19000000000E+002,  0.10000000000E+001,  0.00000000000E+000
  0.19418900000E+008,  0.40341590465E+007,  0.19000000000E+002,  0.10000000000E+001,  0.00000000000E+000
  0.19433900000E+008,  0.40350337638E+007,  0.19000000000E+002,  0.10000000000E+001,  0.00000000000E+000
  0.19448900000E+008,  0.40357368411E+007,  0.19000000000E+002,  0.10000000000E+001,  0.00000000000E+000
  0.19463900000E+008,  0.40356578609E+007,  0.19000000000E+002,  0.10000000000E+001,  0.00000000000E+000
  0.19478900000E+008,  0.40356575109E+007,  0.19000000000E+002,  0.10000000000E+001,  0.00000000000E+000
  0.19493900000E+008,  0.40356575073E+007,  0.19000000000E+002,  0.10000000000E+001,  0.00000000000E+000
  0.19508900000E+008,  0.40362182283E+007,  0.19000000000E+002,  0.10000000000E+001,  0.00000000000E+000
  0.19523900000E+008,  0.40370302098E+007,  0.19000000000E+002,  0.10000000000E+001,  0.00000000000E+000
  0.19538900000E+008,  0.40378118451E+007,  0.19000000000E+002,  0.10000000000E+001,  0.00000000000E+000
  0.19553900000E+008,  0.40384950822E+007,  0.19000000000E+002,  0.10000000000E+001,  0.00000000000E+000
  0.19568900000E+008,  0.40384192018E+007,  0.19000000000E+002,  0.10000000000E+001,  0.00000000000E+000
  0.19583900000E+008,  0.40384188661E+007,  0.19000000000E+002,  0.10000000000E+001,  0.00000000000E+000
  0.19598900000E+008,  0.40384188626E+007,  0.19000000000E+002,  0.10000000000E+001,  0.00000000000E+000
  0.19613900000E+008,  0.40385446635E+007,  0.19000000000E+002,  0.10000000000E+001,  0.00000000000E+000
  0.19628900000E+008,  0.40387492059E+007,  0.19000000000E+002,  0.10000000000E+001,  0.00000000000E+000
  0.19643900000E+008,  0.40389447474E+007,  0.19000000000E+002,  0.10000000000E+001,  0.00000000000E+000
  0.19658900000E+008,  0.40391980967E+007,  0.19000000000E+002,  0.10000000000E+001,  0.00000000000E+000
  0.19673900000E+008,  0.40404725270E+007,  0.19000000000E+002,  0.10000000000E+001,  0.00000000000E+000
  0.19688900000E+008,  0.40416461078E+007,  0.19000000000E+002,  0.10000000000E+001,  0.00000000000E+000
  0.19703900000E+008,  0.40428192451E+007,  0.19000000000E+002,  0.10000000000E+001,  0.00000000000E+000
  0.19718900000E+008,  0.40433156642E+007,  0.19000000000E+002,  0.10000000000E+001,  0.00000000000E+000
  0.19733900000E+008,  0.40432538131E+007,  0.19000000000E+002,  0.10000000000E+001,  0.00000000000E+000
  0.19748900000E+008,  0.40432535382E+007,  0.19000000000E+002,  0.10000000000E+001,  0.00000000000E+000
  0.19763900000E+008,  0.40432535353E+007,  0.19000000000E+002,  0.10000000000E+001,  0.00000000000E+000
  0.19778900000E+008,  0.40433605909E+007,  0.19000000000E+002,  0.10000000000E+001,  0.00000000000E+000
  0.19793900000E+008,  0.40434585898E+007,  0.19000000000E+002,  0.10000000000E+001,  0.00000000000E+000
  0.19805800000E+008,  0.40435361871E+007,  0.19000000000E+002,  0.10000000000E+001,  0.00000000000E+000
  0.19820800000E+008,  0.40436072338E+007,  0.19000000000E+002,  0.10000000000E+001,  0.00000000000E+000
  0.19835800000E+008,  0.40435991686E+007,  0.19000000000E+002,  0.10000000000E+001,  0.00000000000E+000
  0.19850800000E+008,  0.40435991329E+007,  0.19000000000E+002,  0.10000000000E+001,  0.00000000000E+000
  0.19865800000E+008,  0.40435991325E+007,  0.19000000000E+002,  0.10000000000E+001,  0.00000000000E+000
  0.19880800000E+008,  0.40443026248E+007,  0.19000000000E+002,  0.10000000000E+001,  0.00000000000E+000
  0.19895800000E+008,  0.40452106744E+007,  0.19000000000E+002,  0.10000000000E+001,  0.00000000000E+000
  0.19910800000E+008,  0.40460915873E+007,  0.19000000000E+002,  0.10000000000E+001,  0.00000000000E+000
  0.19925800000E+008,  0.40469926821E+007,  0.19000000000E+002,  0.10000000000E+001,  0.00000000000E+000
  0.19940800000E+008,  0.40479802836E+007,  0.19000000000E+002,  0.10000000000E+001,  0.00000000000E+000
  0.19955800000E+008,  0.40489592813E+007,  0.19000000000E+002,  0.10000000000E+001,  0.00000000000E+000
  0.19970800000E+008,  0.40499382327E+007,  0.19000000000E+002,  0.10000000000E+001,  0.00000000000E+000
  0.19985800000E+008,  0.40502078056E+007,  0.19000000000E+002,  0.10000000000E+001,  0.00000000000E+000
  0.20000800000E+008,  0.40501704620E+007,  0.19000000000E+002,  0.10000000000E+001,  0.00000000000E+000
  0.20015800000E+008,  0.40501702956E+007,  0.19000000000E+002,  0.10000000000E+001,  0.00000000000E+000
  0.20030800000E+008,  0.40501702938E+007,  0.19000000000E+002,  0.10000000000E+001,  0.00000000000E+000
  0.20045800000E+008,  0.40501702937E+007,  0.19000000000E+002,  0.10000000000E+001,  0.00000000000E+000
  0.20060800000E+008,  0.40501702937E+007,  0.19000000000E+002,  0.10000000000E+001,  0.00000000000E+000
  0.20075800000E+008,  0.40501702937E+007,  0.19000000000E+002,  0.10000000000E+001,  0.00000000000E+000
  0.20090800000E+008,  0.40506859770E+007,  0.19000000000E+002,  0.10000000000E+001,  0.00000000000E+000
  0.20105800000E+008,  0.40515045798E+007,  0.19000000000E+002,  0.10000000000E+001,  0.00000000000E+000
  0.20120800000E+008,  0.40522883425E+007,  0.19000000000E+002,  0.10000000000E+001,  0.00000000000E+000
  0.20135800000E+008,  0.40530198075E+007,  0.19000000000E+002,  0.10000000000E+001,  0.00000000000E+000
  0.20150800000E+008,  0.40529394556E+007,  0.19000000000E+002,  0.10000000000E+001,  0.00000000000E+000
  0.20165800000E+008,  0.40529391014E+007,  0.19000000000E+002,  0.10000000000E+001,  0.00000000000E+000
  0.20180800000E+008,  0.40529390978E+007,  0.19000000000E+002,  0.10000000000E+001,  0.00000000000E+000
  0.20195800000E+008,  0.40529390976E+007,  0.19000000000E+002,  0.10000000000E+001,  0.00000000000E+000
  0.20210800000E+008,  0.40529390976E+007,  0.19000000000E+002,  0.10000000000E+001,  0.00000000000E+000
  0.20225800000E+008,  0.40529390976E+007,  0.19000000000E+002,  0.10000000000E+001,  0.00000000000E+000
  0.20240800000E+008,  0.40529390976E+007,  0.19000000000E+002,  0.10000000000E+001,  0.00000000000E+000
  0.20255800000E+008,  0.40529390976E+007,  0.19000000000E+002,  0.10000000000E+001,  0.00000000000E+000
  0.20270800000E+008,  0.40529390976E+007,  0.19000000000E+002,  0.10000000000E+001,  0.00000000000E+000
  0.20285800000E+008,  0.40529390976E+007,  0.19000000000E+002,  0.10000000000E+001,  0.00000000000E+000
  0.20300800000E+008,  0.40532943810E+007,  0.19000000000E+002,  0.10000000000E+001,  0.00000000000E+000
  0.20315800000E+008,  0.40540209104E+007,  0.19000000000E+002,  0.10000000000E+001,  0.00000000000E+000
  0.20330800000E+008,  0.40547075406E+007,  0.19000000000E+002,  0.10000000000E+001,  0.00000000000E+000
  0.20345800000E+008,  0.40553939950E+007,  0.19000000000E+002,  0.10000000000E+001,  0.00000000000E+000
  0.20360800000E+008,  0.40553699297E+007,  0.19000000000E+002,  0.10000000000E+001,  0.00000000000E+000
  0.20375800000E+008,  0.40553646342E+007,  0.19000000000E+002,  0.10000000000E+001,  0.00000000000E+000
