"           TIME(S)","              PRES","              TEMP","             SAT_G","             SAT_L"
  0.17593600000E+008,  0.20999146180E+007,  0.19000000000E+002,  0.00000000000E+000,  0.10000000000E+001
  0.17601100000E+008,  0.20997509175E+007,  0.19000000000E+002,  0.00000000000E+000,  0.10000000000E+001
  0.17616100000E+008,  0.20996264012E+007,  0.19000000000E+002,  0.00000000000E+000,  0.10000000000E+001
  0.17631100000E+008,  0.20995643842E+007,  0.19000000000E+002,  0.00000000000E+000,  0.10000000000E+001
  0.17646100000E+008,  0.20995252650E+007,  0.19000000000E+002,  0.00000000000E+000,  0.10000000000E+001
  0.17661100000E+008,  0.20994945708E+007,  0.19000000000E+002,  0.00000000000E+000,  0.10000000000E+001
  0.17676100000E+008,  0.20994669859E+007,  0.19000000000E+002,  0.00000000000E+000,  0.10000000000E+001
  0.17691100000E+008,  0.20994413245E+007,  0.19000000000E+002,  0.00000000000E+000,  0.10000000000E+001
  0.17698600042E+008,  0.20994291827E+007,  0.19000000000E+002,  0.00000000000E+000,  0.10000000000E+001
  0.17702350087E+008,  0.20994235003E+007,  0.19000000000E+002,  0.00000000000E+000,  0.10000000000E+001
  0.17717350087E+008,  0.20994058546E+007,  0.19000000000E+002,  0.00000000000E+000,  0.10000000000E+001
  0.17724850123E+008,  0.20993974355E+007,  0.19000000000E+002,  0.00000000000E+000,  0.10000000000E+001
  0.17739850123E+008,  0.20993886284E+007,  0.19000000000E+002,  0.00000000000E+000,  0.10000000000E+001
  0.17754850123E+008,  0.20993843941E+007,  0.19000000000E+002,  0.00000000000E+000,  0.10000000000E+001
  0.17769850123E+008,  0.20993823868E+007,  0.19000000000E+002,  0.00000000000E+000,  0.10000000000E+001
  0.17784850123E+008,  0.20993814376E+007,  0.19000000000E+002,  0.00000000000E+000,  0.10000000000E+001
  0.17799850123E+008,  0.20993809889E+007,  0.19000000000E+002,  0.00000000000E+000,  0.10000000000E+001
  0.17814850123E+008,  0.20993807769E+007,  0.19000000000E+002,  0.00000000000E+000,  0.10000000000E+001
  0.17829850123E+008,  0.20993806767E+007,  0.19000000000E+002,  0.00000000000E+000,  0.10000000000E+001
  0.17844850123E+008,  0.20993806293E+007,  0.19000000000E+002,  0.00000000000E+000,  0.10000000000E+001
  0.17859850123E+008,  0.20994919890E+007,  0.19000000000E+002,  0.00000000000E+000,  0.10000000000E+001
  0.17874850123E+008,  0.20998311090E+007,  0.19000000000E+002,  0.00000000000E+000,  0.10000000000E+001
  0.17889850123E+008,  0.21000912024E+007,  0.19000000000E+002,  0.00000000000E+000,  0.10000000000E+001
  0.17904850123E+008,  0.21003064324E+007,  0.19000000000E+002,  0.00000000000E+000,  0.10000000000E+001
  0.17919850123E+008,  0.21005993290E+007,  0.19000000000E+002,  0.00000000000E+000,  0.10000000000E+001
  0.17934850123E+008,  0.21009101438E+007,  0.19000000000E+002,  0.00000000000E+000,  0.10000000000E+001
  0.17949850123E+008,  0.21011908886E+007,  0.19000000000E+002,  0.00000000000E+000,  0.10000000000E+001
  0.17964850123E+008,  0.21014476289E+007,  0.19000000000E+002,  0.00000000000E+000,  0.10000000000E+001
  0.17979850123E+008,  0.21016848835E+007,  0.19000000000E+002,  0.00000000000E+000,  0.10000000000E+001
  0.17994850123E+008,  0.21019079445E+007,  0.19000000000E+002,  0.00000000000E+000,  0.10000000000E+001
  0.18009850123E+008,  0.21021194257E+007,  0.19000000000E+002,  0.00000000000E+000,  0.10000000000E+001
  0.18024850123E+008,  0.21023228757E+007,  0.19000000000E+002,  0.00000000000E+000,  0.10000000000E+001
  0.18039850123E+008,  0.21025190176E+007,  0.19000000000E+002,  0.00000000000E+000,  0.10000000000E+001
  0.18054850123E+008,  0.21027077156E+007,  0.19000000000E+002,  0.00000000000E+000,  0.10000000000E+001
  0.18069850123E+008,  0.21028968496E+007,  0.19000000000E+002,  0.00000000000E+000,  0.10000000000E+001
  0.18084850123E+008,  0.21031800592E+007,  0.19000000000E+002,  0.00000000000E+000,  0.10000000000E+001
  0.18099850123E+008,  0.21034546686E+007,  0.19000000000E+002,  0.00000000000E+000,  0.10000000000E+001
  0.18114850123E+008,  0.21037178121E+007,  0.19000000000E+002,  0.00000000000E+000,  0.10000000000E+001
  0.18129850123E+008,  0.21040387763E+007,  0.19000000000E+002,  0.00000000000E+000,  0.10000000000E+001
  0.18144850123E+008,  0.21044056949E+007,  0.19000000000E+002,  0.00000000000E+000,  0.10000000000E+001
  0.18159850123E+008,  0.21047577067E+007,  0.19000000000E+002,  0.00000000000E+000,  0.10000000000E+001
  0.18174850123E+008,  0.21050945532E+007,  0.19000000000E+002,  0.00000000000E+000,  0.10000000000E+001
  0.18189850123E+008,  0.21054223264E+007,  0.19000000000E+002,  0.00000000000E+000,  0.10000000000E+001
  0.18204850123E+008,  0.21057380943E+007,  0.19000000000E+002,  0.00000000000E+000,  0.10000000000E+001
  0.18219850123E+008,  0.21060429835E+007,  0.19000000000E+002,  0.00000000000E+000,  0.10000000000E+001
  0.18234850123E+008,  0.21063405455E+007,  0.19000000000E+002,  0.00000000000E+000,  0.10000000000E+001
  0.18249850123E+008,  0.21066318729E+007,  0.19000000000E+002,  0.00000000000E+000,  0.10000000000E+001
  0.18264850123E+008,  0.21069148973E+007,  0.19000000000E+002,  0.00000000000E+000,  0.10000000000E+001
  0.18279850123E+008,  0.21071902019E+007,  0.19000000000E+002,  0.00000000000E+000,  0.10000000000E+001
  0.18294850123E+008,  0.21074650376E+007,  0.19000000000E+002,  0.00000000000E+000,  0.10000000000E+001
  0.18309850123E+008,  0.21077336387E+007,  0.19000000000E+002,  0.00000000000E+000,  0.10000000000E+001
  0.18324850123E+008,  0.21079958072E+007,  0.19000000000E+002,  0.00000000000E+000,  0.10000000000E+001
  0.18339850123E+008,  0.21082533754E+007,  0.19000000000E+002,  0.00000000000E+000,  0.10000000000E+001
  0.18354850123E+008,  0.21087328058E+007,  0.19000000000E+002,  0.00000000000E+000,  0.10000000000E+001
  0.18369850123E+008,  0.21095764649E+007,  0.19000000000E+002,  0.00000000000E+000,  0.10000000000E+001
  0.18384850123E+008,  0.21104734010E+007,  0.19000000000E+002,  0.00000000000E+000,  0.10000000000E+001
  0.18399850123E+008,  0.21114260149E+007,  0.19000000000E+002,  0.00000000000E+000,  0.10000000000E+001
  0.18414850123E+008,  0.21124169942E+007,  0.19000000000E+002,  0.00000000000E+000,  0.10000000000E+001
  0.18429850123E+008,  0.21134418980E+007,  0.19000000000E+002,  0.00000000000E+000,  0.10000000000E+001
  0.18444850123E+008,  0.21145065476E+007,  0.19000000000E+002,  0.00000000000E+000,  0.10000000000E+001
  0.18459850123E+008,  0.21156176501E+007,  0.19000000000E+002,  0.00000000000E+000,  0.10000000000E+001
  0.18474850123E+008,  0.21167632176E+007,  0.19000000000E+002,  0.00000000000E+000,  0.10000000000E+001
  0.18489850123E+008,  0.21179420502E+007,  0.19000000000E+002,  0.00000000000E+000,  0.10000000000E+001
  0.18504850123E+008,  0.21191711885E+007,  0.19000000000E+002,  0.00000000000E+000,  0.10000000000E+001
  0.18519850123E+008,  0.21204391341E+007,  0.19000000000E+002,  0.00000000000E+000,  0.10000000000E+001
  0.18534850123E+008,  0.21217407084E+007,  0.19000000000E+002,  0.00000000000E+000,  0.10000000000E+001
  0.18549850123E+008,  0.21230831956E+007,  0.19000000000E+002,  0.00000000000E+000,  0.10000000000E+001
  0.18564850123E+008,  0.21244806226E+007,  0.19000000000E+002,  0.00000000000E+000,  0.10000000000E+001
  0.18579850123E+008,  0.21259132740E+007,  0.19000000000E+002,  0.00000000000E+000,  0.10000000000E+001
  0.18594850123E+008,  0.21273792761E+007,  0.19000000000E+002,  0.00000000000E+000,  0.10000000000E+001
  0.18609850123E+008,  0.21288891972E+007,  0.19000000000E+002,  0.00000000000E+000,  0.10000000000E+001
  0.18624850123E+008,  0.21304367264E+007,  0.19000000000E+002,  0.00000000000E+000,  0.10000000000E+001
  0.18639850123E+008,  0.21320174166E+007,  0.19000000000E+002,  0.00000000000E+000,  0.10000000000E+001
  0.18654850123E+008,  0.21336408146E+007,  0.19000000000E+002,  0.00000000000E+000,  0.10000000000E+001
  0.18669850123E+008,  0.21353352876E+007,  0.19000000000E+002,  0.00000000000E+000,  0.10000000000E+001
  0.18684850123E+008,  0.21370666962E+007,  0.19000000000E+002,  0.00000000000E+000,  0.10000000000E+001
  0.18698900000E+008,  0.21387188941E+007,  0.19000000000E+002,  0.00000000000E+000,  0.10000000000E+001
  0.18713900000E+008,  0.21405303345E+007,  0.19000000000E+002,  0.00000000000E+000,  0.10000000000E+001
  0.18728900000E+008,  0.21423858502E+007,  0.19000000000E+002,  0.00000000000E+000,  0.10000000000E+001
  0.18743900000E+008,  0.21442810056E+007,  0.19000000000E+002,  0.00000000000E+000,  0.10000000000E+001
  0.18758900000E+008,  0.21462186307E+007,  0.19000000000E+002,  0.00000000000E+000,  0.10000000000E+001
  0.18773900000E+008,  0.21482172965E+007,  0.19000000000E+002,  0.00000000000E+000,  0.10000000000E+001
  0.18788900000E+008,  0.21502522586E+007,  0.19000000000E+002,  0.00000000000E+000,  0.10000000000E+001
  0.18803900000E+008,  0.21523208624E+007,  0.19000000000E+002,  0.00000000000E+000,  0.10000000000E+001
  0.18818900000E+008,  0.21544430319E+007,  0.19000000000E+002,  0.00000000000E+000,  0.10000000000E+001
  0.18833900000E+008,  0.21566168709E+007,  0.19000000000E+002,  0.00000000000E+000,  0.10000000000E+001
  0.18848900000E+008,  0.21588260563E+007,  0.19000000000E+002,  0.00000000000E+000,  0.10000000000E+001
  0.18863900000E+008,  0.21610699153E+007,  0.19000000000E+002,  0.00000000000E+000,  0.10000000000E+001
  0.18878900000E+008,  0.21633934064E+007,  0.19000000000E+002,  0.00000000000E+000,  0.10000000000E+001
  0.18893900000E+008,  0.21657555820E+007,  0.19000000000E+002,  0.00000000000E+000,  0.10000000000E+001
  0.18908900000E+008,  0.21681519553E+007,  0.19000000000E+002,  0.00000000000E+000,  0.10000000000E+001
  0.18923900000E+008,  0.21706067933E+007,  0.19000000000E+002,  0.00000000000E+000,  0.10000000000E+001
  0.18938900000E+008,  0.21731240421E+007,  0.19000000000E+002,  0.00000000000E+000,  0.10000000000E+001
  0.18953900000E+008,  0.21756784763E+007,  0.19000000000E+002,  0.00000000000E+000,  0.10000000000E+001
  0.18968900000E+008,  0.21782670543E+007,  0.19000000000E+002,  0.00000000000E+000,  0.10000000000E+001
  0.18983900000E+008,  0.21809503270E+007,  0.19000000000E+002,  0.00000000000E+000,  0.10000000000E+001
  0.18998900000E+008,  0.21836776003E+007,  0.19000000000E+002,  0.00000000000E+000,  0.10000000000E+001
  0.19013900000E+008,  0.21864404380E+007,  0.19000000000E+002,  0.00000000000E+000,  0.10000000000E+001
  0.19028900000E+008,  0.21892542680E+007,  0.19000000000E+002,  0.00000000000E+000,  0.10000000000E+001
  0.19043900000E+008,  0.21921262976E+007,  0.19000000000E+002,  0.00000000000E+000,  0.10000000000E+001
  0.19058900000E+008,  0.21950355106E+007,  0.19000000000E+002,  0.00000000000E+000,  0.10000000000E+001
  0.19073900000E+008,  0.21979791832E+007,  0.19000000000E+002,  0.00000000000E+000,  0.10000000000E+001
  0.19088900000E+008,  0.22010211306E+007,  0.19000000000E+002,  0.00000000000E+000,  0.10000000000E+001
  0.19103900000E+008,  0.22041127966E+007,  0.19000000000E+002,  0.00000000000E+000,  0.10000000000E+001
  0.19118900000E+008,  0.22072410637E+007,  0.19000000000E+002,  0.00000000000E+000,  0.10000000000E+001
  0.19133900000E+008,  0.22104239745E+007,  0.19000000000E+002,  0.00000000000E+000,  0.10000000000E+001
  0.19148900000E+008,  0.22136786547E+007,  0.19000000000E+002,  0.00000000000E+000,  0.10000000000E+001
  0.19163900000E+008,  0.22169728802E+007,  0.19000000000E+002,  0.00000000000E+000,  0.10000000000E+001
  0.19178900000E+008,  0.22203023787E+007,  0.19000000000E+002,  0.00000000000E+000,  0.10000000000E+001
  0.19193900000E+008,  0.22237329451E+007,  0.19000000000E+002,  0.00000000000E+000,  0.10000000000E+001
  0.19208900000E+008,  0.22272206957E+007,  0.19000000000E+002,  0.00000000000E+000,  0.10000000000E+001
  0.19223900000E+008,  0.22307465889E+007,  0.19000000000E+002,  0.00000000000E+000,  0.10000000000E+001
  0.19238900000E+008,  0.22343230263E+007,  0.19000000000E+002,  0.00000000000E+000,  0.10000000000E+001
  0.19253900000E+008,  0.22379709636E+007,  0.19000000000E+002,  0.00000000000E+000,  0.10000000000E+001
  0.19268900000E+008,  0.22416589486E+007,  0.19000000000E+002,  0.00000000000E+000,  0.10000000000E+001
  0.19283900000E+008,  0.22453825308E+007,  0.19000000000E+002,  0.00000000000E+000,  0.10000000000E+001
  0.19298900000E+008,  0.22492187076E+007,  0.19000000000E+002,  0.00000000000E+000,  0.10000000000E+001
  0.19313900000E+008,  0.22531239828E+007,  0.19000000000E+002,  0.00000000000E+000,  0.10000000000E+001
  0.19328900000E+008,  0.22570696027E+007,  0.19000000000E+002,  0.00000000000E+000,  0.10000000000E+001
  0.19343900000E+008,  0.22610737385E+007,  0.19000000000E+002,  0.00000000000E+000,  0.10000000000E+001
  0.19358900000E+008,  0.22651879290E+007,  0.19000000000E+002,  0.00000000000E+000,  0.10000000000E+001
  0.19373900000E+008,  0.22693488471E+007,  0.19000000000E+002,  0.00000000000E+000,  0.10000000000E+001
  0.19388900000E+008,  0.22735474051E+007,  0.19000000000E+002,  0.00000000000E+000,  0.10000000000E+001
  0.19403900000E+008,  0.22752890487E+007,  0.19000000000E+002,  0.00000000000E+000,  0.10000000000E+001
  0.19418900000E+008,  0.22756516667E+007,  0.19000000000E+002,  0.00000000000E+000,  0.10000000000E+001
  0.19433900000E+008,  0.22758193336E+007,  0.19000000000E+002,  0.00000000000E+000,  0.10000000000E+001
  0.19448900000E+008,  0.22759388083E+007,  0.19000000000E+002,  0.00000000000E+000,  0.10000000000E+001
  0.19463900000E+008,  0.22759557739E+007,  0.19000000000E+002,  0.00000000000E+000,  0.10000000000E+001
  0.19478900000E+008,  0.22759581243E+007,  0.19000000000E+002,  0.00000000000E+000,  0.10000000000E+001
  0.19493900000E+008,  0.22759584507E+007,  0.19000000000E+002,  0.00000000000E+000,  0.10000000000E+001
  0.19508900000E+008,  0.22760256616E+007,  0.19000000000E+002,  0.00000000000E+000,  0.10000000000E+001
  0.19523900000E+008,  0.22761391249E+007,  0.19000000000E+002,  0.00000000000E+000,  0.10000000000E+001
  0.19538900000E+008,  0.22762591670E+007,  0.19000000000E+002,  0.00000000000E+000,  0.10000000000E+001
  0.19553900000E+008,  0.22763683715E+007,  0.19000000000E+002,  0.00000000000E+000,  0.10000000000E+001
  0.19568900000E+008,  0.22763839114E+007,  0.19000000000E+002,  0.00000000000E+000,  0.10000000000E+001
  0.19583900000E+008,  0.22763860660E+007,  0.19000000000E+002,  0.00000000000E+000,  0.10000000000E+001
  0.19598900000E+008,  0.22763863655E+007,  0.19000000000E+002,  0.00000000000E+000,  0.10000000000E+001
  0.19613900000E+008,  0.22764014699E+007,  0.19000000000E+002,  0.00000000000E+000,  0.10000000000E+001
  0.19628900000E+008,  0.22764296260E+007,  0.19000000000E+002,  0.00000000000E+000,  0.10000000000E+001
  0.19643900000E+008,  0.22764596362E+007,  0.19000000000E+002,  0.00000000000E+000,  0.10000000000E+001
  0.19658900000E+008,  0.22764968440E+007,  0.19000000000E+002,  0.00000000000E+000,  0.10000000000E+001
  0.19673900000E+008,  0.22766582306E+007,  0.19000000000E+002,  0.00000000000E+000,  0.10000000000E+001
  0.19688900000E+008,  0.22768373517E+007,  0.19000000000E+002,  0.00000000000E+000,  0.10000000000E+001
  0.19703900000E+008,  0.22770190050E+007,  0.19000000000E+002,  0.00000000000E+000,  0.10000000000E+001
  0.19718900000E+008,  0.22771198189E+007,  0.19000000000E+002,  0.00000000000E+000,  0.10000000000E+001
  0.19733900000E+008,  0.22771341400E+007,  0.19000000000E+002,  0.00000000000E+000,  0.10000000000E+001
  0.19748900000E+008,  0.22771361286E+007,  0.19000000000E+002,  0.00000000000E+000,  0.10000000000E+001
  0.19763900000E+008,  0.22771364053E+007,  0.19000000000E+002,  0.00000000000E+000,  0.10000000000E+001
  0.19778900000E+008,  0.22771492947E+007,  0.19000000000E+002,  0.00000000000E+000,  0.10000000000E+001
  0.19793900000E+008,  0.22771641584E+007,  0.19000000000E+002,  0.00000000000E+000,  0.10000000000E+001
  0.19805800000E+008,  0.22771761631E+007,  0.19000000000E+002,  0.00000000000E+000,  0.10000000000E+001
  0.19820800000E+008,  0.22771881289E+007,  0.19000000000E+002,  0.00000000000E+000,  0.10000000000E+001
  0.19835800000E+008,  0.22771898329E+007,  0.19000000000E+002,  0.00000000000E+000,  0.10000000000E+001
  0.19850800000E+008,  0.22771900695E+007,  0.19000000000E+002,  0.00000000000E+000,  0.10000000000E+001
  0.19865800000E+008,  0.22771901024E+007,  0.19000000000E+002,  0.00000000000E+000,  0.10000000000E+001
  0.19880800000E+008,  0.22772745811E+007,  0.19000000000E+002,  0.00000000000E+000,  0.10000000000E+001
  0.19895800000E+008,  0.22774039775E+007,  0.19000000000E+002,  0.00000000000E+000,  0.10000000000E+001
  0.19910800000E+008,  0.22775397762E+007,  0.19000000000E+002,  0.00000000000E+000,  0.10000000000E+001
  0.19925800000E+008,  0.22776789426E+007,  0.19000000000E+002,  0.00000000000E+000,  0.10000000000E+001
  0.19940800000E+008,  0.22778292590E+007,  0.19000000000E+002,  0.00000000000E+000,  0.10000000000E+001
  0.19955800000E+008,  0.22779812137E+007,  0.19000000000E+002,  0.00000000000E+000,  0.10000000000E+001
  0.19970800000E+008,  0.22781334366E+007,  0.19000000000E+002,  0.00000000000E+000,  0.10000000000E+001
  0.19985800000E+008,  0.22782003956E+007,  0.19000000000E+002,  0.00000000000E+000,  0.10000000000E+001
  0.20000800000E+008,  0.22782099055E+007,  0.19000000000E+002,  0.00000000000E+000,  0.10000000000E+001
  0.20015800000E+008,  0.22782112333E+007,  0.19000000000E+002,  0.00000000000E+000,  0.10000000000E+001
  0.20030800000E+008,  0.22782114199E+007,  0.19000000000E+002,  0.00000000000E+000,  0.10000000000E+001
  0.20045800000E+008,  0.22782114461E+007,  0.19000000000E+002,  0.00000000000E+000,  0.10000000000E+001
  0.20060800000E+008,  0.22782114461E+007,  0.19000000000E+002,  0.00000000000E+000,  0.10000000000E+001
  0.20075800000E+008,  0.22782114461E+007,  0.19000000000E+002,  0.00000000000E+000,  0.10000000000E+001
  0.20090800000E+008,  0.22782734873E+007,  0.19000000000E+002,  0.00000000000E+000,  0.10000000000E+001
  0.20105800000E+008,  0.22783869239E+007,  0.19000000000E+002,  0.00000000000E+000,  0.10000000000E+001
  0.20120800000E+008,  0.22785077016E+007,  0.19000000000E+002,  0.00000000000E+000,  0.10000000000E+001
  0.20135800000E+008,  0.22786232557E+007,  0.19000000000E+002,  0.00000000000E+000,  0.10000000000E+001
  0.20150800000E+008,  0.22786397668E+007,  0.19000000000E+002,  0.00000000000E+000,  0.10000000000E+001
  0.20165800000E+008,  0.22786420649E+007,  0.19000000000E+002,  0.00000000000E+000,  0.10000000000E+001
  0.20180800000E+008,  0.22786423856E+007,  0.19000000000E+002,  0.00000000000E+000,  0.10000000000E+001
  0.20195800000E+008,  0.22786424302E+007,  0.19000000000E+002,  0.00000000000E+000,  0.10000000000E+001
  0.20210800000E+008,  0.22786424302E+007,  0.19000000000E+002,  0.00000000000E+000,  0.10000000000E+001
  0.20225800000E+008,  0.22786424302E+007,  0.19000000000E+002,  0.00000000000E+000,  0.10000000000E+001
  0.20240800000E+008,  0.22786424302E+007,  0.19000000000E+002,  0.00000000000E+000,  0.10000000000E+001
  0.20255800000E+008,  0.22786424302E+007,  0.19000000000E+002,  0.00000000000E+000,  0.10000000000E+001
  0.20270800000E+008,  0.22786424302E+007,  0.19000000000E+002,  0.00000000000E+000,  0.10000000000E+001
  0.20285800000E+008,  0.22786424302E+007,  0.19000000000E+002,  0.00000000000E+000,  0.10000000000E+001
  0.20300800000E+008,  0.22786851894E+007,  0.19000000000E+002,  0.00000000000E+000,  0.10000000000E+001
  0.20315800000E+008,  0.22787829710E+007,  0.19000000000E+002,  0.00000000000E+000,  0.10000000000E+001
  0.20330800000E+008,  0.22788886200E+007,  0.19000000000E+002,  0.00000000000E+000,  0.10000000000E+001
  0.20345800000E+008,  0.22789953912E+007,  0.19000000000E+002,  0.00000000000E+000,  0.10000000000E+001
  0.20360800000E+008,  0.22790167359E+007,  0.19000000000E+002,  0.00000000000E+000,  0.10000000000E+001
  0.20375800000E+008,  0.22790197471E+007,  0.19000000000E+002,  0.00000000000E+000,  0.10000000000E+001
