"           TIME(S)","              PRES","              TEMP","             SAT_G","             SAT_L"
  0.17593600000E+008,  0.21000204721E+007,  0.19000000000E+002,  0.00000000000E+000,  0.10000000000E+001
  0.17601100000E+008,  0.20999738594E+007,  0.19000000000E+002,  0.00000000000E+000,  0.10000000000E+001
  0.17616100000E+008,  0.20999063097E+007,  0.19000000000E+002,  0.00000000000E+000,  0.10000000000E+001
  0.17631100000E+008,  0.20998655093E+007,  0.19000000000E+002,  0.00000000000E+000,  0.10000000000E+001
  0.17646100000E+008,  0.20998343113E+007,  0.19000000000E+002,  0.00000000000E+000,  0.10000000000E+001
  0.17661100000E+008,  0.20998065429E+007,  0.19000000000E+002,  0.00000000000E+000,  0.10000000000E+001
  0.17676100000E+008,  0.20997800383E+007,  0.19000000000E+002,  0.00000000000E+000,  0.10000000000E+001
  0.17691100000E+008,  0.20997544105E+007,  0.19000000000E+002,  0.00000000000E+000,  0.10000000000E+001
  0.17698600042E+008,  0.20997410630E+007,  0.19000000000E+002,  0.00000000000E+000,  0.10000000000E+001
  0.17702350087E+008,  0.20997355251E+007,  0.19000000000E+002,  0.00000000000E+000,  0.10000000000E+001
  0.17717350087E+008,  0.20997203986E+007,  0.19000000000E+002,  0.00000000000E+000,  0.10000000000E+001
  0.17724850123E+008,  0.20997136200E+007,  0.19000000000E+002,  0.00000000000E+000,  0.10000000000E+001
  0.17739850123E+008,  0.20997079638E+007,  0.19000000000E+002,  0.00000000000E+000,  0.10000000000E+001
  0.17754850123E+008,  0.20997054054E+007,  0.19000000000E+002,  0.00000000000E+000,  0.10000000000E+001
  0.17769850123E+008,  0.20997042074E+007,  0.19000000000E+002,  0.00000000000E+000,  0.10000000000E+001
  0.17784850123E+008,  0.20997036420E+007,  0.19000000000E+002,  0.00000000000E+000,  0.10000000000E+001
  0.17799850123E+008,  0.20997033750E+007,  0.19000000000E+002,  0.00000000000E+000,  0.10000000000E+001
  0.17814850123E+008,  0.20997032488E+007,  0.19000000000E+002,  0.00000000000E+000,  0.10000000000E+001
  0.17829850123E+008,  0.20997031892E+007,  0.19000000000E+002,  0.00000000000E+000,  0.10000000000E+001
  0.17844850123E+008,  0.20997031610E+007,  0.19000000000E+002,  0.00000000000E+000,  0.10000000000E+001
  0.17859850123E+008,  0.20998567357E+007,  0.19000000000E+002,  0.00000000000E+000,  0.10000000000E+001
  0.17874850123E+008,  0.21002825530E+007,  0.19000000000E+002,  0.00000000000E+000,  0.10000000000E+001
  0.17889850123E+008,  0.21005129379E+007,  0.19000000000E+002,  0.00000000000E+000,  0.10000000000E+001
  0.17904850123E+008,  0.21007109913E+007,  0.19000000000E+002,  0.00000000000E+000,  0.10000000000E+001
  0.17919850123E+008,  0.21010334320E+007,  0.19000000000E+002,  0.00000000000E+000,  0.10000000000E+001
  0.17934850123E+008,  0.21013511293E+007,  0.19000000000E+002,  0.00000000000E+000,  0.10000000000E+001
  0.17949850123E+008,  0.21016204470E+007,  0.19000000000E+002,  0.00000000000E+000,  0.10000000000E+001
  0.17964850123E+008,  0.21018680480E+007,  0.19000000000E+002,  0.00000000000E+000,  0.10000000000E+001
  0.17979850123E+008,  0.21020978871E+007,  0.19000000000E+002,  0.00000000000E+000,  0.10000000000E+001
  0.17994850123E+008,  0.21023155492E+007,  0.19000000000E+002,  0.00000000000E+000,  0.10000000000E+001
  0.18009850123E+008,  0.21025226267E+007,  0.19000000000E+002,  0.00000000000E+000,  0.10000000000E+001
  0.18024850123E+008,  0.21027230247E+007,  0.19000000000E+002,  0.00000000000E+000,  0.10000000000E+001
  0.18039850123E+008,  0.21029163891E+007,  0.19000000000E+002,  0.00000000000E+000,  0.10000000000E+001
  0.18054850123E+008,  0.21031022563E+007,  0.19000000000E+002,  0.00000000000E+000,  0.10000000000E+001
  0.18069850123E+008,  0.21032915658E+007,  0.19000000000E+002,  0.00000000000E+000,  0.10000000000E+001
  0.18084850123E+008,  0.21036106930E+007,  0.19000000000E+002,  0.00000000000E+000,  0.10000000000E+001
  0.18099850123E+008,  0.21038820454E+007,  0.19000000000E+002,  0.00000000000E+000,  0.10000000000E+001
  0.18114850123E+008,  0.21041408190E+007,  0.19000000000E+002,  0.00000000000E+000,  0.10000000000E+001
  0.18129850123E+008,  0.21044838751E+007,  0.19000000000E+002,  0.00000000000E+000,  0.10000000000E+001
  0.18144850123E+008,  0.21048683730E+007,  0.19000000000E+002,  0.00000000000E+000,  0.10000000000E+001
  0.18159850123E+008,  0.21052147202E+007,  0.19000000000E+002,  0.00000000000E+000,  0.10000000000E+001
  0.18174850123E+008,  0.21055457897E+007,  0.19000000000E+002,  0.00000000000E+000,  0.10000000000E+001
  0.18189850123E+008,  0.21058701156E+007,  0.19000000000E+002,  0.00000000000E+000,  0.10000000000E+001
  0.18204850123E+008,  0.21061813158E+007,  0.19000000000E+002,  0.00000000000E+000,  0.10000000000E+001
  0.18219850123E+008,  0.21064820646E+007,  0.19000000000E+002,  0.00000000000E+000,  0.10000000000E+001
  0.18234850123E+008,  0.21067768418E+007,  0.19000000000E+002,  0.00000000000E+000,  0.10000000000E+001
  0.18249850123E+008,  0.21070658013E+007,  0.19000000000E+002,  0.00000000000E+000,  0.10000000000E+001
  0.18264850123E+008,  0.21073456655E+007,  0.19000000000E+002,  0.00000000000E+000,  0.10000000000E+001
  0.18279850123E+008,  0.21076180313E+007,  0.19000000000E+002,  0.00000000000E+000,  0.10000000000E+001
  0.18294850123E+008,  0.21078926991E+007,  0.19000000000E+002,  0.00000000000E+000,  0.10000000000E+001
  0.18309850123E+008,  0.21081589298E+007,  0.19000000000E+002,  0.00000000000E+000,  0.10000000000E+001
  0.18324850123E+008,  0.21084186488E+007,  0.19000000000E+002,  0.00000000000E+000,  0.10000000000E+001
  0.18339850123E+008,  0.21086744675E+007,  0.19000000000E+002,  0.00000000000E+000,  0.10000000000E+001
  0.18354850123E+008,  0.21092397698E+007,  0.19000000000E+002,  0.00000000000E+000,  0.10000000000E+001
  0.18369850123E+008,  0.21102208388E+007,  0.19000000000E+002,  0.00000000000E+000,  0.10000000000E+001
  0.18384850123E+008,  0.21111392838E+007,  0.19000000000E+002,  0.00000000000E+000,  0.10000000000E+001
  0.18399850123E+008,  0.21121133621E+007,  0.19000000000E+002,  0.00000000000E+000,  0.10000000000E+001
  0.18414850123E+008,  0.21131191465E+007,  0.19000000000E+002,  0.00000000000E+000,  0.10000000000E+001
  0.18429850123E+008,  0.21141571577E+007,  0.19000000000E+002,  0.00000000000E+000,  0.10000000000E+001
  0.18444850123E+008,  0.21152371494E+007,  0.19000000000E+002,  0.00000000000E+000,  0.10000000000E+001
  0.18459850123E+008,  0.21163661741E+007,  0.19000000000E+002,  0.00000000000E+000,  0.10000000000E+001
  0.18474850123E+008,  0.21175250853E+007,  0.19000000000E+002,  0.00000000000E+000,  0.10000000000E+001
  0.18489850123E+008,  0.21187168022E+007,  0.19000000000E+002,  0.00000000000E+000,  0.10000000000E+001
  0.18504850123E+008,  0.21199653605E+007,  0.19000000000E+002,  0.00000000000E+000,  0.10000000000E+001
  0.18519850123E+008,  0.21212483408E+007,  0.19000000000E+002,  0.00000000000E+000,  0.10000000000E+001
  0.18534850123E+008,  0.21225629653E+007,  0.19000000000E+002,  0.00000000000E+000,  0.10000000000E+001
  0.18549850123E+008,  0.21239212984E+007,  0.19000000000E+002,  0.00000000000E+000,  0.10000000000E+001
  0.18564850123E+008,  0.21253399639E+007,  0.19000000000E+002,  0.00000000000E+000,  0.10000000000E+001
  0.18579850123E+008,  0.21267863153E+007,  0.19000000000E+002,  0.00000000000E+000,  0.10000000000E+001
  0.18594850123E+008,  0.21282652903E+007,  0.19000000000E+002,  0.00000000000E+000,  0.10000000000E+001
  0.18609850123E+008,  0.21297922435E+007,  0.19000000000E+002,  0.00000000000E+000,  0.10000000000E+001
  0.18624850123E+008,  0.21313544013E+007,  0.19000000000E+002,  0.00000000000E+000,  0.10000000000E+001
  0.18639850123E+008,  0.21329480155E+007,  0.19000000000E+002,  0.00000000000E+000,  0.10000000000E+001
  0.18654850123E+008,  0.21345880039E+007,  0.19000000000E+002,  0.00000000000E+000,  0.10000000000E+001
  0.18669850123E+008,  0.21363099771E+007,  0.19000000000E+002,  0.00000000000E+000,  0.10000000000E+001
  0.18684850123E+008,  0.21380558207E+007,  0.19000000000E+002,  0.00000000000E+000,  0.10000000000E+001
  0.18698900000E+008,  0.21397207136E+007,  0.19000000000E+002,  0.00000000000E+000,  0.10000000000E+001
  0.18713900000E+008,  0.21415506343E+007,  0.19000000000E+002,  0.00000000000E+000,  0.10000000000E+001
  0.18728900000E+008,  0.21434233256E+007,  0.19000000000E+002,  0.00000000000E+000,  0.10000000000E+001
  0.18743900000E+008,  0.21453339600E+007,  0.19000000000E+002,  0.00000000000E+000,  0.10000000000E+001
  0.18758900000E+008,  0.21472881547E+007,  0.19000000000E+002,  0.00000000000E+000,  0.10000000000E+001
  0.18773900000E+008,  0.21493105414E+007,  0.19000000000E+002,  0.00000000000E+000,  0.10000000000E+001
  0.18788900000E+008,  0.21513597466E+007,  0.19000000000E+002,  0.00000000000E+000,  0.10000000000E+001
  0.18803900000E+008,  0.21534415497E+007,  0.19000000000E+002,  0.00000000000E+000,  0.10000000000E+001
  0.18818900000E+008,  0.21555845834E+007,  0.19000000000E+002,  0.00000000000E+000,  0.10000000000E+001
  0.18833900000E+008,  0.21577785949E+007,  0.19000000000E+002,  0.00000000000E+000,  0.10000000000E+001
  0.18848900000E+008,  0.21600016820E+007,  0.19000000000E+002,  0.00000000000E+000,  0.10000000000E+001
  0.18863900000E+008,  0.21622591673E+007,  0.19000000000E+002,  0.00000000000E+000,  0.10000000000E+001
  0.18878900000E+008,  0.21646135944E+007,  0.19000000000E+002,  0.00000000000E+000,  0.10000000000E+001
  0.18893900000E+008,  0.21669910290E+007,  0.19000000000E+002,  0.00000000000E+000,  0.10000000000E+001
  0.18908900000E+008,  0.21694008783E+007,  0.19000000000E+002,  0.00000000000E+000,  0.10000000000E+001
  0.18923900000E+008,  0.21718785419E+007,  0.19000000000E+002,  0.00000000000E+000,  0.10000000000E+001
  0.18938900000E+008,  0.21744201841E+007,  0.19000000000E+002,  0.00000000000E+000,  0.10000000000E+001
  0.18953900000E+008,  0.21769893052E+007,  0.19000000000E+002,  0.00000000000E+000,  0.10000000000E+001
  0.18968900000E+008,  0.21795913722E+007,  0.19000000000E+002,  0.00000000000E+000,  0.10000000000E+001
  0.18983900000E+008,  0.21823114692E+007,  0.19000000000E+002,  0.00000000000E+000,  0.10000000000E+001
  0.18998900000E+008,  0.21850561511E+007,  0.19000000000E+002,  0.00000000000E+000,  0.10000000000E+001
  0.19013900000E+008,  0.21878330726E+007,  0.19000000000E+002,  0.00000000000E+000,  0.10000000000E+001
  0.19028900000E+008,  0.21906669218E+007,  0.19000000000E+002,  0.00000000000E+000,  0.10000000000E+001
  0.19043900000E+008,  0.21935617880E+007,  0.19000000000E+002,  0.00000000000E+000,  0.10000000000E+001
  0.19058900000E+008,  0.21964857595E+007,  0.19000000000E+002,  0.00000000000E+000,  0.10000000000E+001
  0.19073900000E+008,  0.21994431049E+007,  0.19000000000E+002,  0.00000000000E+000,  0.10000000000E+001
  0.19088900000E+008,  0.22025233505E+007,  0.19000000000E+002,  0.00000000000E+000,  0.10000000000E+001
  0.19103900000E+008,  0.22056347293E+007,  0.19000000000E+002,  0.00000000000E+000,  0.10000000000E+001
  0.19118900000E+008,  0.22087775578E+007,  0.19000000000E+002,  0.00000000000E+000,  0.10000000000E+001
  0.19133900000E+008,  0.22119819716E+007,  0.19000000000E+002,  0.00000000000E+000,  0.10000000000E+001
  0.19148900000E+008,  0.22152648141E+007,  0.19000000000E+002,  0.00000000000E+000,  0.10000000000E+001
  0.19163900000E+008,  0.22185748120E+007,  0.19000000000E+002,  0.00000000000E+000,  0.10000000000E+001
  0.19178900000E+008,  0.22219183708E+007,  0.19000000000E+002,  0.00000000000E+000,  0.10000000000E+001
  0.19193900000E+008,  0.22253884141E+007,  0.19000000000E+002,  0.00000000000E+000,  0.10000000000E+001
  0.19208900000E+008,  0.22288988502E+007,  0.19000000000E+002,  0.00000000000E+000,  0.10000000000E+001
  0.19223900000E+008,  0.22324399944E+007,  0.19000000000E+002,  0.00000000000E+000,  0.10000000000E+001
  0.19238900000E+008,  0.22360364351E+007,  0.19000000000E+002,  0.00000000000E+000,  0.10000000000E+001
  0.19253900000E+008,  0.22397125132E+007,  0.19000000000E+002,  0.00000000000E+000,  0.10000000000E+001
  0.19268900000E+008,  0.22434165424E+007,  0.19000000000E+002,  0.00000000000E+000,  0.10000000000E+001
  0.19283900000E+008,  0.22471543892E+007,  0.19000000000E+002,  0.00000000000E+000,  0.10000000000E+001
  0.19298900000E+008,  0.22510345968E+007,  0.19000000000E+002,  0.00000000000E+000,  0.10000000000E+001
  0.19313900000E+008,  0.22549672905E+007,  0.19000000000E+002,  0.00000000000E+000,  0.10000000000E+001
  0.19328900000E+008,  0.22589291306E+007,  0.19000000000E+002,  0.00000000000E+000,  0.10000000000E+001
  0.19343900000E+008,  0.22629564430E+007,  0.19000000000E+002,  0.00000000000E+000,  0.10000000000E+001
  0.19358900000E+008,  0.22671138077E+007,  0.19000000000E+002,  0.00000000000E+000,  0.10000000000E+001
  0.19373900000E+008,  0.22712935536E+007,  0.19000000000E+002,  0.00000000000E+000,  0.10000000000E+001
  0.19388900000E+008,  0.22755072699E+007,  0.19000000000E+002,  0.00000000000E+000,  0.10000000000E+001
  0.19403900000E+008,  0.22762979570E+007,  0.19000000000E+002,  0.00000000000E+000,  0.10000000000E+001
  0.19418900000E+008,  0.22761201113E+007,  0.19000000000E+002,  0.00000000000E+000,  0.10000000000E+001
  0.19433900000E+008,  0.22762081480E+007,  0.19000000000E+002,  0.00000000000E+000,  0.10000000000E+001
  0.19448900000E+008,  0.22763081734E+007,  0.19000000000E+002,  0.00000000000E+000,  0.10000000000E+001
  0.19463900000E+008,  0.22762852835E+007,  0.19000000000E+002,  0.00000000000E+000,  0.10000000000E+001
  0.19478900000E+008,  0.22762816731E+007,  0.19000000000E+002,  0.00000000000E+000,  0.10000000000E+001
  0.19493900000E+008,  0.22762811602E+007,  0.19000000000E+002,  0.00000000000E+000,  0.10000000000E+001
  0.19508900000E+008,  0.22763742578E+007,  0.19000000000E+002,  0.00000000000E+000,  0.10000000000E+001
  0.19523900000E+008,  0.22765058142E+007,  0.19000000000E+002,  0.00000000000E+000,  0.10000000000E+001
  0.19538900000E+008,  0.22766285413E+007,  0.19000000000E+002,  0.00000000000E+000,  0.10000000000E+001
  0.19553900000E+008,  0.22767335764E+007,  0.19000000000E+002,  0.00000000000E+000,  0.10000000000E+001
  0.19568900000E+008,  0.22767128326E+007,  0.19000000000E+002,  0.00000000000E+000,  0.10000000000E+001
  0.19583900000E+008,  0.22767095337E+007,  0.19000000000E+002,  0.00000000000E+000,  0.10000000000E+001
  0.19598900000E+008,  0.22767090640E+007,  0.19000000000E+002,  0.00000000000E+000,  0.10000000000E+001
  0.19613900000E+008,  0.22767298876E+007,  0.19000000000E+002,  0.00000000000E+000,  0.10000000000E+001
  0.19628900000E+008,  0.22767631429E+007,  0.19000000000E+002,  0.00000000000E+000,  0.10000000000E+001
  0.19643900000E+008,  0.22767939096E+007,  0.19000000000E+002,  0.00000000000E+000,  0.10000000000E+001
  0.19658900000E+008,  0.22768339120E+007,  0.19000000000E+002,  0.00000000000E+000,  0.10000000000E+001
  0.19673900000E+008,  0.22770434029E+007,  0.19000000000E+002,  0.00000000000E+000,  0.10000000000E+001
  0.19688900000E+008,  0.22772297285E+007,  0.19000000000E+002,  0.00000000000E+000,  0.10000000000E+001
  0.19703900000E+008,  0.22774124339E+007,  0.19000000000E+002,  0.00000000000E+000,  0.10000000000E+001
  0.19718900000E+008,  0.22774819562E+007,  0.19000000000E+002,  0.00000000000E+000,  0.10000000000E+001
  0.19733900000E+008,  0.22774625733E+007,  0.19000000000E+002,  0.00000000000E+000,  0.10000000000E+001
  0.19748900000E+008,  0.22774595277E+007,  0.19000000000E+002,  0.00000000000E+000,  0.10000000000E+001
  0.19763900000E+008,  0.22774590944E+007,  0.19000000000E+002,  0.00000000000E+000,  0.10000000000E+001
  0.19778900000E+008,  0.22774768606E+007,  0.19000000000E+002,  0.00000000000E+000,  0.10000000000E+001
  0.19793900000E+008,  0.22774925236E+007,  0.19000000000E+002,  0.00000000000E+000,  0.10000000000E+001
  0.19805800000E+008,  0.22775046393E+007,  0.19000000000E+002,  0.00000000000E+000,  0.10000000000E+001
  0.19820800000E+008,  0.22775153806E+007,  0.19000000000E+002,  0.00000000000E+000,  0.10000000000E+001
  0.19835800000E+008,  0.22775131036E+007,  0.19000000000E+002,  0.00000000000E+000,  0.10000000000E+001
  0.19850800000E+008,  0.22775127420E+007,  0.19000000000E+002,  0.00000000000E+000,  0.10000000000E+001
  0.19865800000E+008,  0.22775126905E+007,  0.19000000000E+002,  0.00000000000E+000,  0.10000000000E+001
  0.19880800000E+008,  0.22776298676E+007,  0.19000000000E+002,  0.00000000000E+000,  0.10000000000E+001
  0.19895800000E+008,  0.22777768867E+007,  0.19000000000E+002,  0.00000000000E+000,  0.10000000000E+001
  0.19910800000E+008,  0.22779153021E+007,  0.19000000000E+002,  0.00000000000E+000,  0.10000000000E+001
  0.19925800000E+008,  0.22780557993E+007,  0.19000000000E+002,  0.00000000000E+000,  0.10000000000E+001
  0.19940800000E+008,  0.22782104445E+007,  0.19000000000E+002,  0.00000000000E+000,  0.10000000000E+001
  0.19955800000E+008,  0.22783630650E+007,  0.19000000000E+002,  0.00000000000E+000,  0.10000000000E+001
  0.19970800000E+008,  0.22785153989E+007,  0.19000000000E+002,  0.00000000000E+000,  0.10000000000E+001
  0.19985800000E+008,  0.22785493415E+007,  0.19000000000E+002,  0.00000000000E+000,  0.10000000000E+001
  0.20000800000E+008,  0.22785363753E+007,  0.19000000000E+002,  0.00000000000E+000,  0.10000000000E+001
  0.20015800000E+008,  0.22785343598E+007,  0.19000000000E+002,  0.00000000000E+000,  0.10000000000E+001
  0.20030800000E+008,  0.22785340724E+007,  0.19000000000E+002,  0.00000000000E+000,  0.10000000000E+001
  0.20045800000E+008,  0.22785340316E+007,  0.19000000000E+002,  0.00000000000E+000,  0.10000000000E+001
  0.20060800000E+008,  0.22785340316E+007,  0.19000000000E+002,  0.00000000000E+000,  0.10000000000E+001
  0.20075800000E+008,  0.22785340316E+007,  0.19000000000E+002,  0.00000000000E+000,  0.10000000000E+001
  0.20090800000E+008,  0.22786200871E+007,  0.19000000000E+002,  0.00000000000E+000,  0.10000000000E+001
  0.20105800000E+008,  0.22787535947E+007,  0.19000000000E+002,  0.00000000000E+000,  0.10000000000E+001
  0.20120800000E+008,  0.22788773666E+007,  0.19000000000E+002,  0.00000000000E+000,  0.10000000000E+001
  0.20135800000E+008,  0.22789909280E+007,  0.19000000000E+002,  0.00000000000E+000,  0.10000000000E+001
  0.20150800000E+008,  0.22789690853E+007,  0.19000000000E+002,  0.00000000000E+000,  0.10000000000E+001
  0.20165800000E+008,  0.22789655927E+007,  0.19000000000E+002,  0.00000000000E+000,  0.10000000000E+001
  0.20180800000E+008,  0.22789650933E+007,  0.19000000000E+002,  0.00000000000E+000,  0.10000000000E+001
  0.20195800000E+008,  0.22789650233E+007,  0.19000000000E+002,  0.00000000000E+000,  0.10000000000E+001
  0.20210800000E+008,  0.22789650233E+007,  0.19000000000E+002,  0.00000000000E+000,  0.10000000000E+001
  0.20225800000E+008,  0.22789650233E+007,  0.19000000000E+002,  0.00000000000E+000,  0.10000000000E+001
  0.20240800000E+008,  0.22789650233E+007,  0.19000000000E+002,  0.00000000000E+000,  0.10000000000E+001
  0.20255800000E+008,  0.22789650233E+007,  0.19000000000E+002,  0.00000000000E+000,  0.10000000000E+001
  0.20270800000E+008,  0.22789650233E+007,  0.19000000000E+002,  0.00000000000E+000,  0.10000000000E+001
  0.20285800000E+008,  0.22789650233E+007,  0.19000000000E+002,  0.00000000000E+000,  0.10000000000E+001
  0.20300800000E+008,  0.22790243161E+007,  0.19000000000E+002,  0.00000000000E+000,  0.10000000000E+001
  0.20315800000E+008,  0.22791435273E+007,  0.19000000000E+002,  0.00000000000E+000,  0.10000000000E+001
  0.20330800000E+008,  0.22792523813E+007,  0.19000000000E+002,  0.00000000000E+000,  0.10000000000E+001
  0.20345800000E+008,  0.22793596192E+007,  0.19000000000E+002,  0.00000000000E+000,  0.10000000000E+001
  0.20360800000E+008,  0.22793478871E+007,  0.19000000000E+002,  0.00000000000E+000,  0.10000000000E+001
  0.20375800000E+008,  0.22793435665E+007,  0.19000000000E+002,  0.00000000000E+000,  0.10000000000E+001
