"           TIME(S)","              PRES","              TEMP","             SAT_G","             SAT_L"
  0.17593600000E+008,  0.20998670694E+007,  0.19000000000E+002,  0.10000000000E+001,  0.00000000000E+000
  0.17601100000E+008,  0.20998007660E+007,  0.19000000000E+002,  0.10000000000E+001,  0.00000000000E+000
  0.17616100000E+008,  0.20998010861E+007,  0.19000000000E+002,  0.10000000000E+001,  0.00000000000E+000
  0.17631100000E+008,  0.20998005490E+007,  0.19000000000E+002,  0.10000000000E+001,  0.00000000000E+000
  0.17646100000E+008,  0.20998002688E+007,  0.19000000000E+002,  0.10000000000E+001,  0.00000000000E+000
  0.17661100000E+008,  0.20998001232E+007,  0.19000000000E+002,  0.10000000000E+001,  0.00000000000E+000
  0.17676100000E+008,  0.20998000467E+007,  0.19000000000E+002,  0.10000000000E+001,  0.00000000000E+000
  0.17691100000E+008,  0.20998000061E+007,  0.19000000000E+002,  0.10000000000E+001,  0.00000000000E+000
  0.17706100000E+008,  0.20997999845E+007,  0.19000000000E+002,  0.10000000000E+001,  0.00000000000E+000
  0.17721100000E+008,  0.20997999730E+007,  0.19000000000E+002,  0.10000000000E+001,  0.00000000000E+000
  0.17736100000E+008,  0.20997999668E+007,  0.19000000000E+002,  0.10000000000E+001,  0.00000000000E+000
  0.17751100000E+008,  0.20997999635E+007,  0.19000000000E+002,  0.10000000000E+001,  0.00000000000E+000
  0.17766100000E+008,  0.20997999618E+007,  0.19000000000E+002,  0.10000000000E+001,  0.00000000000E+000
  0.17781100000E+008,  0.20997999608E+007,  0.19000000000E+002,  0.10000000000E+001,  0.00000000000E+000
  0.17796100000E+008,  0.20997999603E+007,  0.19000000000E+002,  0.10000000000E+001,  0.00000000000E+000
  0.17811100000E+008,  0.20997999601E+007,  0.19000000000E+002,  0.10000000000E+001,  0.00000000000E+000
  0.17826100000E+008,  0.20997999599E+007,  0.19000000000E+002,  0.10000000000E+001,  0.00000000000E+000
  0.17841100000E+008,  0.20997999599E+007,  0.19000000000E+002,  0.10000000000E+001,  0.00000000000E+000
  0.17856100000E+008,  0.20997999599E+007,  0.19000000000E+002,  0.10000000000E+001,  0.00000000000E+000
  0.17871100000E+008,  0.21035565010E+007,  0.19000000000E+002,  0.10000000000E+001,  0.00000000000E+000
  0.17886100000E+008,  0.21069074948E+007,  0.19000000000E+002,  0.10000000000E+001,  0.00000000000E+000
  0.17901100000E+008,  0.21102120653E+007,  0.19000000000E+002,  0.10000000000E+001,  0.00000000000E+000
  0.17916100000E+008,  0.21150795509E+007,  0.19000000000E+002,  0.10000000000E+001,  0.00000000000E+000
  0.17931100000E+008,  0.21219589233E+007,  0.19000000000E+002,  0.10000000000E+001,  0.00000000000E+000
  0.17946100000E+008,  0.21284466955E+007,  0.19000000000E+002,  0.10000000000E+001,  0.00000000000E+000
  0.17961100000E+008,  0.21349312775E+007,  0.19000000000E+002,  0.10000000000E+001,  0.00000000000E+000
  0.17976100000E+008,  0.21413635332E+007,  0.19000000000E+002,  0.10000000000E+001,  0.00000000000E+000
  0.17991100000E+008,  0.21477975541E+007,  0.19000000000E+002,  0.10000000000E+001,  0.00000000000E+000
  0.18006100000E+008,  0.21542328781E+007,  0.19000000000E+002,  0.10000000000E+001,  0.00000000000E+000
  0.18021100000E+008,  0.21607094956E+007,  0.19000000000E+002,  0.10000000000E+001,  0.00000000000E+000
  0.18036100000E+008,  0.21672569083E+007,  0.19000000000E+002,  0.10000000000E+001,  0.00000000000E+000
  0.18051100000E+008,  0.21737912399E+007,  0.19000000000E+002,  0.10000000000E+001,  0.00000000000E+000
  0.18066100000E+008,  0.21803254914E+007,  0.19000000000E+002,  0.10000000000E+001,  0.00000000000E+000
  0.18081100000E+008,  0.21910361443E+007,  0.19000000000E+002,  0.10000000000E+001,  0.00000000000E+000
  0.18096100000E+008,  0.22020080621E+007,  0.19000000000E+002,  0.10000000000E+001,  0.00000000000E+000
  0.18111100000E+008,  0.22128155335E+007,  0.19000000000E+002,  0.10000000000E+001,  0.00000000000E+000
  0.18126100000E+008,  0.22255961200E+007,  0.19000000000E+002,  0.10000000000E+001,  0.00000000000E+000
  0.18141100000E+008,  0.22431213556E+007,  0.19000000000E+002,  0.10000000000E+001,  0.00000000000E+000
  0.18156100000E+008,  0.22598126859E+007,  0.19000000000E+002,  0.10000000000E+001,  0.00000000000E+000
  0.18171100000E+008,  0.22764978958E+007,  0.19000000000E+002,  0.10000000000E+001,  0.00000000000E+000
  0.18186100000E+008,  0.22933978724E+007,  0.19000000000E+002,  0.10000000000E+001,  0.00000000000E+000
  0.18201100000E+008,  0.23103338040E+007,  0.19000000000E+002,  0.10000000000E+001,  0.00000000000E+000
  0.18216100000E+008,  0.23272585920E+007,  0.19000000000E+002,  0.10000000000E+001,  0.00000000000E+000
  0.18231100000E+008,  0.23442674012E+007,  0.19000000000E+002,  0.10000000000E+001,  0.00000000000E+000
  0.18246100000E+008,  0.23615599511E+007,  0.19000000000E+002,  0.10000000000E+001,  0.00000000000E+000
  0.18261100000E+008,  0.23788059861E+007,  0.19000000000E+002,  0.10000000000E+001,  0.00000000000E+000
  0.18276100000E+008,  0.23960515172E+007,  0.19000000000E+002,  0.10000000000E+001,  0.00000000000E+000
  0.18291100000E+008,  0.24136885405E+007,  0.19000000000E+002,  0.10000000000E+001,  0.00000000000E+000
  0.18306100000E+008,  0.24314437685E+007,  0.19000000000E+002,  0.10000000000E+001,  0.00000000000E+000
  0.18321100000E+008,  0.24491714814E+007,  0.19000000000E+002,  0.10000000000E+001,  0.00000000000E+000
  0.18336100000E+008,  0.24669457037E+007,  0.19000000000E+002,  0.10000000000E+001,  0.00000000000E+000
  0.18351100000E+008,  0.24849692706E+007,  0.19000000000E+002,  0.10000000000E+001,  0.00000000000E+000
  0.18366100000E+008,  0.25029544727E+007,  0.19000000000E+002,  0.10000000000E+001,  0.00000000000E+000
  0.18381100000E+008,  0.25209396729E+007,  0.19000000000E+002,  0.10000000000E+001,  0.00000000000E+000
  0.18396100000E+008,  0.25392919717E+007,  0.19000000000E+002,  0.10000000000E+001,  0.00000000000E+000
  0.18411100000E+008,  0.25578085664E+007,  0.19000000000E+002,  0.10000000000E+001,  0.00000000000E+000
  0.18426100000E+008,  0.25762929497E+007,  0.19000000000E+002,  0.10000000000E+001,  0.00000000000E+000
  0.18441100000E+008,  0.25948155628E+007,  0.19000000000E+002,  0.10000000000E+001,  0.00000000000E+000
  0.18456100000E+008,  0.26137035028E+007,  0.19000000000E+002,  0.10000000000E+001,  0.00000000000E+000
  0.18471100000E+008,  0.26325381418E+007,  0.19000000000E+002,  0.10000000000E+001,  0.00000000000E+000
  0.18486100000E+008,  0.26513726777E+007,  0.19000000000E+002,  0.10000000000E+001,  0.00000000000E+000
  0.18501100000E+008,  0.26704404260E+007,  0.19000000000E+002,  0.10000000000E+001,  0.00000000000E+000
  0.18516100000E+008,  0.26896582478E+007,  0.19000000000E+002,  0.10000000000E+001,  0.00000000000E+000
  0.18531100000E+008,  0.27088503247E+007,  0.19000000000E+002,  0.10000000000E+001,  0.00000000000E+000
  0.18546100000E+008,  0.27280562894E+007,  0.19000000000E+002,  0.10000000000E+001,  0.00000000000E+000
  0.18561100000E+008,  0.27477644292E+007,  0.19000000000E+002,  0.10000000000E+001,  0.00000000000E+000
  0.18576100000E+008,  0.27674030503E+007,  0.19000000000E+002,  0.10000000000E+001,  0.00000000000E+000
  0.18591100000E+008,  0.27870414627E+007,  0.19000000000E+002,  0.10000000000E+001,  0.00000000000E+000
  0.18606100000E+008,  0.28068004716E+007,  0.19000000000E+002,  0.10000000000E+001,  0.00000000000E+000
  0.18621100000E+008,  0.28266636034E+007,  0.19000000000E+002,  0.10000000000E+001,  0.00000000000E+000
  0.18636100000E+008,  0.28465106058E+007,  0.19000000000E+002,  0.10000000000E+001,  0.00000000000E+000
  0.18651100000E+008,  0.28663577208E+007,  0.19000000000E+002,  0.10000000000E+001,  0.00000000000E+000
  0.18666100000E+008,  0.28869061533E+007,  0.19000000000E+002,  0.10000000000E+001,  0.00000000000E+000
  0.18681100000E+008,  0.29073859163E+007,  0.19000000000E+002,  0.10000000000E+001,  0.00000000000E+000
  0.18696100000E+008,  0.29278621439E+007,  0.19000000000E+002,  0.10000000000E+001,  0.00000000000E+000
  0.18698900000E+008,  0.29316843926E+007,  0.19000000000E+002,  0.10000000000E+001,  0.00000000000E+000
  0.18713900000E+008,  0.29523790770E+007,  0.19000000000E+002,  0.10000000000E+001,  0.00000000000E+000
  0.18728900000E+008,  0.29731791969E+007,  0.19000000000E+002,  0.10000000000E+001,  0.00000000000E+000
  0.18743900000E+008,  0.29940362476E+007,  0.19000000000E+002,  0.10000000000E+001,  0.00000000000E+000
  0.18758900000E+008,  0.30150023737E+007,  0.19000000000E+002,  0.10000000000E+001,  0.00000000000E+000
  0.18773900000E+008,  0.30363142547E+007,  0.19000000000E+002,  0.10000000000E+001,  0.00000000000E+000
  0.18788900000E+008,  0.30575803995E+007,  0.19000000000E+002,  0.10000000000E+001,  0.00000000000E+000
  0.18803900000E+008,  0.30788464681E+007,  0.19000000000E+002,  0.10000000000E+001,  0.00000000000E+000
  0.18818900000E+008,  0.31003732532E+007,  0.19000000000E+002,  0.10000000000E+001,  0.00000000000E+000
  0.18833900000E+008,  0.31220722381E+007,  0.19000000000E+002,  0.10000000000E+001,  0.00000000000E+000
  0.18848900000E+008,  0.31437458484E+007,  0.19000000000E+002,  0.10000000000E+001,  0.00000000000E+000
  0.18863900000E+008,  0.31654347979E+007,  0.19000000000E+002,  0.10000000000E+001,  0.00000000000E+000
  0.18878900000E+008,  0.31876803752E+007,  0.19000000000E+002,  0.10000000000E+001,  0.00000000000E+000
  0.18893900000E+008,  0.32098580912E+007,  0.19000000000E+002,  0.10000000000E+001,  0.00000000000E+000
  0.18908900000E+008,  0.32320355991E+007,  0.19000000000E+002,  0.10000000000E+001,  0.00000000000E+000
  0.18923900000E+008,  0.32545019555E+007,  0.19000000000E+002,  0.10000000000E+001,  0.00000000000E+000
  0.18938900000E+008,  0.32772301791E+007,  0.19000000000E+002,  0.10000000000E+001,  0.00000000000E+000
  0.18953900000E+008,  0.32999231414E+007,  0.19000000000E+002,  0.10000000000E+001,  0.00000000000E+000
  0.18968900000E+008,  0.33226160660E+007,  0.19000000000E+002,  0.10000000000E+001,  0.00000000000E+000
  0.18983900000E+008,  0.33459785812E+007,  0.19000000000E+002,  0.10000000000E+001,  0.00000000000E+000
  0.18998900000E+008,  0.33692909251E+007,  0.19000000000E+002,  0.10000000000E+001,  0.00000000000E+000
  0.19013900000E+008,  0.33925997688E+007,  0.19000000000E+002,  0.10000000000E+001,  0.00000000000E+000
  0.19028900000E+008,  0.34160848145E+007,  0.19000000000E+002,  0.10000000000E+001,  0.00000000000E+000
  0.19043900000E+008,  0.34397798827E+007,  0.19000000000E+002,  0.10000000000E+001,  0.00000000000E+000
  0.19058900000E+008,  0.34634487506E+007,  0.19000000000E+002,  0.10000000000E+001,  0.00000000000E+000
  0.19073900000E+008,  0.34871176119E+007,  0.19000000000E+002,  0.10000000000E+001,  0.00000000000E+000
  0.19088900000E+008,  0.35114369610E+007,  0.19000000000E+002,  0.10000000000E+001,  0.00000000000E+000
  0.19103900000E+008,  0.35357558208E+007,  0.19000000000E+002,  0.10000000000E+001,  0.00000000000E+000
  0.19118900000E+008,  0.35600663995E+007,  0.19000000000E+002,  0.10000000000E+001,  0.00000000000E+000
  0.19133900000E+008,  0.35845718207E+007,  0.19000000000E+002,  0.10000000000E+001,  0.00000000000E+000
  0.19148900000E+008,  0.36093921086E+007,  0.19000000000E+002,  0.10000000000E+001,  0.00000000000E+000
  0.19163900000E+008,  0.36341756599E+007,  0.19000000000E+002,  0.10000000000E+001,  0.00000000000E+000
  0.19178900000E+008,  0.36589591338E+007,  0.19000000000E+002,  0.10000000000E+001,  0.00000000000E+000
  0.19193900000E+008,  0.36843686462E+007,  0.19000000000E+002,  0.10000000000E+001,  0.00000000000E+000
  0.19208900000E+008,  0.37098361696E+007,  0.19000000000E+002,  0.10000000000E+001,  0.00000000000E+000
  0.19223900000E+008,  0.37352901187E+007,  0.19000000000E+002,  0.10000000000E+001,  0.00000000000E+000
  0.19238900000E+008,  0.37608823007E+007,  0.19000000000E+002,  0.10000000000E+001,  0.00000000000E+000
  0.19253900000E+008,  0.37867722551E+007,  0.19000000000E+002,  0.10000000000E+001,  0.00000000000E+000
  0.19268900000E+008,  0.38126295108E+007,  0.19000000000E+002,  0.10000000000E+001,  0.00000000000E+000
  0.19283900000E+008,  0.38384866877E+007,  0.19000000000E+002,  0.10000000000E+001,  0.00000000000E+000
  0.19298900000E+008,  0.38650298457E+007,  0.19000000000E+002,  0.10000000000E+001,  0.00000000000E+000
  0.19313900000E+008,  0.38917034064E+007,  0.19000000000E+002,  0.10000000000E+001,  0.00000000000E+000
  0.19328900000E+008,  0.39183561637E+007,  0.19000000000E+002,  0.10000000000E+001,  0.00000000000E+000
  0.19343900000E+008,  0.39452007958E+007,  0.19000000000E+002,  0.10000000000E+001,  0.00000000000E+000
  0.19358900000E+008,  0.39726333998E+007,  0.19000000000E+002,  0.10000000000E+001,  0.00000000000E+000
  0.19373900000E+008,  0.40000049919E+007,  0.19000000000E+002,  0.10000000000E+001,  0.00000000000E+000
  0.19388900000E+008,  0.40273763566E+007,  0.19000000000E+002,  0.10000000000E+001,  0.00000000000E+000
  0.19403900000E+008,  0.40339725643E+007,  0.19000000000E+002,  0.10000000000E+001,  0.00000000000E+000
  0.19418900000E+008,  0.40339887390E+007,  0.19000000000E+002,  0.10000000000E+001,  0.00000000000E+000
  0.19433900000E+008,  0.40348627992E+007,  0.19000000000E+002,  0.10000000000E+001,  0.00000000000E+000
  0.19448900000E+008,  0.40355654598E+007,  0.19000000000E+002,  0.10000000000E+001,  0.00000000000E+000
  0.19463900000E+008,  0.40354862418E+007,  0.19000000000E+002,  0.10000000000E+001,  0.00000000000E+000
  0.19478900000E+008,  0.40354857543E+007,  0.19000000000E+002,  0.10000000000E+001,  0.00000000000E+000
  0.19493900000E+008,  0.40354856702E+007,  0.19000000000E+002,  0.10000000000E+001,  0.00000000000E+000
  0.19508900000E+008,  0.40360463163E+007,  0.19000000000E+002,  0.10000000000E+001,  0.00000000000E+000
  0.19523900000E+008,  0.40368582136E+007,  0.19000000000E+002,  0.10000000000E+001,  0.00000000000E+000
  0.19538900000E+008,  0.40376397622E+007,  0.19000000000E+002,  0.10000000000E+001,  0.00000000000E+000
  0.19553900000E+008,  0.40383229168E+007,  0.19000000000E+002,  0.10000000000E+001,  0.00000000000E+000
  0.19568900000E+008,  0.40382469942E+007,  0.19000000000E+002,  0.10000000000E+001,  0.00000000000E+000
  0.19583900000E+008,  0.40382466355E+007,  0.19000000000E+002,  0.10000000000E+001,  0.00000000000E+000
  0.19598900000E+008,  0.40382466188E+007,  0.19000000000E+002,  0.10000000000E+001,  0.00000000000E+000
  0.19613900000E+008,  0.40383724056E+007,  0.19000000000E+002,  0.10000000000E+001,  0.00000000000E+000
  0.19628900000E+008,  0.40385769296E+007,  0.19000000000E+002,  0.10000000000E+001,  0.00000000000E+000
  0.19643900000E+008,  0.40387724510E+007,  0.19000000000E+002,  0.10000000000E+001,  0.00000000000E+000
  0.19658900000E+008,  0.40390257764E+007,  0.19000000000E+002,  0.10000000000E+001,  0.00000000000E+000
  0.19673900000E+008,  0.40403001301E+007,  0.19000000000E+002,  0.10000000000E+001,  0.00000000000E+000
  0.19688900000E+008,  0.40414736085E+007,  0.19000000000E+002,  0.10000000000E+001,  0.00000000000E+000
  0.19703900000E+008,  0.40426466305E+007,  0.19000000000E+002,  0.10000000000E+001,  0.00000000000E+000
  0.19718900000E+008,  0.40431429606E+007,  0.19000000000E+002,  0.10000000000E+001,  0.00000000000E+000
  0.19733900000E+008,  0.40430810639E+007,  0.19000000000E+002,  0.10000000000E+001,  0.00000000000E+000
  0.19748900000E+008,  0.40430807639E+007,  0.19000000000E+002,  0.10000000000E+001,  0.00000000000E+000
  0.19763900000E+008,  0.40430807464E+007,  0.19000000000E+002,  0.10000000000E+001,  0.00000000000E+000
  0.19778900000E+008,  0.40431877881E+007,  0.19000000000E+002,  0.10000000000E+001,  0.00000000000E+000
  0.19793900000E+008,  0.40432857746E+007,  0.19000000000E+002,  0.10000000000E+001,  0.00000000000E+000
  0.19805800000E+008,  0.40433633622E+007,  0.19000000000E+002,  0.10000000000E+001,  0.00000000000E+000
  0.19820800000E+008,  0.40434343984E+007,  0.19000000000E+002,  0.10000000000E+001,  0.00000000000E+000
  0.19835800000E+008,  0.40434263272E+007,  0.19000000000E+002,  0.10000000000E+001,  0.00000000000E+000
  0.19850800000E+008,  0.40434262886E+007,  0.19000000000E+002,  0.10000000000E+001,  0.00000000000E+000
  0.19865800000E+008,  0.40434262864E+007,  0.19000000000E+002,  0.10000000000E+001,  0.00000000000E+000
  0.19880800000E+008,  0.40441297428E+007,  0.19000000000E+002,  0.10000000000E+001,  0.00000000000E+000
  0.19895800000E+008,  0.40450377261E+007,  0.19000000000E+002,  0.10000000000E+001,  0.00000000000E+000
  0.19910800000E+008,  0.40459185578E+007,  0.19000000000E+002,  0.10000000000E+001,  0.00000000000E+000
  0.19925800000E+008,  0.40468195626E+007,  0.19000000000E+002,  0.10000000000E+001,  0.00000000000E+000
  0.19940800000E+008,  0.40478070647E+007,  0.19000000000E+002,  0.10000000000E+001,  0.00000000000E+000
  0.19955800000E+008,  0.40487859576E+007,  0.19000000000E+002,  0.10000000000E+001,  0.00000000000E+000
  0.19970800000E+008,  0.40497648015E+007,  0.19000000000E+002,  0.10000000000E+001,  0.00000000000E+000
  0.19985800000E+008,  0.40500343007E+007,  0.19000000000E+002,  0.10000000000E+001,  0.00000000000E+000
  0.20000800000E+008,  0.40499969185E+007,  0.19000000000E+002,  0.10000000000E+001,  0.00000000000E+000
  0.20015800000E+008,  0.40499967305E+007,  0.19000000000E+002,  0.10000000000E+001,  0.00000000000E+000
  0.20030800000E+008,  0.40499967161E+007,  0.19000000000E+002,  0.10000000000E+001,  0.00000000000E+000
  0.20045800000E+008,  0.40499967087E+007,  0.19000000000E+002,  0.10000000000E+001,  0.00000000000E+000
  0.20060800000E+008,  0.40499967043E+007,  0.19000000000E+002,  0.10000000000E+001,  0.00000000000E+000
  0.20075800000E+008,  0.40499967018E+007,  0.19000000000E+002,  0.10000000000E+001,  0.00000000000E+000
  0.20090800000E+008,  0.40505123579E+007,  0.19000000000E+002,  0.10000000000E+001,  0.00000000000E+000
  0.20105800000E+008,  0.40513309037E+007,  0.19000000000E+002,  0.10000000000E+001,  0.00000000000E+000
  0.20120800000E+008,  0.40521145951E+007,  0.19000000000E+002,  0.10000000000E+001,  0.00000000000E+000
  0.20135800000E+008,  0.40528459838E+007,  0.19000000000E+002,  0.10000000000E+001,  0.00000000000E+000
  0.20150800000E+008,  0.40527655935E+007,  0.19000000000E+002,  0.10000000000E+001,  0.00000000000E+000
  0.20165800000E+008,  0.40527652188E+007,  0.19000000000E+002,  0.10000000000E+001,  0.00000000000E+000
  0.20180800000E+008,  0.40527652033E+007,  0.19000000000E+002,  0.10000000000E+001,  0.00000000000E+000
  0.20195800000E+008,  0.40527651962E+007,  0.19000000000E+002,  0.10000000000E+001,  0.00000000000E+000
  0.20210800000E+008,  0.40527651921E+007,  0.19000000000E+002,  0.10000000000E+001,  0.00000000000E+000
  0.20225800000E+008,  0.40527651897E+007,  0.19000000000E+002,  0.10000000000E+001,  0.00000000000E+000
  0.20240800000E+008,  0.40527651883E+007,  0.19000000000E+002,  0.10000000000E+001,  0.00000000000E+000
  0.20255800000E+008,  0.40527651875E+007,  0.19000000000E+002,  0.10000000000E+001,  0.00000000000E+000
  0.20270800000E+008,  0.40527651870E+007,  0.19000000000E+002,  0.10000000000E+001,  0.00000000000E+000
  0.20285800000E+008,  0.40527651867E+007,  0.19000000000E+002,  0.10000000000E+001,  0.00000000000E+000
  0.20300800000E+008,  0.40531204521E+007,  0.19000000000E+002,  0.10000000000E+001,  0.00000000000E+000
  0.20315800000E+008,  0.40538469346E+007,  0.19000000000E+002,  0.10000000000E+001,  0.00000000000E+000
  0.20330800000E+008,  0.40545335037E+007,  0.19000000000E+002,  0.10000000000E+001,  0.00000000000E+000
  0.20345800000E+008,  0.40552198897E+007,  0.19000000000E+002,  0.10000000000E+001,  0.00000000000E+000
  0.20360800000E+008,  0.40551957874E+007,  0.19000000000E+002,  0.10000000000E+001,  0.00000000000E+000
  0.20375800000E+008,  0.40551904725E+007,  0.19000000000E+002,  0.10000000000E+001,  0.00000000000E+000
  0.20390800000E+008,  0.40551904362E+007,  0.19000000000E+002,  0.10000000000E+001,  0.00000000000E+000
