"           TIME(S)","              PRES","              TEMP","             SAT_G","             SAT_L"
  0.17593600000E+008,  0.20998670694E+007,  0.19000000000E+002,  0.10000000000E+001,  0.00000000000E+000
  0.17601100000E+008,  0.20998007659E+007,  0.19000000000E+002,  0.10000000000E+001,  0.00000000000E+000
  0.17616100000E+008,  0.20998010860E+007,  0.19000000000E+002,  0.10000000000E+001,  0.00000000000E+000
  0.17631100000E+008,  0.20998005489E+007,  0.19000000000E+002,  0.10000000000E+001,  0.00000000000E+000
  0.17646100000E+008,  0.20998002685E+007,  0.19000000000E+002,  0.10000000000E+001,  0.00000000000E+000
  0.17661100000E+008,  0.20998001227E+007,  0.19000000000E+002,  0.10000000000E+001,  0.00000000000E+000
  0.17676100000E+008,  0.20998000461E+007,  0.19000000000E+002,  0.10000000000E+001,  0.00000000000E+000
  0.17691100000E+008,  0.20998000055E+007,  0.19000000000E+002,  0.10000000000E+001,  0.00000000000E+000
  0.17706100000E+008,  0.20997999839E+007,  0.19000000000E+002,  0.10000000000E+001,  0.00000000000E+000
  0.17721100000E+008,  0.20997999724E+007,  0.19000000000E+002,  0.10000000000E+001,  0.00000000000E+000
  0.17736100000E+008,  0.20997999663E+007,  0.19000000000E+002,  0.10000000000E+001,  0.00000000000E+000
  0.17751100000E+008,  0.20997999630E+007,  0.19000000000E+002,  0.10000000000E+001,  0.00000000000E+000
  0.17766100000E+008,  0.20997999612E+007,  0.19000000000E+002,  0.10000000000E+001,  0.00000000000E+000
  0.17781100000E+008,  0.20997999603E+007,  0.19000000000E+002,  0.10000000000E+001,  0.00000000000E+000
  0.17796100000E+008,  0.20997999598E+007,  0.19000000000E+002,  0.10000000000E+001,  0.00000000000E+000
  0.17811100000E+008,  0.20997999595E+007,  0.19000000000E+002,  0.10000000000E+001,  0.00000000000E+000
  0.17826100000E+008,  0.20997999594E+007,  0.19000000000E+002,  0.10000000000E+001,  0.00000000000E+000
  0.17841100000E+008,  0.20997999593E+007,  0.19000000000E+002,  0.10000000000E+001,  0.00000000000E+000
  0.17856100000E+008,  0.20997999593E+007,  0.19000000000E+002,  0.10000000000E+001,  0.00000000000E+000
  0.17871100000E+008,  0.21035565008E+007,  0.19000000000E+002,  0.10000000000E+001,  0.00000000000E+000
  0.17886100000E+008,  0.21069074947E+007,  0.19000000000E+002,  0.10000000000E+001,  0.00000000000E+000
  0.17901100000E+008,  0.21102120653E+007,  0.19000000000E+002,  0.10000000000E+001,  0.00000000000E+000
  0.17916100000E+008,  0.21150795509E+007,  0.19000000000E+002,  0.10000000000E+001,  0.00000000000E+000
  0.17931100000E+008,  0.21219589232E+007,  0.19000000000E+002,  0.10000000000E+001,  0.00000000000E+000
  0.17946100000E+008,  0.21284466958E+007,  0.19000000000E+002,  0.10000000000E+001,  0.00000000000E+000
  0.17961100000E+008,  0.21349312780E+007,  0.19000000000E+002,  0.10000000000E+001,  0.00000000000E+000
  0.17976100000E+008,  0.21413635339E+007,  0.19000000000E+002,  0.10000000000E+001,  0.00000000000E+000
  0.17991100000E+008,  0.21477975549E+007,  0.19000000000E+002,  0.10000000000E+001,  0.00000000000E+000
  0.18006100000E+008,  0.21542328790E+007,  0.19000000000E+002,  0.10000000000E+001,  0.00000000000E+000
  0.18021100000E+008,  0.21607094966E+007,  0.19000000000E+002,  0.10000000000E+001,  0.00000000000E+000
  0.18036100000E+008,  0.21672569094E+007,  0.19000000000E+002,  0.10000000000E+001,  0.00000000000E+000
  0.18051100000E+008,  0.21737912412E+007,  0.19000000000E+002,  0.10000000000E+001,  0.00000000000E+000
  0.18066100000E+008,  0.21803254928E+007,  0.19000000000E+002,  0.10000000000E+001,  0.00000000000E+000
  0.18081100000E+008,  0.21910361457E+007,  0.19000000000E+002,  0.10000000000E+001,  0.00000000000E+000
  0.18096100000E+008,  0.22020080640E+007,  0.19000000000E+002,  0.10000000000E+001,  0.00000000000E+000
  0.18111100000E+008,  0.22128155358E+007,  0.19000000000E+002,  0.10000000000E+001,  0.00000000000E+000
  0.18126100000E+008,  0.22255961228E+007,  0.19000000000E+002,  0.10000000000E+001,  0.00000000000E+000
  0.18141100000E+008,  0.22431213585E+007,  0.19000000000E+002,  0.10000000000E+001,  0.00000000000E+000
  0.18156100000E+008,  0.22598126890E+007,  0.19000000000E+002,  0.10000000000E+001,  0.00000000000E+000
  0.18171100000E+008,  0.22764978989E+007,  0.19000000000E+002,  0.10000000000E+001,  0.00000000000E+000
  0.18186100000E+008,  0.22933978756E+007,  0.19000000000E+002,  0.10000000000E+001,  0.00000000000E+000
  0.18201100000E+008,  0.23103338073E+007,  0.19000000000E+002,  0.10000000000E+001,  0.00000000000E+000
  0.18216100000E+008,  0.23272585955E+007,  0.19000000000E+002,  0.10000000000E+001,  0.00000000000E+000
  0.18231100000E+008,  0.23442674047E+007,  0.19000000000E+002,  0.10000000000E+001,  0.00000000000E+000
  0.18246100000E+008,  0.23615599546E+007,  0.19000000000E+002,  0.10000000000E+001,  0.00000000000E+000
  0.18261100000E+008,  0.23788059897E+007,  0.19000000000E+002,  0.10000000000E+001,  0.00000000000E+000
  0.18276100000E+008,  0.23960515208E+007,  0.19000000000E+002,  0.10000000000E+001,  0.00000000000E+000
  0.18291100000E+008,  0.24136885441E+007,  0.19000000000E+002,  0.10000000000E+001,  0.00000000000E+000
  0.18306100000E+008,  0.24314437721E+007,  0.19000000000E+002,  0.10000000000E+001,  0.00000000000E+000
  0.18321100000E+008,  0.24491714850E+007,  0.19000000000E+002,  0.10000000000E+001,  0.00000000000E+000
  0.18336100000E+008,  0.24669457073E+007,  0.19000000000E+002,  0.10000000000E+001,  0.00000000000E+000
  0.18351100000E+008,  0.24849692742E+007,  0.19000000000E+002,  0.10000000000E+001,  0.00000000000E+000
  0.18366100000E+008,  0.25029544763E+007,  0.19000000000E+002,  0.10000000000E+001,  0.00000000000E+000
  0.18381100000E+008,  0.25209396765E+007,  0.19000000000E+002,  0.10000000000E+001,  0.00000000000E+000
  0.18396100000E+008,  0.25392919753E+007,  0.19000000000E+002,  0.10000000000E+001,  0.00000000000E+000
  0.18411100000E+008,  0.25578085699E+007,  0.19000000000E+002,  0.10000000000E+001,  0.00000000000E+000
  0.18426100000E+008,  0.25762929533E+007,  0.19000000000E+002,  0.10000000000E+001,  0.00000000000E+000
  0.18441100000E+008,  0.25948155664E+007,  0.19000000000E+002,  0.10000000000E+001,  0.00000000000E+000
  0.18456100000E+008,  0.26137035064E+007,  0.19000000000E+002,  0.10000000000E+001,  0.00000000000E+000
  0.18471100000E+008,  0.26325381454E+007,  0.19000000000E+002,  0.10000000000E+001,  0.00000000000E+000
  0.18486100000E+008,  0.26513726812E+007,  0.19000000000E+002,  0.10000000000E+001,  0.00000000000E+000
  0.18501100000E+008,  0.26704404296E+007,  0.19000000000E+002,  0.10000000000E+001,  0.00000000000E+000
  0.18516100000E+008,  0.26896582514E+007,  0.19000000000E+002,  0.10000000000E+001,  0.00000000000E+000
  0.18531100000E+008,  0.27088503283E+007,  0.19000000000E+002,  0.10000000000E+001,  0.00000000000E+000
  0.18546100000E+008,  0.27280562930E+007,  0.19000000000E+002,  0.10000000000E+001,  0.00000000000E+000
  0.18561100000E+008,  0.27477644327E+007,  0.19000000000E+002,  0.10000000000E+001,  0.00000000000E+000
  0.18576100000E+008,  0.27674030538E+007,  0.19000000000E+002,  0.10000000000E+001,  0.00000000000E+000
  0.18591100000E+008,  0.27870414663E+007,  0.19000000000E+002,  0.10000000000E+001,  0.00000000000E+000
  0.18606100000E+008,  0.28068004752E+007,  0.19000000000E+002,  0.10000000000E+001,  0.00000000000E+000
  0.18621100000E+008,  0.28266636069E+007,  0.19000000000E+002,  0.10000000000E+001,  0.00000000000E+000
  0.18636100000E+008,  0.28465106094E+007,  0.19000000000E+002,  0.10000000000E+001,  0.00000000000E+000
  0.18651100000E+008,  0.28663577244E+007,  0.19000000000E+002,  0.10000000000E+001,  0.00000000000E+000
  0.18666100000E+008,  0.28869061569E+007,  0.19000000000E+002,  0.10000000000E+001,  0.00000000000E+000
  0.18681100000E+008,  0.29073859199E+007,  0.19000000000E+002,  0.10000000000E+001,  0.00000000000E+000
  0.18696100000E+008,  0.29278621475E+007,  0.19000000000E+002,  0.10000000000E+001,  0.00000000000E+000
  0.18698900000E+008,  0.29316843961E+007,  0.19000000000E+002,  0.10000000000E+001,  0.00000000000E+000
  0.18713900000E+008,  0.29523790805E+007,  0.19000000000E+002,  0.10000000000E+001,  0.00000000000E+000
  0.18728900000E+008,  0.29731792005E+007,  0.19000000000E+002,  0.10000000000E+001,  0.00000000000E+000
  0.18743900000E+008,  0.29940362512E+007,  0.19000000000E+002,  0.10000000000E+001,  0.00000000000E+000
  0.18758900000E+008,  0.30150023773E+007,  0.19000000000E+002,  0.10000000000E+001,  0.00000000000E+000
  0.18773900000E+008,  0.30363142583E+007,  0.19000000000E+002,  0.10000000000E+001,  0.00000000000E+000
  0.18788900000E+008,  0.30575804031E+007,  0.19000000000E+002,  0.10000000000E+001,  0.00000000000E+000
  0.18803900000E+008,  0.30788464717E+007,  0.19000000000E+002,  0.10000000000E+001,  0.00000000000E+000
  0.18818900000E+008,  0.31003732568E+007,  0.19000000000E+002,  0.10000000000E+001,  0.00000000000E+000
  0.18833900000E+008,  0.31220722417E+007,  0.19000000000E+002,  0.10000000000E+001,  0.00000000000E+000
  0.18848900000E+008,  0.31437458520E+007,  0.19000000000E+002,  0.10000000000E+001,  0.00000000000E+000
  0.18863900000E+008,  0.31654348015E+007,  0.19000000000E+002,  0.10000000000E+001,  0.00000000000E+000
  0.18878900000E+008,  0.31876803788E+007,  0.19000000000E+002,  0.10000000000E+001,  0.00000000000E+000
  0.18893900000E+008,  0.32098580948E+007,  0.19000000000E+002,  0.10000000000E+001,  0.00000000000E+000
  0.18908900000E+008,  0.32320356027E+007,  0.19000000000E+002,  0.10000000000E+001,  0.00000000000E+000
  0.18923900000E+008,  0.32545019590E+007,  0.19000000000E+002,  0.10000000000E+001,  0.00000000000E+000
  0.18938900000E+008,  0.32772301827E+007,  0.19000000000E+002,  0.10000000000E+001,  0.00000000000E+000
  0.18953900000E+008,  0.32999231454E+007,  0.19000000000E+002,  0.10000000000E+001,  0.00000000000E+000
  0.18968900000E+008,  0.33226160702E+007,  0.19000000000E+002,  0.10000000000E+001,  0.00000000000E+000
  0.18983900000E+008,  0.33459785855E+007,  0.19000000000E+002,  0.10000000000E+001,  0.00000000000E+000
  0.18998900000E+008,  0.33692909294E+007,  0.19000000000E+002,  0.10000000000E+001,  0.00000000000E+000
  0.19013900000E+008,  0.33925997731E+007,  0.19000000000E+002,  0.10000000000E+001,  0.00000000000E+000
  0.19028900000E+008,  0.34160848189E+007,  0.19000000000E+002,  0.10000000000E+001,  0.00000000000E+000
  0.19043900000E+008,  0.34397798873E+007,  0.19000000000E+002,  0.10000000000E+001,  0.00000000000E+000
  0.19058900000E+008,  0.34634487553E+007,  0.19000000000E+002,  0.10000000000E+001,  0.00000000000E+000
  0.19073900000E+008,  0.34871176167E+007,  0.19000000000E+002,  0.10000000000E+001,  0.00000000000E+000
  0.19088900000E+008,  0.35114369659E+007,  0.19000000000E+002,  0.10000000000E+001,  0.00000000000E+000
  0.19103900000E+008,  0.35357558259E+007,  0.19000000000E+002,  0.10000000000E+001,  0.00000000000E+000
  0.19118900000E+008,  0.35600664046E+007,  0.19000000000E+002,  0.10000000000E+001,  0.00000000000E+000
  0.19133900000E+008,  0.35845718255E+007,  0.19000000000E+002,  0.10000000000E+001,  0.00000000000E+000
  0.19148900000E+008,  0.36093921133E+007,  0.19000000000E+002,  0.10000000000E+001,  0.00000000000E+000
  0.19163900000E+008,  0.36341756644E+007,  0.19000000000E+002,  0.10000000000E+001,  0.00000000000E+000
  0.19178900000E+008,  0.36589591380E+007,  0.19000000000E+002,  0.10000000000E+001,  0.00000000000E+000
  0.19193900000E+008,  0.36843686504E+007,  0.19000000000E+002,  0.10000000000E+001,  0.00000000000E+000
  0.19208900000E+008,  0.37098361739E+007,  0.19000000000E+002,  0.10000000000E+001,  0.00000000000E+000
  0.19223900000E+008,  0.37352901232E+007,  0.19000000000E+002,  0.10000000000E+001,  0.00000000000E+000
  0.19238900000E+008,  0.37608823054E+007,  0.19000000000E+002,  0.10000000000E+001,  0.00000000000E+000
  0.19253900000E+008,  0.37867722595E+007,  0.19000000000E+002,  0.10000000000E+001,  0.00000000000E+000
  0.19268900000E+008,  0.38126295149E+007,  0.19000000000E+002,  0.10000000000E+001,  0.00000000000E+000
  0.19283900000E+008,  0.38384866917E+007,  0.19000000000E+002,  0.10000000000E+001,  0.00000000000E+000
  0.19298900000E+008,  0.38650298496E+007,  0.19000000000E+002,  0.10000000000E+001,  0.00000000000E+000
  0.19313900000E+008,  0.38917034103E+007,  0.19000000000E+002,  0.10000000000E+001,  0.00000000000E+000
  0.19328900000E+008,  0.39183561676E+007,  0.19000000000E+002,  0.10000000000E+001,  0.00000000000E+000
  0.19343900000E+008,  0.39452007997E+007,  0.19000000000E+002,  0.10000000000E+001,  0.00000000000E+000
  0.19358900000E+008,  0.39726334037E+007,  0.19000000000E+002,  0.10000000000E+001,  0.00000000000E+000
  0.19373900000E+008,  0.40000049959E+007,  0.19000000000E+002,  0.10000000000E+001,  0.00000000000E+000
  0.19388900000E+008,  0.40273763605E+007,  0.19000000000E+002,  0.10000000000E+001,  0.00000000000E+000
  0.19403900000E+008,  0.40339725682E+007,  0.19000000000E+002,  0.10000000000E+001,  0.00000000000E+000
  0.19418900000E+008,  0.40339887429E+007,  0.19000000000E+002,  0.10000000000E+001,  0.00000000000E+000
  0.19433900000E+008,  0.40348628033E+007,  0.19000000000E+002,  0.10000000000E+001,  0.00000000000E+000
  0.19448900000E+008,  0.40355654640E+007,  0.19000000000E+002,  0.10000000000E+001,  0.00000000000E+000
  0.19463900000E+008,  0.40354862460E+007,  0.19000000000E+002,  0.10000000000E+001,  0.00000000000E+000
  0.19478900000E+008,  0.40354857584E+007,  0.19000000000E+002,  0.10000000000E+001,  0.00000000000E+000
  0.19493900000E+008,  0.40354856743E+007,  0.19000000000E+002,  0.10000000000E+001,  0.00000000000E+000
  0.19508900000E+008,  0.40360463204E+007,  0.19000000000E+002,  0.10000000000E+001,  0.00000000000E+000
  0.19523900000E+008,  0.40368582178E+007,  0.19000000000E+002,  0.10000000000E+001,  0.00000000000E+000
  0.19538900000E+008,  0.40376397664E+007,  0.19000000000E+002,  0.10000000000E+001,  0.00000000000E+000
  0.19553900000E+008,  0.40383229210E+007,  0.19000000000E+002,  0.10000000000E+001,  0.00000000000E+000
  0.19568900000E+008,  0.40382469983E+007,  0.19000000000E+002,  0.10000000000E+001,  0.00000000000E+000
  0.19583900000E+008,  0.40382466396E+007,  0.19000000000E+002,  0.10000000000E+001,  0.00000000000E+000
  0.19598900000E+008,  0.40382466229E+007,  0.19000000000E+002,  0.10000000000E+001,  0.00000000000E+000
  0.19613900000E+008,  0.40383724097E+007,  0.19000000000E+002,  0.10000000000E+001,  0.00000000000E+000
  0.19628900000E+008,  0.40385769337E+007,  0.19000000000E+002,  0.10000000000E+001,  0.00000000000E+000
  0.19643900000E+008,  0.40387724551E+007,  0.19000000000E+002,  0.10000000000E+001,  0.00000000000E+000
  0.19658900000E+008,  0.40390257805E+007,  0.19000000000E+002,  0.10000000000E+001,  0.00000000000E+000
  0.19673900000E+008,  0.40403001343E+007,  0.19000000000E+002,  0.10000000000E+001,  0.00000000000E+000
  0.19688900000E+008,  0.40414736126E+007,  0.19000000000E+002,  0.10000000000E+001,  0.00000000000E+000
  0.19703900000E+008,  0.40426466346E+007,  0.19000000000E+002,  0.10000000000E+001,  0.00000000000E+000
  0.19718900000E+008,  0.40431429648E+007,  0.19000000000E+002,  0.10000000000E+001,  0.00000000000E+000
  0.19733900000E+008,  0.40430810681E+007,  0.19000000000E+002,  0.10000000000E+001,  0.00000000000E+000
  0.19748900000E+008,  0.40430807680E+007,  0.19000000000E+002,  0.10000000000E+001,  0.00000000000E+000
  0.19763900000E+008,  0.40430807505E+007,  0.19000000000E+002,  0.10000000000E+001,  0.00000000000E+000
  0.19778900000E+008,  0.40431877923E+007,  0.19000000000E+002,  0.10000000000E+001,  0.00000000000E+000
  0.19793900000E+008,  0.40432857788E+007,  0.19000000000E+002,  0.10000000000E+001,  0.00000000000E+000
  0.19805800000E+008,  0.40433633663E+007,  0.19000000000E+002,  0.10000000000E+001,  0.00000000000E+000
  0.19820800000E+008,  0.40434344025E+007,  0.19000000000E+002,  0.10000000000E+001,  0.00000000000E+000
  0.19835800000E+008,  0.40434263314E+007,  0.19000000000E+002,  0.10000000000E+001,  0.00000000000E+000
  0.19850800000E+008,  0.40434262927E+007,  0.19000000000E+002,  0.10000000000E+001,  0.00000000000E+000
  0.19865800000E+008,  0.40434262906E+007,  0.19000000000E+002,  0.10000000000E+001,  0.00000000000E+000
  0.19880800000E+008,  0.40441297469E+007,  0.19000000000E+002,  0.10000000000E+001,  0.00000000000E+000
  0.19895800000E+008,  0.40450377302E+007,  0.19000000000E+002,  0.10000000000E+001,  0.00000000000E+000
  0.19910800000E+008,  0.40459185620E+007,  0.19000000000E+002,  0.10000000000E+001,  0.00000000000E+000
  0.19925800000E+008,  0.40468195668E+007,  0.19000000000E+002,  0.10000000000E+001,  0.00000000000E+000
  0.19940800000E+008,  0.40478070688E+007,  0.19000000000E+002,  0.10000000000E+001,  0.00000000000E+000
  0.19955800000E+008,  0.40487859618E+007,  0.19000000000E+002,  0.10000000000E+001,  0.00000000000E+000
  0.19970800000E+008,  0.40497648057E+007,  0.19000000000E+002,  0.10000000000E+001,  0.00000000000E+000
  0.19985800000E+008,  0.40500343048E+007,  0.19000000000E+002,  0.10000000000E+001,  0.00000000000E+000
  0.20000800000E+008,  0.40499969227E+007,  0.19000000000E+002,  0.10000000000E+001,  0.00000000000E+000
  0.20015800000E+008,  0.40499967346E+007,  0.19000000000E+002,  0.10000000000E+001,  0.00000000000E+000
  0.20030800000E+008,  0.40499967203E+007,  0.19000000000E+002,  0.10000000000E+001,  0.00000000000E+000
  0.20045800000E+008,  0.40499967128E+007,  0.19000000000E+002,  0.10000000000E+001,  0.00000000000E+000
  0.20060800000E+008,  0.40499967085E+007,  0.19000000000E+002,  0.10000000000E+001,  0.00000000000E+000
  0.20075800000E+008,  0.40499967060E+007,  0.19000000000E+002,  0.10000000000E+001,  0.00000000000E+000
  0.20090800000E+008,  0.40505123621E+007,  0.19000000000E+002,  0.10000000000E+001,  0.00000000000E+000
  0.20105800000E+008,  0.40513309079E+007,  0.19000000000E+002,  0.10000000000E+001,  0.00000000000E+000
  0.20120800000E+008,  0.40521145993E+007,  0.19000000000E+002,  0.10000000000E+001,  0.00000000000E+000
  0.20135800000E+008,  0.40528459880E+007,  0.19000000000E+002,  0.10000000000E+001,  0.00000000000E+000
  0.20150800000E+008,  0.40527655977E+007,  0.19000000000E+002,  0.10000000000E+001,  0.00000000000E+000
  0.20165800000E+008,  0.40527652230E+007,  0.19000000000E+002,  0.10000000000E+001,  0.00000000000E+000
  0.20180800000E+008,  0.40527652074E+007,  0.19000000000E+002,  0.10000000000E+001,  0.00000000000E+000
  0.20195800000E+008,  0.40527652004E+007,  0.19000000000E+002,  0.10000000000E+001,  0.00000000000E+000
  0.20210800000E+008,  0.40527651963E+007,  0.19000000000E+002,  0.10000000000E+001,  0.00000000000E+000
  0.20225800000E+008,  0.40527651939E+007,  0.19000000000E+002,  0.10000000000E+001,  0.00000000000E+000
  0.20240800000E+008,  0.40527651925E+007,  0.19000000000E+002,  0.10000000000E+001,  0.00000000000E+000
  0.20255800000E+008,  0.40527651917E+007,  0.19000000000E+002,  0.10000000000E+001,  0.00000000000E+000
  0.20270800000E+008,  0.40527651912E+007,  0.19000000000E+002,  0.10000000000E+001,  0.00000000000E+000
  0.20285800000E+008,  0.40527651909E+007,  0.19000000000E+002,  0.10000000000E+001,  0.00000000000E+000
  0.20300800000E+008,  0.40531204563E+007,  0.19000000000E+002,  0.10000000000E+001,  0.00000000000E+000
  0.20315800000E+008,  0.40538469387E+007,  0.19000000000E+002,  0.10000000000E+001,  0.00000000000E+000
  0.20330800000E+008,  0.40545335078E+007,  0.19000000000E+002,  0.10000000000E+001,  0.00000000000E+000
  0.20345800000E+008,  0.40552198939E+007,  0.19000000000E+002,  0.10000000000E+001,  0.00000000000E+000
  0.20360800000E+008,  0.40551957915E+007,  0.19000000000E+002,  0.10000000000E+001,  0.00000000000E+000
  0.20375800000E+008,  0.40551904766E+007,  0.19000000000E+002,  0.10000000000E+001,  0.00000000000E+000
  0.20390800000E+008,  0.40551904403E+007,  0.19000000000E+002,  0.10000000000E+001,  0.00000000000E+000
