"           TIME(S)","              PRES","              TEMP","             SAT_G","             SAT_L"
  0.12359570000E+006,  0.16929591170E+006,  0.16500000000E+002,  0.00000000000E+000,  0.10000000000E+001
  0.12360070000E+006,  0.16926368632E+006,  0.16500000000E+002,  0.00000000000E+000,  0.10000000000E+001
  0.12362570000E+006,  0.16926373060E+006,  0.16500000000E+002,  0.00000000000E+000,  0.10000000000E+001
  0.12364070000E+006,  0.16937363838E+006,  0.16500000000E+002,  0.00000000000E+000,  0.10000000000E+001
  0.12370070000E+006,  0.17377378527E+006,  0.16500000000E+002,  0.00000000000E+000,  0.10000000000E+001
  0.12376070000E+006,  0.18216817801E+006,  0.16500000000E+002,  0.00000000000E+000,  0.10000000000E+001
  0.12382070000E+006,  0.19338889784E+006,  0.16500000000E+002,  0.00000000000E+000,  0.10000000000E+001
  0.12388070000E+006,  0.20601978547E+006,  0.16500000000E+002,  0.00000000000E+000,  0.10000000000E+001
  0.12394070000E+006,  0.21898661550E+006,  0.16500000000E+002,  0.00000000000E+000,  0.10000000000E+001
  0.12400070000E+006,  0.23179615166E+006,  0.16500000000E+002,  0.00000000000E+000,  0.10000000000E+001
  0.12406070000E+006,  0.24378750861E+006,  0.16500000000E+002,  0.00000000000E+000,  0.10000000000E+001
  0.12412070000E+006,  0.25460605935E+006,  0.16500000000E+002,  0.00000000000E+000,  0.10000000000E+001
  0.12418070000E+006,  0.26420978492E+006,  0.16500000000E+002,  0.00000000000E+000,  0.10000000000E+001
  0.12424070000E+006,  0.27301230389E+006,  0.16500000000E+002,  0.00000000000E+000,  0.10000000000E+001
  0.12430070000E+006,  0.28118943769E+006,  0.16500000000E+002,  0.00000000000E+000,  0.10000000000E+001
  0.12436070000E+006,  0.28961756575E+006,  0.16500000000E+002,  0.00000000000E+000,  0.10000000000E+001
  0.12442070000E+006,  0.29797118397E+006,  0.16500000000E+002,  0.00000000000E+000,  0.10000000000E+001
  0.12448070000E+006,  0.30624366903E+006,  0.16500000000E+002,  0.00000000000E+000,  0.10000000000E+001
  0.12454070000E+006,  0.31450314014E+006,  0.16500000000E+002,  0.00000000000E+000,  0.10000000000E+001
  0.12460070000E+006,  0.32276692130E+006,  0.16500000000E+002,  0.00000000000E+000,  0.10000000000E+001
  0.12466070000E+006,  0.33099710400E+006,  0.16500000000E+002,  0.00000000000E+000,  0.10000000000E+001
  0.12472070000E+006,  0.33917107653E+006,  0.16500000000E+002,  0.00000000000E+000,  0.10000000000E+001
  0.12478070000E+006,  0.34728801514E+006,  0.16500000000E+002,  0.00000000000E+000,  0.10000000000E+001
  0.12484070000E+006,  0.35534292945E+006,  0.16500000000E+002,  0.00000000000E+000,  0.10000000000E+001
  0.12490070000E+006,  0.36332799958E+006,  0.16500000000E+002,  0.00000000000E+000,  0.10000000000E+001
  0.12496070000E+006,  0.37123454651E+006,  0.16500000000E+002,  0.00000000000E+000,  0.10000000000E+001
  0.12502070000E+006,  0.37905391201E+006,  0.16500000000E+002,  0.00000000000E+000,  0.10000000000E+001
  0.12508070000E+006,  0.38677789163E+006,  0.16500000000E+002,  0.00000000000E+000,  0.10000000000E+001
  0.12514070000E+006,  0.39439895812E+006,  0.16500000000E+002,  0.00000000000E+000,  0.10000000000E+001
  0.12520070000E+006,  0.40191036361E+006,  0.16500000000E+002,  0.00000000000E+000,  0.10000000000E+001
  0.12526070000E+006,  0.40930617082E+006,  0.16500000000E+002,  0.00000000000E+000,  0.10000000000E+001
  0.12532070000E+006,  0.41658124395E+006,  0.16500000000E+002,  0.00000000000E+000,  0.10000000000E+001
  0.12538070000E+006,  0.42373121712E+006,  0.16500000000E+002,  0.00000000000E+000,  0.10000000000E+001
  0.12544070000E+006,  0.43075245065E+006,  0.16500000000E+002,  0.00000000000E+000,  0.10000000000E+001
  0.12550070000E+006,  0.43764198117E+006,  0.16500000000E+002,  0.00000000000E+000,  0.10000000000E+001
  0.12556070000E+006,  0.44439746919E+006,  0.16500000000E+002,  0.00000000000E+000,  0.10000000000E+001
  0.12562070000E+006,  0.45101714648E+006,  0.16500000000E+002,  0.00000000000E+000,  0.10000000000E+001
  0.12568070000E+006,  0.45749976461E+006,  0.16500000000E+002,  0.00000000000E+000,  0.10000000000E+001
  0.12574070000E+006,  0.46384454575E+006,  0.16500000000E+002,  0.00000000000E+000,  0.10000000000E+001
  0.12580070000E+006,  0.47005113596E+006,  0.16500000000E+002,  0.00000000000E+000,  0.10000000000E+001
  0.12586070000E+006,  0.47611956143E+006,  0.16500000000E+002,  0.00000000000E+000,  0.10000000000E+001
  0.12592070000E+006,  0.48205018785E+006,  0.16500000000E+002,  0.00000000000E+000,  0.10000000000E+001
  0.12598070000E+006,  0.48784368273E+006,  0.16500000000E+002,  0.00000000000E+000,  0.10000000000E+001
  0.12604070000E+006,  0.49349711347E+006,  0.16500000000E+002,  0.00000000000E+000,  0.10000000000E+001
  0.12610070000E+006,  0.49899963580E+006,  0.16500000000E+002,  0.00000000000E+000,  0.10000000000E+001
  0.12616070000E+006,  0.50433487101E+006,  0.16500000000E+002,  0.00000000000E+000,  0.10000000000E+001
  0.12622070000E+006,  0.50948722328E+006,  0.16500000000E+002,  0.00000000000E+000,  0.10000000000E+001
  0.12628070000E+006,  0.51444652163E+006,  0.16500000000E+002,  0.00000000000E+000,  0.10000000000E+001
  0.12634070000E+006,  0.51920924278E+006,  0.16500000000E+002,  0.00000000000E+000,  0.10000000000E+001
  0.12640070000E+006,  0.52377734776E+006,  0.16500000000E+002,  0.00000000000E+000,  0.10000000000E+001
  0.12646070000E+006,  0.52815642273E+006,  0.16500000000E+002,  0.00000000000E+000,  0.10000000000E+001
  0.12652070000E+006,  0.53235400256E+006,  0.16500000000E+002,  0.00000000000E+000,  0.10000000000E+001
  0.12658070000E+006,  0.53637844581E+006,  0.16500000000E+002,  0.00000000000E+000,  0.10000000000E+001
  0.12664070000E+006,  0.54023830892E+006,  0.16500000000E+002,  0.00000000000E+000,  0.10000000000E+001
  0.12670070000E+006,  0.54394202715E+006,  0.16500000000E+002,  0.00000000000E+000,  0.10000000000E+001
  0.12676070000E+006,  0.54749772598E+006,  0.16500000000E+002,  0.00000000000E+000,  0.10000000000E+001
  0.12682070000E+006,  0.55091310608E+006,  0.16500000000E+002,  0.00000000000E+000,  0.10000000000E+001
  0.12688070000E+006,  0.55419540166E+006,  0.16500000000E+002,  0.00000000000E+000,  0.10000000000E+001
  0.12694070000E+006,  0.55735138830E+006,  0.16500000000E+002,  0.00000000000E+000,  0.10000000000E+001
  0.12700070000E+006,  0.56038741412E+006,  0.16500000000E+002,  0.00000000000E+000,  0.10000000000E+001
  0.12706070000E+006,  0.56330943115E+006,  0.16500000000E+002,  0.00000000000E+000,  0.10000000000E+001
  0.12712070000E+006,  0.56612301654E+006,  0.16500000000E+002,  0.00000000000E+000,  0.10000000000E+001
  0.12718070000E+006,  0.56883338662E+006,  0.16500000000E+002,  0.00000000000E+000,  0.10000000000E+001
  0.12724070000E+006,  0.57144542474E+006,  0.16500000000E+002,  0.00000000000E+000,  0.10000000000E+001
  0.12730070000E+006,  0.57396371235E+006,  0.16500000000E+002,  0.00000000000E+000,  0.10000000000E+001
  0.12736070000E+006,  0.57639255397E+006,  0.16500000000E+002,  0.00000000000E+000,  0.10000000000E+001
  0.12742070000E+006,  0.57873599637E+006,  0.16500000000E+002,  0.00000000000E+000,  0.10000000000E+001
  0.12748070000E+006,  0.58099784377E+006,  0.16500000000E+002,  0.00000000000E+000,  0.10000000000E+001
  0.12754070000E+006,  0.58318167056E+006,  0.16500000000E+002,  0.00000000000E+000,  0.10000000000E+001
  0.12760070000E+006,  0.58529083886E+006,  0.16500000000E+002,  0.00000000000E+000,  0.10000000000E+001
  0.12766070000E+006,  0.58732851731E+006,  0.16500000000E+002,  0.00000000000E+000,  0.10000000000E+001
  0.12772070000E+006,  0.58929769425E+006,  0.16500000000E+002,  0.00000000000E+000,  0.10000000000E+001
  0.12778070000E+006,  0.59120119021E+006,  0.16500000000E+002,  0.00000000000E+000,  0.10000000000E+001
  0.12784070000E+006,  0.59304167175E+006,  0.16500000000E+002,  0.00000000000E+000,  0.10000000000E+001
  0.12790070000E+006,  0.59482166442E+006,  0.16500000000E+002,  0.00000000000E+000,  0.10000000000E+001
  0.12796070000E+006,  0.59654356284E+006,  0.16500000000E+002,  0.00000000000E+000,  0.10000000000E+001
  0.12802070000E+006,  0.59820963937E+006,  0.16500000000E+002,  0.00000000000E+000,  0.10000000000E+001
  0.12808070000E+006,  0.59982205216E+006,  0.16500000000E+002,  0.00000000000E+000,  0.10000000000E+001
  0.12814070000E+006,  0.60138285257E+006,  0.16500000000E+002,  0.00000000000E+000,  0.10000000000E+001
  0.12820070000E+006,  0.60289399206E+006,  0.16500000000E+002,  0.00000000000E+000,  0.10000000000E+001
  0.12826070000E+006,  0.60435732831E+006,  0.16500000000E+002,  0.00000000000E+000,  0.10000000000E+001
  0.12832070000E+006,  0.60577463054E+006,  0.16500000000E+002,  0.00000000000E+000,  0.10000000000E+001
  0.12838070000E+006,  0.60714758396E+006,  0.16500000000E+002,  0.00000000000E+000,  0.10000000000E+001
  0.12844070000E+006,  0.60847779490E+006,  0.16500000000E+002,  0.00000000000E+000,  0.10000000000E+001
  0.12850070000E+006,  0.60976679616E+006,  0.16500000000E+002,  0.00000000000E+000,  0.10000000000E+001
  0.12856070000E+006,  0.61101605207E+006,  0.16500000000E+002,  0.00000000000E+000,  0.10000000000E+001
  0.12862070000E+006,  0.61222696270E+006,  0.16500000000E+002,  0.00000000000E+000,  0.10000000000E+001
  0.12868070000E+006,  0.61340086744E+006,  0.16500000000E+002,  0.00000000000E+000,  0.10000000000E+001
  0.12874070000E+006,  0.61453904820E+006,  0.16500000000E+002,  0.00000000000E+000,  0.10000000000E+001
  0.12880070000E+006,  0.61564273248E+006,  0.16500000000E+002,  0.00000000000E+000,  0.10000000000E+001
  0.12886070000E+006,  0.61671309657E+006,  0.16500000000E+002,  0.00000000000E+000,  0.10000000000E+001
  0.12892070000E+006,  0.61775126865E+006,  0.16500000000E+002,  0.00000000000E+000,  0.10000000000E+001
  0.12898070000E+006,  0.61875833158E+006,  0.16500000000E+002,  0.00000000000E+000,  0.10000000000E+001
  0.12904070000E+006,  0.61973532536E+006,  0.16500000000E+002,  0.00000000000E+000,  0.10000000000E+001
  0.12910070000E+006,  0.62068324938E+006,  0.16500000000E+002,  0.00000000000E+000,  0.10000000000E+001
  0.12916070000E+006,  0.62160306435E+006,  0.16500000000E+002,  0.00000000000E+000,  0.10000000000E+001
  0.12922070000E+006,  0.62249569414E+006,  0.16500000000E+002,  0.00000000000E+000,  0.10000000000E+001
  0.12928070000E+006,  0.62336202741E+006,  0.16500000000E+002,  0.00000000000E+000,  0.10000000000E+001
  0.12934070000E+006,  0.62420291366E+006,  0.16500000000E+002,  0.00000000000E+000,  0.10000000000E+001
  0.12940070000E+006,  0.62501948663E+006,  0.16500000000E+002,  0.00000000000E+000,  0.10000000000E+001
  0.12946070000E+006,  0.62581336158E+006,  0.16500000000E+002,  0.00000000000E+000,  0.10000000000E+001
  0.12952070000E+006,  0.62658646392E+006,  0.16500000000E+002,  0.00000000000E+000,  0.10000000000E+001
  0.12958070000E+006,  0.62734068389E+006,  0.16500000000E+002,  0.00000000000E+000,  0.10000000000E+001
  0.12964070000E+006,  0.62807760383E+006,  0.16500000000E+002,  0.00000000000E+000,  0.10000000000E+001
  0.12970070000E+006,  0.62879838933E+006,  0.16500000000E+002,  0.00000000000E+000,  0.10000000000E+001
  0.12976070000E+006,  0.62950381278E+006,  0.16500000000E+002,  0.00000000000E+000,  0.10000000000E+001
  0.12982070000E+006,  0.63019434223E+006,  0.16500000000E+002,  0.00000000000E+000,  0.10000000000E+001
  0.12988070000E+006,  0.63087024243E+006,  0.16500000000E+002,  0.00000000000E+000,  0.10000000000E+001
  0.12994070000E+006,  0.63153166057E+006,  0.16500000000E+002,  0.00000000000E+000,  0.10000000000E+001
  0.13000070000E+006,  0.63217868813E+006,  0.16500000000E+002,  0.00000000000E+000,  0.10000000000E+001
  0.13006070000E+006,  0.63281140067E+006,  0.16500000000E+002,  0.00000000000E+000,  0.10000000000E+001
  0.13012070000E+006,  0.63342988063E+006,  0.16500000000E+002,  0.00000000000E+000,  0.10000000000E+001
  0.13018070000E+006,  0.63403422879E+006,  0.16500000000E+002,  0.00000000000E+000,  0.10000000000E+001
  0.13024070000E+006,  0.63462456862E+006,  0.16500000000E+002,  0.00000000000E+000,  0.10000000000E+001
  0.13030070000E+006,  0.63520104658E+006,  0.16500000000E+002,  0.00000000000E+000,  0.10000000000E+001
  0.13036070000E+006,  0.63576383046E+006,  0.16500000000E+002,  0.00000000000E+000,  0.10000000000E+001
  0.13042070000E+006,  0.63631310667E+006,  0.16500000000E+002,  0.00000000000E+000,  0.10000000000E+001
  0.13048070000E+006,  0.63684907748E+006,  0.16500000000E+002,  0.00000000000E+000,  0.10000000000E+001
  0.13054070000E+006,  0.63737195823E+006,  0.16500000000E+002,  0.00000000000E+000,  0.10000000000E+001
  0.13060070000E+006,  0.63788197484E+006,  0.16500000000E+002,  0.00000000000E+000,  0.10000000000E+001
  0.13066070000E+006,  0.63837936161E+006,  0.16500000000E+002,  0.00000000000E+000,  0.10000000000E+001
  0.13072070000E+006,  0.63886435930E+006,  0.16500000000E+002,  0.00000000000E+000,  0.10000000000E+001
  0.13078070000E+006,  0.63933721354E+006,  0.16500000000E+002,  0.00000000000E+000,  0.10000000000E+001
  0.13084070000E+006,  0.63979817341E+006,  0.16500000000E+002,  0.00000000000E+000,  0.10000000000E+001
  0.13090070000E+006,  0.64024749029E+006,  0.16500000000E+002,  0.00000000000E+000,  0.10000000000E+001
  0.13096070000E+006,  0.64068541677E+006,  0.16500000000E+002,  0.00000000000E+000,  0.10000000000E+001
  0.13102070000E+006,  0.64111220583E+006,  0.16500000000E+002,  0.00000000000E+000,  0.10000000000E+001
  0.13108070000E+006,  0.64152811006E+006,  0.16500000000E+002,  0.00000000000E+000,  0.10000000000E+001
  0.13114070000E+006,  0.64193338101E+006,  0.16500000000E+002,  0.00000000000E+000,  0.10000000000E+001
  0.13120070000E+006,  0.64232826864E+006,  0.16500000000E+002,  0.00000000000E+000,  0.10000000000E+001
  0.13126070000E+006,  0.64271302080E+006,  0.16500000000E+002,  0.00000000000E+000,  0.10000000000E+001
  0.13132070000E+006,  0.64308788285E+006,  0.16500000000E+002,  0.00000000000E+000,  0.10000000000E+001
  0.13138070000E+006,  0.64345309730E+006,  0.16500000000E+002,  0.00000000000E+000,  0.10000000000E+001
  0.13144070000E+006,  0.64380890348E+006,  0.16500000000E+002,  0.00000000000E+000,  0.10000000000E+001
  0.13150070000E+006,  0.64415553729E+006,  0.16500000000E+002,  0.00000000000E+000,  0.10000000000E+001
  0.13156070000E+006,  0.64449323096E+006,  0.16500000000E+002,  0.00000000000E+000,  0.10000000000E+001
  0.13162070000E+006,  0.64482221288E+006,  0.16500000000E+002,  0.00000000000E+000,  0.10000000000E+001
  0.13168070000E+006,  0.64514270747E+006,  0.16500000000E+002,  0.00000000000E+000,  0.10000000000E+001
  0.13174070000E+006,  0.64545493502E+006,  0.16500000000E+002,  0.00000000000E+000,  0.10000000000E+001
  0.13180070000E+006,  0.64575911163E+006,  0.16500000000E+002,  0.00000000000E+000,  0.10000000000E+001
  0.13186070000E+006,  0.64605544916E+006,  0.16500000000E+002,  0.00000000000E+000,  0.10000000000E+001
  0.13192070000E+006,  0.64634415513E+006,  0.16500000000E+002,  0.00000000000E+000,  0.10000000000E+001
  0.13198070000E+006,  0.64662543271E+006,  0.16500000000E+002,  0.00000000000E+000,  0.10000000000E+001
  0.13204070000E+006,  0.64689863128E+006,  0.16500000000E+002,  0.00000000000E+000,  0.10000000000E+001
  0.13210070000E+006,  0.64716131024E+006,  0.16500000000E+002,  0.00000000000E+000,  0.10000000000E+001
  0.13216070000E+006,  0.64740962482E+006,  0.16500000000E+002,  0.00000000000E+000,  0.10000000000E+001
  0.13222070000E+006,  0.64763960182E+006,  0.16500000000E+002,  0.00000000000E+000,  0.10000000000E+001
  0.13228070000E+006,  0.64784828985E+006,  0.16500000000E+002,  0.00000000000E+000,  0.10000000000E+001
  0.13234070000E+006,  0.64803415995E+006,  0.16500000000E+002,  0.00000000000E+000,  0.10000000000E+001
  0.13240070000E+006,  0.64819708798E+006,  0.16500000000E+002,  0.00000000000E+000,  0.10000000000E+001
  0.13246070000E+006,  0.64833802414E+006,  0.16500000000E+002,  0.00000000000E+000,  0.10000000000E+001
  0.13252070000E+006,  0.64845852380E+006,  0.16500000000E+002,  0.00000000000E+000,  0.10000000000E+001
  0.13258070000E+006,  0.64856044820E+006,  0.16500000000E+002,  0.00000000000E+000,  0.10000000000E+001
  0.13264070000E+006,  0.64864568889E+006,  0.16500000000E+002,  0.00000000000E+000,  0.10000000000E+001
  0.13270070000E+006,  0.64871605819E+006,  0.16500000000E+002,  0.00000000000E+000,  0.10000000000E+001
  0.13276070000E+006,  0.64877326489E+006,  0.16500000000E+002,  0.00000000000E+000,  0.10000000000E+001
  0.13282070000E+006,  0.64881885108E+006,  0.16500000000E+002,  0.00000000000E+000,  0.10000000000E+001
  0.13288070000E+006,  0.64885419009E+006,  0.16500000000E+002,  0.00000000000E+000,  0.10000000000E+001
  0.13294070000E+006,  0.64888053360E+006,  0.16500000000E+002,  0.00000000000E+000,  0.10000000000E+001
  0.13300070000E+006,  0.64889900593E+006,  0.16500000000E+002,  0.00000000000E+000,  0.10000000000E+001
  0.13306070000E+006,  0.64891059251E+006,  0.16500000000E+002,  0.00000000000E+000,  0.10000000000E+001
  0.13312070000E+006,  0.64891615821E+006,  0.16500000000E+002,  0.00000000000E+000,  0.10000000000E+001
  0.13318070000E+006,  0.64891644234E+006,  0.16500000000E+002,  0.00000000000E+000,  0.10000000000E+001
  0.13324070000E+006,  0.64891213071E+006,  0.16500000000E+002,  0.00000000000E+000,  0.10000000000E+001
  0.13330070000E+006,  0.64890389514E+006,  0.16500000000E+002,  0.00000000000E+000,  0.10000000000E+001
  0.13336070000E+006,  0.64889229073E+006,  0.16500000000E+002,  0.00000000000E+000,  0.10000000000E+001
  0.13342070000E+006,  0.64887784864E+006,  0.16500000000E+002,  0.00000000000E+000,  0.10000000000E+001
  0.13348070000E+006,  0.64886102832E+006,  0.16500000000E+002,  0.00000000000E+000,  0.10000000000E+001
  0.13354070000E+006,  0.64884220842E+006,  0.16500000000E+002,  0.00000000000E+000,  0.10000000000E+001
  0.13360070000E+006,  0.64882174100E+006,  0.16500000000E+002,  0.00000000000E+000,  0.10000000000E+001
  0.13366070000E+006,  0.64879996346E+006,  0.16500000000E+002,  0.00000000000E+000,  0.10000000000E+001
  0.13372070000E+006,  0.64877717247E+006,  0.16500000000E+002,  0.00000000000E+000,  0.10000000000E+001
  0.13378070000E+006,  0.64875362879E+006,  0.16500000000E+002,  0.00000000000E+000,  0.10000000000E+001
  0.13384070000E+006,  0.64872956046E+006,  0.16500000000E+002,  0.00000000000E+000,  0.10000000000E+001
  0.13390070000E+006,  0.64870516798E+006,  0.16500000000E+002,  0.00000000000E+000,  0.10000000000E+001
  0.13396070000E+006,  0.64868062933E+006,  0.16500000000E+002,  0.00000000000E+000,  0.10000000000E+001
  0.13402070000E+006,  0.64865610273E+006,  0.16500000000E+002,  0.00000000000E+000,  0.10000000000E+001
  0.13408070000E+006,  0.64863172816E+006,  0.16500000000E+002,  0.00000000000E+000,  0.10000000000E+001
  0.13414070000E+006,  0.64860762874E+006,  0.16500000000E+002,  0.00000000000E+000,  0.10000000000E+001
  0.13420070000E+006,  0.64858391200E+006,  0.16500000000E+002,  0.00000000000E+000,  0.10000000000E+001
  0.13426070000E+006,  0.64856067140E+006,  0.16500000000E+002,  0.00000000000E+000,  0.10000000000E+001
  0.13432070000E+006,  0.64853798757E+006,  0.16500000000E+002,  0.00000000000E+000,  0.10000000000E+001
  0.13438070000E+006,  0.64851592000E+006,  0.16500000000E+002,  0.00000000000E+000,  0.10000000000E+001
  0.13444070000E+006,  0.64849562912E+006,  0.16500000000E+002,  0.00000000000E+000,  0.10000000000E+001
  0.13450070000E+006,  0.64847975155E+006,  0.16500000000E+002,  0.00000000000E+000,  0.10000000000E+001
  0.13456070000E+006,  0.64847159468E+006,  0.16500000000E+002,  0.00000000000E+000,  0.10000000000E+001
  0.13462070000E+006,  0.64847406677E+006,  0.16500000000E+002,  0.00000000000E+000,  0.10000000000E+001
  0.13468070000E+006,  0.64848904007E+006,  0.16500000000E+002,  0.00000000000E+000,  0.10000000000E+001
  0.13474070000E+006,  0.64851724032E+006,  0.16500000000E+002,  0.00000000000E+000,  0.10000000000E+001
