"           TIME(S)","              PRES","              TEMP","             SAT_G","             SAT_L"
  0.94878800000E+005,  0.76019286192E+006,  0.16500000000E+002,  0.00000000000E+000,  0.10000000000E+001
  0.94880100000E+005,  0.76019286192E+006,  0.16500000000E+002,  0.00000000000E+000,  0.10000000000E+001
  0.94881400000E+005,  0.76019286192E+006,  0.16500000000E+002,  0.00000000000E+000,  0.10000000000E+001
  0.94882700000E+005,  0.94849796396E+006,  0.16500000000E+002,  0.00000000000E+000,  0.10000000000E+001
  0.94884000000E+005,  0.11564439877E+007,  0.16500000000E+002,  0.00000000000E+000,  0.10000000000E+001
  0.94885300000E+005,  0.13532974763E+007,  0.16500000000E+002,  0.00000000000E+000,  0.10000000000E+001
  0.94886600000E+005,  0.15405046878E+007,  0.16500000000E+002,  0.00000000000E+000,  0.10000000000E+001
  0.94887900000E+005,  0.17199973751E+007,  0.16500000000E+002,  0.00000000000E+000,  0.10000000000E+001
  0.94889200000E+005,  0.18932801681E+007,  0.16500000000E+002,  0.00000000000E+000,  0.10000000000E+001
  0.94890500000E+005,  0.20614810260E+007,  0.16500000000E+002,  0.00000000000E+000,  0.10000000000E+001
  0.94891800000E+005,  0.22254435571E+007,  0.16500000000E+002,  0.00000000000E+000,  0.10000000000E+001
  0.94893100000E+005,  0.23858040364E+007,  0.16500000000E+002,  0.00000000000E+000,  0.10000000000E+001
  0.94894400000E+005,  0.25430491050E+007,  0.16500000000E+002,  0.00000000000E+000,  0.10000000000E+001
  0.94895700000E+005,  0.26975573440E+007,  0.16500000000E+002,  0.00000000000E+000,  0.10000000000E+001
  0.94897000000E+005,  0.28496287290E+007,  0.16500000000E+002,  0.00000000000E+000,  0.10000000000E+001
  0.94898300000E+005,  0.29995053744E+007,  0.16500000000E+002,  0.00000000000E+000,  0.10000000000E+001
  0.94899600000E+005,  0.31473861592E+007,  0.16500000000E+002,  0.00000000000E+000,  0.10000000000E+001
  0.94900900000E+005,  0.32934370980E+007,  0.16500000000E+002,  0.00000000000E+000,  0.10000000000E+001
  0.94902200000E+005,  0.34377987673E+007,  0.16500000000E+002,  0.00000000000E+000,  0.10000000000E+001
  0.94903500000E+005,  0.35805916891E+007,  0.16500000000E+002,  0.00000000000E+000,  0.10000000000E+001
  0.94904800000E+005,  0.37219202942E+007,  0.16500000000E+002,  0.00000000000E+000,  0.10000000000E+001
  0.94906100000E+005,  0.38618758874E+007,  0.16500000000E+002,  0.00000000000E+000,  0.10000000000E+001
  0.94907400000E+005,  0.40005389060E+007,  0.16500000000E+002,  0.00000000000E+000,  0.10000000000E+001
  0.94908700000E+005,  0.41379806718E+007,  0.16500000000E+002,  0.00000000000E+000,  0.10000000000E+001
  0.94910000000E+005,  0.42742647735E+007,  0.16500000000E+002,  0.00000000000E+000,  0.10000000000E+001
  0.94911300000E+005,  0.44094481767E+007,  0.16500000000E+002,  0.00000000000E+000,  0.10000000000E+001
  0.94912600000E+005,  0.45436254458E+007,  0.16500000000E+002,  0.00000000000E+000,  0.10000000000E+001
  0.94913900000E+005,  0.46778759039E+007,  0.16500000000E+002,  0.00000000000E+000,  0.10000000000E+001
  0.94915200000E+005,  0.48111589276E+007,  0.16500000000E+002,  0.00000000000E+000,  0.10000000000E+001
  0.94916500000E+005,  0.50881216980E+007,  0.16500000000E+002,  0.00000000000E+000,  0.10000000000E+001
  0.94917800000E+005,  0.52451953459E+007,  0.16500000000E+002,  0.00000000000E+000,  0.10000000000E+001
  0.94919100000E+005,  0.53890964701E+007,  0.16500000000E+002,  0.00000000000E+000,  0.10000000000E+001
  0.94920400000E+005,  0.55320392512E+007,  0.16500000000E+002,  0.00000000000E+000,  0.10000000000E+001
  0.94921700000E+005,  0.56543550492E+007,  0.16500000000E+002,  0.00000000000E+000,  0.10000000000E+001
  0.94923000000E+005,  0.57571405742E+007,  0.16500000000E+002,  0.00000000000E+000,  0.10000000000E+001
  0.94924300000E+005,  0.59464364277E+007,  0.16500000000E+002,  0.00000000000E+000,  0.10000000000E+001
  0.94925600000E+005,  0.61516243617E+007,  0.16500000000E+002,  0.00000000000E+000,  0.10000000000E+001
  0.94926900000E+005,  0.63677582579E+007,  0.16500000000E+002,  0.00000000000E+000,  0.10000000000E+001
  0.94928200000E+005,  0.66576328600E+007,  0.16500000000E+002,  0.00000000000E+000,  0.10000000000E+001
  0.94929500000E+005,  0.69571647040E+007,  0.16500000000E+002,  0.00000000000E+000,  0.10000000000E+001
  0.94930800000E+005,  0.73833817224E+007,  0.16500000000E+002,  0.00000000000E+000,  0.10000000000E+001
  0.94932100000E+005,  0.79409553894E+007,  0.16500000000E+002,  0.00000000000E+000,  0.10000000000E+001
  0.94933000000E+005,  0.84006808020E+007,  0.16500000000E+002,  0.00000000000E+000,  0.10000000000E+001
