"           TIME(S)","              PRES","              TEMP","             SAT_G","             SAT_L"
  0.47581000000E+005,  0.69124149949E+006,  0.16500000000E+002,  0.00000000000E+000,  0.10000000000E+001
  0.47586000000E+005,  0.69126142648E+006,  0.16500000000E+002,  0.00000000000E+000,  0.10000000000E+001
  0.47611000000E+005,  0.69134765073E+006,  0.16500000000E+002,  0.00000000000E+000,  0.10000000000E+001
  0.47671000000E+005,  0.69151312273E+006,  0.16500000000E+002,  0.00000000000E+000,  0.10000000000E+001
  0.47731000000E+005,  0.69165711945E+006,  0.16500000000E+002,  0.00000000000E+000,  0.10000000000E+001
  0.47791000000E+005,  0.69178997535E+006,  0.16500000000E+002,  0.00000000000E+000,  0.10000000000E+001
  0.47851000000E+005,  0.69191687808E+006,  0.16500000000E+002,  0.00000000000E+000,  0.10000000000E+001
  0.47911000000E+005,  0.69204040369E+006,  0.16500000000E+002,  0.00000000000E+000,  0.10000000000E+001
  0.47971000000E+005,  0.69216182665E+006,  0.16500000000E+002,  0.00000000000E+000,  0.10000000000E+001
  0.48031000000E+005,  0.69228177555E+006,  0.16500000000E+002,  0.00000000000E+000,  0.10000000000E+001
  0.48091000000E+005,  0.69240055634E+006,  0.16500000000E+002,  0.00000000000E+000,  0.10000000000E+001
  0.48151000000E+005,  0.69251830933E+006,  0.16500000000E+002,  0.00000000000E+000,  0.10000000000E+001
  0.48211000000E+005,  0.69263508375E+006,  0.16500000000E+002,  0.00000000000E+000,  0.10000000000E+001
  0.48271000000E+005,  0.69275087128E+006,  0.16500000000E+002,  0.00000000000E+000,  0.10000000000E+001
  0.48331000000E+005,  0.69286561950E+006,  0.16500000000E+002,  0.00000000000E+000,  0.10000000000E+001
  0.48391000000E+005,  0.69297923538E+006,  0.16500000000E+002,  0.00000000000E+000,  0.10000000000E+001
  0.48451000000E+005,  0.69309158360E+006,  0.16500000000E+002,  0.00000000000E+000,  0.10000000000E+001
  0.48511000000E+005,  0.69320248280E+006,  0.16500000000E+002,  0.00000000000E+000,  0.10000000000E+001
  0.48571000000E+005,  0.69331170206E+006,  0.16500000000E+002,  0.00000000000E+000,  0.10000000000E+001
  0.48631000000E+005,  0.69341895859E+006,  0.16500000000E+002,  0.00000000000E+000,  0.10000000000E+001
  0.48691000000E+005,  0.69352391645E+006,  0.16500000000E+002,  0.00000000000E+000,  0.10000000000E+001
  0.48751000000E+005,  0.69362618645E+006,  0.16500000000E+002,  0.00000000000E+000,  0.10000000000E+001
  0.48811000000E+005,  0.69372532521E+006,  0.16500000000E+002,  0.00000000000E+000,  0.10000000000E+001
  0.48871000000E+005,  0.69382083602E+006,  0.16500000000E+002,  0.00000000000E+000,  0.10000000000E+001
  0.48931000000E+005,  0.69391217181E+006,  0.16500000000E+002,  0.00000000000E+000,  0.10000000000E+001
  0.48991000000E+005,  0.69399870843E+006,  0.16500000000E+002,  0.00000000000E+000,  0.10000000000E+001
  0.49051000000E+005,  0.69407973196E+006,  0.16500000000E+002,  0.00000000000E+000,  0.10000000000E+001
  0.49111000000E+005,  0.69415447986E+006,  0.16500000000E+002,  0.00000000000E+000,  0.10000000000E+001
  0.49171000000E+005,  0.69422216830E+006,  0.16500000000E+002,  0.00000000000E+000,  0.10000000000E+001
  0.49231000000E+005,  0.69428199869E+006,  0.16500000000E+002,  0.00000000000E+000,  0.10000000000E+001
  0.49291000000E+005,  0.69433316293E+006,  0.16500000000E+002,  0.00000000000E+000,  0.10000000000E+001
  0.49351000000E+005,  0.69437484242E+006,  0.16500000000E+002,  0.00000000000E+000,  0.10000000000E+001
  0.49411000000E+005,  0.69440619437E+006,  0.16500000000E+002,  0.00000000000E+000,  0.10000000000E+001
  0.49471000000E+005,  0.69442634373E+006,  0.16500000000E+002,  0.00000000000E+000,  0.10000000000E+001
  0.49531000000E+005,  0.69443440598E+006,  0.16500000000E+002,  0.00000000000E+000,  0.10000000000E+001
  0.49591000000E+005,  0.69442950973E+006,  0.16500000000E+002,  0.00000000000E+000,  0.10000000000E+001
  0.49651000000E+005,  0.69441080734E+006,  0.16500000000E+002,  0.00000000000E+000,  0.10000000000E+001
  0.49711000000E+005,  0.69437748331E+006,  0.16500000000E+002,  0.00000000000E+000,  0.10000000000E+001
  0.49771000000E+005,  0.69432872764E+006,  0.16500000000E+002,  0.00000000000E+000,  0.10000000000E+001
  0.49831000000E+005,  0.69426375359E+006,  0.16500000000E+002,  0.00000000000E+000,  0.10000000000E+001
  0.49891000000E+005,  0.69418179959E+006,  0.16500000000E+002,  0.00000000000E+000,  0.10000000000E+001
  0.49951000000E+005,  0.69408214951E+006,  0.16500000000E+002,  0.00000000000E+000,  0.10000000000E+001
  0.50011000000E+005,  0.69396415330E+006,  0.16500000000E+002,  0.00000000000E+000,  0.10000000000E+001
  0.50071000000E+005,  0.69382722503E+006,  0.16500000000E+002,  0.00000000000E+000,  0.10000000000E+001
  0.50131000000E+005,  0.69367045048E+006,  0.16500000000E+002,  0.00000000000E+000,  0.10000000000E+001
  0.50191000000E+005,  0.69349298823E+006,  0.16500000000E+002,  0.00000000000E+000,  0.10000000000E+001
  0.50251000000E+005,  0.69329441911E+006,  0.16500000000E+002,  0.00000000000E+000,  0.10000000000E+001
  0.50311000000E+005,  0.69307438929E+006,  0.16500000000E+002,  0.00000000000E+000,  0.10000000000E+001
  0.50371000000E+005,  0.69283253620E+006,  0.16500000000E+002,  0.00000000000E+000,  0.10000000000E+001
  0.50431000000E+005,  0.69256861050E+006,  0.16500000000E+002,  0.00000000000E+000,  0.10000000000E+001
  0.50491000000E+005,  0.69228217728E+006,  0.16500000000E+002,  0.00000000000E+000,  0.10000000000E+001
  0.50551000000E+005,  0.69197303509E+006,  0.16500000000E+002,  0.00000000000E+000,  0.10000000000E+001
  0.50611000000E+005,  0.69163546950E+006,  0.16500000000E+002,  0.00000000000E+000,  0.10000000000E+001
  0.50671000000E+005,  0.69127170853E+006,  0.16500000000E+002,  0.00000000000E+000,  0.10000000000E+001
  0.50731000000E+005,  0.69088374564E+006,  0.16500000000E+002,  0.00000000000E+000,  0.10000000000E+001
  0.50791000000E+005,  0.69047219544E+006,  0.16500000000E+002,  0.00000000000E+000,  0.10000000000E+001
  0.50851000000E+005,  0.69003682984E+006,  0.16500000000E+002,  0.00000000000E+000,  0.10000000000E+001
  0.50911000000E+005,  0.68957720397E+006,  0.16500000000E+002,  0.00000000000E+000,  0.10000000000E+001
  0.50971000000E+005,  0.68909280869E+006,  0.16500000000E+002,  0.00000000000E+000,  0.10000000000E+001
  0.51031000000E+005,  0.68858413054E+006,  0.16500000000E+002,  0.00000000000E+000,  0.10000000000E+001
  0.51091000000E+005,  0.68805157712E+006,  0.16500000000E+002,  0.00000000000E+000,  0.10000000000E+001
  0.51151000000E+005,  0.68749551014E+006,  0.16500000000E+002,  0.00000000000E+000,  0.10000000000E+001
  0.51211000000E+005,  0.68691640176E+006,  0.16500000000E+002,  0.00000000000E+000,  0.10000000000E+001
  0.51271000000E+005,  0.68631485481E+006,  0.16500000000E+002,  0.00000000000E+000,  0.10000000000E+001
  0.51331000000E+005,  0.68569148645E+006,  0.16500000000E+002,  0.00000000000E+000,  0.10000000000E+001
  0.51391000000E+005,  0.68504688235E+006,  0.16500000000E+002,  0.00000000000E+000,  0.10000000000E+001
  0.51451000000E+005,  0.68438154631E+006,  0.16500000000E+002,  0.00000000000E+000,  0.10000000000E+001
  0.51511000000E+005,  0.68369583492E+006,  0.16500000000E+002,  0.00000000000E+000,  0.10000000000E+001
  0.51571000000E+005,  0.68299012923E+006,  0.16500000000E+002,  0.00000000000E+000,  0.10000000000E+001
  0.51631000000E+005,  0.68226484844E+006,  0.16500000000E+002,  0.00000000000E+000,  0.10000000000E+001
  0.51691000000E+005,  0.68152043194E+006,  0.16500000000E+002,  0.00000000000E+000,  0.10000000000E+001
  0.51751000000E+005,  0.68075714874E+006,  0.16500000000E+002,  0.00000000000E+000,  0.10000000000E+001
  0.51811000000E+005,  0.67997440020E+006,  0.16500000000E+002,  0.00000000000E+000,  0.10000000000E+001
  0.51871000000E+005,  0.67917309079E+006,  0.16500000000E+002,  0.00000000000E+000,  0.10000000000E+001
  0.51931000000E+005,  0.67835395877E+006,  0.16500000000E+002,  0.00000000000E+000,  0.10000000000E+001
  0.51991000000E+005,  0.67751755623E+006,  0.16500000000E+002,  0.00000000000E+000,  0.10000000000E+001
  0.52051000000E+005,  0.67666432205E+006,  0.16500000000E+002,  0.00000000000E+000,  0.10000000000E+001
  0.52111000000E+005,  0.67579442780E+006,  0.16500000000E+002,  0.00000000000E+000,  0.10000000000E+001
  0.52171000000E+005,  0.67490762624E+006,  0.16500000000E+002,  0.00000000000E+000,  0.10000000000E+001
  0.52231000000E+005,  0.67400412748E+006,  0.16500000000E+002,  0.00000000000E+000,  0.10000000000E+001
  0.52291000000E+005,  0.67308444942E+006,  0.16500000000E+002,  0.00000000000E+000,  0.10000000000E+001
  0.52351000000E+005,  0.67214908394E+006,  0.16500000000E+002,  0.00000000000E+000,  0.10000000000E+001
  0.52411000000E+005,  0.67119857434E+006,  0.16500000000E+002,  0.00000000000E+000,  0.10000000000E+001
  0.52471000000E+005,  0.67023347587E+006,  0.16500000000E+002,  0.00000000000E+000,  0.10000000000E+001
  0.52531000000E+005,  0.66925432639E+006,  0.16500000000E+002,  0.00000000000E+000,  0.10000000000E+001
  0.52591000000E+005,  0.66826156649E+006,  0.16500000000E+002,  0.00000000000E+000,  0.10000000000E+001
  0.52651000000E+005,  0.66725562034E+006,  0.16500000000E+002,  0.00000000000E+000,  0.10000000000E+001
  0.52711000000E+005,  0.66623692077E+006,  0.16500000000E+002,  0.00000000000E+000,  0.10000000000E+001
  0.52771000000E+005,  0.66520589976E+006,  0.16500000000E+002,  0.00000000000E+000,  0.10000000000E+001
  0.52831000000E+005,  0.66416296935E+006,  0.16500000000E+002,  0.00000000000E+000,  0.10000000000E+001
  0.52891000000E+005,  0.66310847132E+006,  0.16500000000E+002,  0.00000000000E+000,  0.10000000000E+001
  0.52951000000E+005,  0.66204274834E+006,  0.16500000000E+002,  0.00000000000E+000,  0.10000000000E+001
  0.53011000000E+005,  0.66096615228E+006,  0.16500000000E+002,  0.00000000000E+000,  0.10000000000E+001
  0.53071000000E+005,  0.65987903794E+006,  0.16500000000E+002,  0.00000000000E+000,  0.10000000000E+001
  0.53131000000E+005,  0.65878175823E+006,  0.16500000000E+002,  0.00000000000E+000,  0.10000000000E+001
  0.53191000000E+005,  0.65767466110E+006,  0.16500000000E+002,  0.00000000000E+000,  0.10000000000E+001
  0.53251000000E+005,  0.65655808754E+006,  0.16500000000E+002,  0.00000000000E+000,  0.10000000000E+001
  0.53311000000E+005,  0.65543236991E+006,  0.16500000000E+002,  0.00000000000E+000,  0.10000000000E+001
  0.53371000000E+005,  0.65429783048E+006,  0.16500000000E+002,  0.00000000000E+000,  0.10000000000E+001
  0.53431000000E+005,  0.65315477906E+006,  0.16500000000E+002,  0.00000000000E+000,  0.10000000000E+001
  0.53491000000E+005,  0.65200351121E+006,  0.16500000000E+002,  0.00000000000E+000,  0.10000000000E+001
  0.53551000000E+005,  0.65084430543E+006,  0.16500000000E+002,  0.00000000000E+000,  0.10000000000E+001
  0.53611000000E+005,  0.64967741957E+006,  0.16500000000E+002,  0.00000000000E+000,  0.10000000000E+001
  0.53671000000E+005,  0.64850309675E+006,  0.16500000000E+002,  0.00000000000E+000,  0.10000000000E+001
  0.53731000000E+005,  0.64732157531E+006,  0.16500000000E+002,  0.00000000000E+000,  0.10000000000E+001
  0.53791000000E+005,  0.64613308090E+006,  0.16500000000E+002,  0.00000000000E+000,  0.10000000000E+001
  0.53851000000E+005,  0.64493782697E+006,  0.16500000000E+002,  0.00000000000E+000,  0.10000000000E+001
  0.53911000000E+005,  0.64373601750E+006,  0.16500000000E+002,  0.00000000000E+000,  0.10000000000E+001
  0.53971000000E+005,  0.64252785410E+006,  0.16500000000E+002,  0.00000000000E+000,  0.10000000000E+001
  0.54031000000E+005,  0.64131353982E+006,  0.16500000000E+002,  0.00000000000E+000,  0.10000000000E+001
  0.54091000000E+005,  0.64009327990E+006,  0.16500000000E+002,  0.00000000000E+000,  0.10000000000E+001
  0.54151000000E+005,  0.63886728117E+006,  0.16500000000E+002,  0.00000000000E+000,  0.10000000000E+001
  0.54211000000E+005,  0.63763575106E+006,  0.16500000000E+002,  0.00000000000E+000,  0.10000000000E+001
  0.54271000000E+005,  0.63639889543E+006,  0.16500000000E+002,  0.00000000000E+000,  0.10000000000E+001
  0.54331000000E+005,  0.63515691557E+006,  0.16500000000E+002,  0.00000000000E+000,  0.10000000000E+001
  0.54391000000E+005,  0.63391000755E+006,  0.16500000000E+002,  0.00000000000E+000,  0.10000000000E+001
  0.54451000000E+005,  0.63265836214E+006,  0.16500000000E+002,  0.00000000000E+000,  0.10000000000E+001
  0.54511000000E+005,  0.63140216523E+006,  0.16500000000E+002,  0.00000000000E+000,  0.10000000000E+001
  0.54571000000E+005,  0.63014159868E+006,  0.16500000000E+002,  0.00000000000E+000,  0.10000000000E+001
  0.54631000000E+005,  0.62887684050E+006,  0.16500000000E+002,  0.00000000000E+000,  0.10000000000E+001
  0.54691000000E+005,  0.62760806487E+006,  0.16500000000E+002,  0.00000000000E+000,  0.10000000000E+001
  0.54751000000E+005,  0.62633544194E+006,  0.16500000000E+002,  0.00000000000E+000,  0.10000000000E+001
  0.54811000000E+005,  0.62505913775E+006,  0.16500000000E+002,  0.00000000000E+000,  0.10000000000E+001
  0.54871000000E+005,  0.62377931421E+006,  0.16500000000E+002,  0.00000000000E+000,  0.10000000000E+001
  0.54931000000E+005,  0.62249612908E+006,  0.16500000000E+002,  0.00000000000E+000,  0.10000000000E+001
  0.54991000000E+005,  0.62120973586E+006,  0.16500000000E+002,  0.00000000000E+000,  0.10000000000E+001
  0.55051000000E+005,  0.61992028390E+006,  0.16500000000E+002,  0.00000000000E+000,  0.10000000000E+001
  0.55111000000E+005,  0.61862791877E+006,  0.16500000000E+002,  0.00000000000E+000,  0.10000000000E+001
  0.55171000000E+005,  0.61733278270E+006,  0.16500000000E+002,  0.00000000000E+000,  0.10000000000E+001
  0.55231000000E+005,  0.61603501479E+006,  0.16500000000E+002,  0.00000000000E+000,  0.10000000000E+001
  0.55291000000E+005,  0.61473475109E+006,  0.16500000000E+002,  0.00000000000E+000,  0.10000000000E+001
  0.55351000000E+005,  0.61343212455E+006,  0.16500000000E+002,  0.00000000000E+000,  0.10000000000E+001
  0.55411000000E+005,  0.61212726497E+006,  0.16500000000E+002,  0.00000000000E+000,  0.10000000000E+001
  0.55471000000E+005,  0.61082029910E+006,  0.16500000000E+002,  0.00000000000E+000,  0.10000000000E+001
  0.55531000000E+005,  0.60951135021E+006,  0.16500000000E+002,  0.00000000000E+000,  0.10000000000E+001
  0.55591000000E+005,  0.60820053775E+006,  0.16500000000E+002,  0.00000000000E+000,  0.10000000000E+001
  0.55651000000E+005,  0.60688797790E+006,  0.16500000000E+002,  0.00000000000E+000,  0.10000000000E+001
  0.55711000000E+005,  0.60557378446E+006,  0.16500000000E+002,  0.00000000000E+000,  0.10000000000E+001
  0.55771000000E+005,  0.60425806939E+006,  0.16500000000E+002,  0.00000000000E+000,  0.10000000000E+001
  0.55831000000E+005,  0.60294094286E+006,  0.16500000000E+002,  0.00000000000E+000,  0.10000000000E+001
  0.55891000000E+005,  0.60162251307E+006,  0.16500000000E+002,  0.00000000000E+000,  0.10000000000E+001
  0.55951000000E+005,  0.60030288617E+006,  0.16500000000E+002,  0.00000000000E+000,  0.10000000000E+001
  0.56011000000E+005,  0.59898216618E+006,  0.16500000000E+002,  0.00000000000E+000,  0.10000000000E+001
  0.56071000000E+005,  0.59766045503E+006,  0.16500000000E+002,  0.00000000000E+000,  0.10000000000E+001
  0.56131000000E+005,  0.59633785267E+006,  0.16500000000E+002,  0.00000000000E+000,  0.10000000000E+001
  0.56191000000E+005,  0.59501445717E+006,  0.16500000000E+002,  0.00000000000E+000,  0.10000000000E+001
  0.56251000000E+005,  0.59369036482E+006,  0.16500000000E+002,  0.00000000000E+000,  0.10000000000E+001
  0.56311000000E+005,  0.59236567021E+006,  0.16500000000E+002,  0.00000000000E+000,  0.10000000000E+001
  0.56371000000E+005,  0.59104046622E+006,  0.16500000000E+002,  0.00000000000E+000,  0.10000000000E+001
  0.56431000000E+005,  0.58971484409E+006,  0.16500000000E+002,  0.00000000000E+000,  0.10000000000E+001
  0.56491000000E+005,  0.58838889337E+006,  0.16500000000E+002,  0.00000000000E+000,  0.10000000000E+001
  0.56551000000E+005,  0.58706270203E+006,  0.16500000000E+002,  0.00000000000E+000,  0.10000000000E+001
  0.56611000000E+005,  0.58573635640E+006,  0.16500000000E+002,  0.00000000000E+000,  0.10000000000E+001
  0.56671000000E+005,  0.58440994130E+006,  0.16500000000E+002,  0.00000000000E+000,  0.10000000000E+001
  0.56731000000E+005,  0.58308353998E+006,  0.16500000000E+002,  0.00000000000E+000,  0.10000000000E+001
  0.56791000000E+005,  0.58175723416E+006,  0.16500000000E+002,  0.00000000000E+000,  0.10000000000E+001
  0.56851000000E+005,  0.58043110401E+006,  0.16500000000E+002,  0.00000000000E+000,  0.10000000000E+001
  0.56911000000E+005,  0.57910522818E+006,  0.16500000000E+002,  0.00000000000E+000,  0.10000000000E+001
  0.56971000000E+005,  0.57777968371E+006,  0.16500000000E+002,  0.00000000000E+000,  0.10000000000E+001
  0.57031000000E+005,  0.57645454610E+006,  0.16500000000E+002,  0.00000000000E+000,  0.10000000000E+001
  0.57091000000E+005,  0.57512988929E+006,  0.16500000000E+002,  0.00000000000E+000,  0.10000000000E+001
  0.57151000000E+005,  0.57380578566E+006,  0.16500000000E+002,  0.00000000000E+000,  0.10000000000E+001
  0.57211000000E+005,  0.57248230607E+006,  0.16500000000E+002,  0.00000000000E+000,  0.10000000000E+001
  0.57271000000E+005,  0.57115951992E+006,  0.16500000000E+002,  0.00000000000E+000,  0.10000000000E+001
  0.57331000000E+005,  0.56983749523E+006,  0.16500000000E+002,  0.00000000000E+000,  0.10000000000E+001
  0.57391000000E+005,  0.56851629868E+006,  0.16500000000E+002,  0.00000000000E+000,  0.10000000000E+001
  0.57451000000E+005,  0.56719599569E+006,  0.16500000000E+002,  0.00000000000E+000,  0.10000000000E+001
  0.57511000000E+005,  0.56587665047E+006,  0.16500000000E+002,  0.00000000000E+000,  0.10000000000E+001
  0.57571000000E+005,  0.56455832604E+006,  0.16500000000E+002,  0.00000000000E+000,  0.10000000000E+001
  0.57631000000E+005,  0.56324108426E+006,  0.16500000000E+002,  0.00000000000E+000,  0.10000000000E+001
  0.57691000000E+005,  0.56192498588E+006,  0.16500000000E+002,  0.00000000000E+000,  0.10000000000E+001
  0.57751000000E+005,  0.56061009054E+006,  0.16500000000E+002,  0.00000000000E+000,  0.10000000000E+001
  0.57811000000E+005,  0.55929645677E+006,  0.16500000000E+002,  0.00000000000E+000,  0.10000000000E+001
  0.57871000000E+005,  0.55798414204E+006,  0.16500000000E+002,  0.00000000000E+000,  0.10000000000E+001
  0.57931000000E+005,  0.55667320272E+006,  0.16500000000E+002,  0.00000000000E+000,  0.10000000000E+001
  0.57991000000E+005,  0.55536369413E+006,  0.16500000000E+002,  0.00000000000E+000,  0.10000000000E+001
  0.58051000000E+005,  0.55405567054E+006,  0.16500000000E+002,  0.00000000000E+000,  0.10000000000E+001
  0.58111000000E+005,  0.55274918516E+006,  0.16500000000E+002,  0.00000000000E+000,  0.10000000000E+001
  0.58171000000E+005,  0.55144429019E+006,  0.16500000000E+002,  0.00000000000E+000,  0.10000000000E+001
  0.58231000000E+005,  0.55014103676E+006,  0.16500000000E+002,  0.00000000000E+000,  0.10000000000E+001
  0.58291000000E+005,  0.54883947501E+006,  0.16500000000E+002,  0.00000000000E+000,  0.10000000000E+001
  0.58351000000E+005,  0.54753965407E+006,  0.16500000000E+002,  0.00000000000E+000,  0.10000000000E+001
  0.58411000000E+005,  0.54624162206E+006,  0.16500000000E+002,  0.00000000000E+000,  0.10000000000E+001
  0.58471000000E+005,  0.54494542612E+006,  0.16500000000E+002,  0.00000000000E+000,  0.10000000000E+001
  0.58531000000E+005,  0.54365111241E+006,  0.16500000000E+002,  0.00000000000E+000,  0.10000000000E+001
  0.58591000000E+005,  0.54235872614E+006,  0.16500000000E+002,  0.00000000000E+000,  0.10000000000E+001
  0.58651000000E+005,  0.54106831155E+006,  0.16500000000E+002,  0.00000000000E+000,  0.10000000000E+001
  0.58711000000E+005,  0.53977991195E+006,  0.16500000000E+002,  0.00000000000E+000,  0.10000000000E+001
  0.58771000000E+005,  0.53849356972E+006,  0.16500000000E+002,  0.00000000000E+000,  0.10000000000E+001
