"           TIME(S)","              PRES","              TEMP","             SAT_G","             SAT_L"
  0.94878800000E+005,  0.76020124195E+006,  0.16500000000E+002,  0.00000000000E+000,  0.10000000000E+001
  0.94880100000E+005,  0.76020124195E+006,  0.16500000000E+002,  0.00000000000E+000,  0.10000000000E+001
  0.94881400000E+005,  0.76020124195E+006,  0.16500000000E+002,  0.00000000000E+000,  0.10000000000E+001
  0.94882700000E+005,  0.95403720127E+006,  0.16500000000E+002,  0.00000000000E+000,  0.10000000000E+001
  0.94884000000E+005,  0.11426716160E+007,  0.16500000000E+002,  0.00000000000E+000,  0.10000000000E+001
  0.94885300000E+005,  0.13099305567E+007,  0.16500000000E+002,  0.00000000000E+000,  0.10000000000E+001
  0.94886600000E+005,  0.14630774542E+007,  0.16500000000E+002,  0.00000000000E+000,  0.10000000000E+001
  0.94887900000E+005,  0.16055757371E+007,  0.16500000000E+002,  0.00000000000E+000,  0.10000000000E+001
  0.94889200000E+005,  0.17396161473E+007,  0.16500000000E+002,  0.00000000000E+000,  0.10000000000E+001
  0.94890500000E+005,  0.18667113530E+007,  0.16500000000E+002,  0.00000000000E+000,  0.10000000000E+001
  0.94891800000E+005,  0.19879473738E+007,  0.16500000000E+002,  0.00000000000E+000,  0.10000000000E+001
  0.94893100000E+005,  0.21041258529E+007,  0.16500000000E+002,  0.00000000000E+000,  0.10000000000E+001
  0.94894400000E+005,  0.22158539728E+007,  0.16500000000E+002,  0.00000000000E+000,  0.10000000000E+001
  0.94895700000E+005,  0.23236034677E+007,  0.16500000000E+002,  0.00000000000E+000,  0.10000000000E+001
  0.94897000000E+005,  0.24277499811E+007,  0.16500000000E+002,  0.00000000000E+000,  0.10000000000E+001
  0.94898300000E+005,  0.25285996202E+007,  0.16500000000E+002,  0.00000000000E+000,  0.10000000000E+001
  0.94899600000E+005,  0.26264070904E+007,  0.16500000000E+002,  0.00000000000E+000,  0.10000000000E+001
  0.94900900000E+005,  0.27213882542E+007,  0.16500000000E+002,  0.00000000000E+000,  0.10000000000E+001
  0.94902200000E+005,  0.28137289689E+007,  0.16500000000E+002,  0.00000000000E+000,  0.10000000000E+001
  0.94903500000E+005,  0.29035914172E+007,  0.16500000000E+002,  0.00000000000E+000,  0.10000000000E+001
  0.94904800000E+005,  0.29911187290E+007,  0.16500000000E+002,  0.00000000000E+000,  0.10000000000E+001
  0.94906100000E+005,  0.30764384244E+007,  0.16500000000E+002,  0.00000000000E+000,  0.10000000000E+001
  0.94907400000E+005,  0.31596650292E+007,  0.16500000000E+002,  0.00000000000E+000,  0.10000000000E+001
  0.94908700000E+005,  0.32409021023E+007,  0.16500000000E+002,  0.00000000000E+000,  0.10000000000E+001
  0.94910000000E+005,  0.33202438355E+007,  0.16500000000E+002,  0.00000000000E+000,  0.10000000000E+001
  0.94911300000E+005,  0.33977763380E+007,  0.16500000000E+002,  0.00000000000E+000,  0.10000000000E+001
  0.94912600000E+005,  0.34736244824E+007,  0.16500000000E+002,  0.00000000000E+000,  0.10000000000E+001
  0.94913900000E+005,  0.35489488309E+007,  0.16500000000E+002,  0.00000000000E+000,  0.10000000000E+001
  0.94915200000E+005,  0.36225242647E+007,  0.16500000000E+002,  0.00000000000E+000,  0.10000000000E+001
  0.94916500000E+005,  0.38480295410E+007,  0.16500000000E+002,  0.00000000000E+000,  0.10000000000E+001
  0.94917800000E+005,  0.39252161303E+007,  0.16500000000E+002,  0.00000000000E+000,  0.10000000000E+001
  0.94919100000E+005,  0.39990919098E+007,  0.16500000000E+002,  0.00000000000E+000,  0.10000000000E+001
  0.94920400000E+005,  0.40741368805E+007,  0.16500000000E+002,  0.00000000000E+000,  0.10000000000E+001
  0.94921700000E+005,  0.41273085176E+007,  0.16500000000E+002,  0.00000000000E+000,  0.10000000000E+001
  0.94923000000E+005,  0.41622059728E+007,  0.16500000000E+002,  0.00000000000E+000,  0.10000000000E+001
  0.94924300000E+005,  0.42929098703E+007,  0.16500000000E+002,  0.00000000000E+000,  0.10000000000E+001
  0.94925600000E+005,  0.44290594822E+007,  0.16500000000E+002,  0.00000000000E+000,  0.10000000000E+001
  0.94926900000E+005,  0.45717203745E+007,  0.16500000000E+002,  0.00000000000E+000,  0.10000000000E+001
  0.94928200000E+005,  0.47896255948E+007,  0.16500000000E+002,  0.00000000000E+000,  0.10000000000E+001
  0.94929500000E+005,  0.50049821590E+007,  0.16500000000E+002,  0.00000000000E+000,  0.10000000000E+001
  0.94930800000E+005,  0.53512264589E+007,  0.16500000000E+002,  0.00000000000E+000,  0.10000000000E+001
  0.94932100000E+005,  0.58179925276E+007,  0.16500000000E+002,  0.00000000000E+000,  0.10000000000E+001
  0.94933000000E+005,  0.62106047706E+007,  0.16500000000E+002,  0.00000000000E+000,  0.10000000000E+001
