"           TIME(S)","              PRES","              TEMP","             SAT_G","             SAT_L"
  0.23301000000E+005,  0.39009267169E+006,  0.16500000000E+002,  0.00000000000E+000,  0.10000000000E+001
  0.23306000000E+005,  0.39009267174E+006,  0.16500000000E+002,  0.00000000000E+000,  0.10000000000E+001
  0.23331000000E+005,  0.39009267201E+006,  0.16500000000E+002,  0.00000000000E+000,  0.10000000000E+001
  0.23391000000E+005,  0.39009267286E+006,  0.16500000000E+002,  0.00000000000E+000,  0.10000000000E+001
  0.23451000000E+005,  0.39009267383E+006,  0.16500000000E+002,  0.00000000000E+000,  0.10000000000E+001
  0.23511000000E+005,  0.39009267487E+006,  0.16500000000E+002,  0.00000000000E+000,  0.10000000000E+001
  0.23571000000E+005,  0.39009267595E+006,  0.16500000000E+002,  0.00000000000E+000,  0.10000000000E+001
  0.23631000000E+005,  0.39009267704E+006,  0.16500000000E+002,  0.00000000000E+000,  0.10000000000E+001
  0.23691000000E+005,  0.39009267813E+006,  0.16500000000E+002,  0.00000000000E+000,  0.10000000000E+001
  0.23751000000E+005,  0.39009267921E+006,  0.16500000000E+002,  0.00000000000E+000,  0.10000000000E+001
  0.23811000000E+005,  0.39009268026E+006,  0.16500000000E+002,  0.00000000000E+000,  0.10000000000E+001
  0.23871000000E+005,  0.39009268127E+006,  0.16500000000E+002,  0.00000000000E+000,  0.10000000000E+001
  0.23931000000E+005,  0.39009268224E+006,  0.16500000000E+002,  0.00000000000E+000,  0.10000000000E+001
  0.23991000000E+005,  0.39009268318E+006,  0.16500000000E+002,  0.00000000000E+000,  0.10000000000E+001
  0.24051000000E+005,  0.39009268407E+006,  0.16500000000E+002,  0.00000000000E+000,  0.10000000000E+001
  0.24111000000E+005,  0.39009268492E+006,  0.16500000000E+002,  0.00000000000E+000,  0.10000000000E+001
  0.24171000000E+005,  0.39009268573E+006,  0.16500000000E+002,  0.00000000000E+000,  0.10000000000E+001
  0.24231000000E+005,  0.39009268650E+006,  0.16500000000E+002,  0.00000000000E+000,  0.10000000000E+001
  0.24291000000E+005,  0.39009268723E+006,  0.16500000000E+002,  0.00000000000E+000,  0.10000000000E+001
  0.24351000000E+005,  0.39009268792E+006,  0.16500000000E+002,  0.00000000000E+000,  0.10000000000E+001
  0.24411000000E+005,  0.39009268859E+006,  0.16500000000E+002,  0.00000000000E+000,  0.10000000000E+001
  0.24471000000E+005,  0.39009268922E+006,  0.16500000000E+002,  0.00000000000E+000,  0.10000000000E+001
  0.24531000000E+005,  0.39009268982E+006,  0.16500000000E+002,  0.00000000000E+000,  0.10000000000E+001
  0.24591000000E+005,  0.39009269039E+006,  0.16500000000E+002,  0.00000000000E+000,  0.10000000000E+001
  0.24651000000E+005,  0.39009269094E+006,  0.16500000000E+002,  0.00000000000E+000,  0.10000000000E+001
  0.24711000000E+005,  0.39009269147E+006,  0.16500000000E+002,  0.00000000000E+000,  0.10000000000E+001
  0.24771000000E+005,  0.39009269198E+006,  0.16500000000E+002,  0.00000000000E+000,  0.10000000000E+001
  0.24831000000E+005,  0.39009269247E+006,  0.16500000000E+002,  0.00000000000E+000,  0.10000000000E+001
  0.24891000000E+005,  0.39009269295E+006,  0.16500000000E+002,  0.00000000000E+000,  0.10000000000E+001
  0.24951000000E+005,  0.39009269341E+006,  0.16500000000E+002,  0.00000000000E+000,  0.10000000000E+001
  0.25011000000E+005,  0.39009269386E+006,  0.16500000000E+002,  0.00000000000E+000,  0.10000000000E+001
  0.25071000000E+005,  0.39009269430E+006,  0.16500000000E+002,  0.00000000000E+000,  0.10000000000E+001
  0.25131000000E+005,  0.39009269473E+006,  0.16500000000E+002,  0.00000000000E+000,  0.10000000000E+001
  0.25191000000E+005,  0.39009269516E+006,  0.16500000000E+002,  0.00000000000E+000,  0.10000000000E+001
  0.25251000000E+005,  0.39009269559E+006,  0.16500000000E+002,  0.00000000000E+000,  0.10000000000E+001
  0.25311000000E+005,  0.39009269602E+006,  0.16500000000E+002,  0.00000000000E+000,  0.10000000000E+001
  0.25371000000E+005,  0.39009269645E+006,  0.16500000000E+002,  0.00000000000E+000,  0.10000000000E+001
  0.25431000000E+005,  0.39009269690E+006,  0.16500000000E+002,  0.00000000000E+000,  0.10000000000E+001
  0.25491000000E+005,  0.39009269737E+006,  0.16500000000E+002,  0.00000000000E+000,  0.10000000000E+001
  0.25551000000E+005,  0.39009269786E+006,  0.16500000000E+002,  0.00000000000E+000,  0.10000000000E+001
  0.25611000000E+005,  0.39009269839E+006,  0.16500000000E+002,  0.00000000000E+000,  0.10000000000E+001
  0.25671000000E+005,  0.39009269897E+006,  0.16500000000E+002,  0.00000000000E+000,  0.10000000000E+001
  0.25731000000E+005,  0.39009269962E+006,  0.16500000000E+002,  0.00000000000E+000,  0.10000000000E+001
  0.25791000000E+005,  0.39009270035E+006,  0.16500000000E+002,  0.00000000000E+000,  0.10000000000E+001
  0.25851000000E+005,  0.39009270118E+006,  0.16500000000E+002,  0.00000000000E+000,  0.10000000000E+001
  0.25911000000E+005,  0.39009270214E+006,  0.16500000000E+002,  0.00000000000E+000,  0.10000000000E+001
  0.25971000000E+005,  0.39009270327E+006,  0.16500000000E+002,  0.00000000000E+000,  0.10000000000E+001
  0.26031000000E+005,  0.39009270459E+006,  0.16500000000E+002,  0.00000000000E+000,  0.10000000000E+001
  0.26091000000E+005,  0.39009270615E+006,  0.16500000000E+002,  0.00000000000E+000,  0.10000000000E+001
  0.26151000000E+005,  0.39009270799E+006,  0.16500000000E+002,  0.00000000000E+000,  0.10000000000E+001
  0.26211000000E+005,  0.39009271018E+006,  0.16500000000E+002,  0.00000000000E+000,  0.10000000000E+001
  0.26271000000E+005,  0.39009271278E+006,  0.16500000000E+002,  0.00000000000E+000,  0.10000000000E+001
  0.26331000000E+005,  0.39009271586E+006,  0.16500000000E+002,  0.00000000000E+000,  0.10000000000E+001
  0.26391000000E+005,  0.39009271950E+006,  0.16500000000E+002,  0.00000000000E+000,  0.10000000000E+001
  0.26451000000E+005,  0.39009272380E+006,  0.16500000000E+002,  0.00000000000E+000,  0.10000000000E+001
  0.26511000000E+005,  0.39009272886E+006,  0.16500000000E+002,  0.00000000000E+000,  0.10000000000E+001
  0.26571000000E+005,  0.39009273480E+006,  0.16500000000E+002,  0.00000000000E+000,  0.10000000000E+001
  0.26631000000E+005,  0.39009274175E+006,  0.16500000000E+002,  0.00000000000E+000,  0.10000000000E+001
  0.26691000000E+005,  0.39009274986E+006,  0.16500000000E+002,  0.00000000000E+000,  0.10000000000E+001
  0.26751000000E+005,  0.39009275927E+006,  0.16500000000E+002,  0.00000000000E+000,  0.10000000000E+001
  0.26811000000E+005,  0.39009277017E+006,  0.16500000000E+002,  0.00000000000E+000,  0.10000000000E+001
  0.26871000000E+005,  0.39009278275E+006,  0.16500000000E+002,  0.00000000000E+000,  0.10000000000E+001
  0.26931000000E+005,  0.39009279721E+006,  0.16500000000E+002,  0.00000000000E+000,  0.10000000000E+001
  0.26991000000E+005,  0.39009281377E+006,  0.16500000000E+002,  0.00000000000E+000,  0.10000000000E+001
  0.27051000000E+005,  0.39009283268E+006,  0.16500000000E+002,  0.00000000000E+000,  0.10000000000E+001
  0.27111000000E+005,  0.39009285419E+006,  0.16500000000E+002,  0.00000000000E+000,  0.10000000000E+001
  0.27171000000E+005,  0.39009287859E+006,  0.16500000000E+002,  0.00000000000E+000,  0.10000000000E+001
  0.27231000000E+005,  0.39009290617E+006,  0.16500000000E+002,  0.00000000000E+000,  0.10000000000E+001
  0.27291000000E+005,  0.39009293726E+006,  0.16500000000E+002,  0.00000000000E+000,  0.10000000000E+001
  0.27351000000E+005,  0.39009297218E+006,  0.16500000000E+002,  0.00000000000E+000,  0.10000000000E+001
  0.27411000000E+005,  0.39009301129E+006,  0.16500000000E+002,  0.00000000000E+000,  0.10000000000E+001
  0.27471000000E+005,  0.39009305498E+006,  0.16500000000E+002,  0.00000000000E+000,  0.10000000000E+001
  0.27531000000E+005,  0.39009310363E+006,  0.16500000000E+002,  0.00000000000E+000,  0.10000000000E+001
  0.27591000000E+005,  0.39009315767E+006,  0.16500000000E+002,  0.00000000000E+000,  0.10000000000E+001
  0.27651000000E+005,  0.39009321754E+006,  0.16500000000E+002,  0.00000000000E+000,  0.10000000000E+001
  0.27711000000E+005,  0.39009328369E+006,  0.16500000000E+002,  0.00000000000E+000,  0.10000000000E+001
  0.27771000000E+005,  0.39009335660E+006,  0.16500000000E+002,  0.00000000000E+000,  0.10000000000E+001
  0.27831000000E+005,  0.39009343676E+006,  0.16500000000E+002,  0.00000000000E+000,  0.10000000000E+001
  0.27891000000E+005,  0.39009352469E+006,  0.16500000000E+002,  0.00000000000E+000,  0.10000000000E+001
  0.27951000000E+005,  0.39009362093E+006,  0.16500000000E+002,  0.00000000000E+000,  0.10000000000E+001
  0.28011000000E+005,  0.39009372602E+006,  0.16500000000E+002,  0.00000000000E+000,  0.10000000000E+001
  0.28071000000E+005,  0.39009384054E+006,  0.16500000000E+002,  0.00000000000E+000,  0.10000000000E+001
  0.28131000000E+005,  0.39009396507E+006,  0.16500000000E+002,  0.00000000000E+000,  0.10000000000E+001
  0.28191000000E+005,  0.39009410020E+006,  0.16500000000E+002,  0.00000000000E+000,  0.10000000000E+001
  0.28251000000E+005,  0.39009424657E+006,  0.16500000000E+002,  0.00000000000E+000,  0.10000000000E+001
  0.28311000000E+005,  0.39009440479E+006,  0.16500000000E+002,  0.00000000000E+000,  0.10000000000E+001
  0.28371000000E+005,  0.39009457550E+006,  0.16500000000E+002,  0.00000000000E+000,  0.10000000000E+001
  0.28431000000E+005,  0.39009475938E+006,  0.16500000000E+002,  0.00000000000E+000,  0.10000000000E+001
  0.28491000000E+005,  0.39009495708E+006,  0.16500000000E+002,  0.00000000000E+000,  0.10000000000E+001
  0.28551000000E+005,  0.39009516927E+006,  0.16500000000E+002,  0.00000000000E+000,  0.10000000000E+001
  0.28611000000E+005,  0.39009539666E+006,  0.16500000000E+002,  0.00000000000E+000,  0.10000000000E+001
  0.28671000000E+005,  0.39009563994E+006,  0.16500000000E+002,  0.00000000000E+000,  0.10000000000E+001
  0.28731000000E+005,  0.39009589980E+006,  0.16500000000E+002,  0.00000000000E+000,  0.10000000000E+001
  0.28791000000E+005,  0.39009617697E+006,  0.16500000000E+002,  0.00000000000E+000,  0.10000000000E+001
  0.28851000000E+005,  0.39009647215E+006,  0.16500000000E+002,  0.00000000000E+000,  0.10000000000E+001
  0.28911000000E+005,  0.39009678606E+006,  0.16500000000E+002,  0.00000000000E+000,  0.10000000000E+001
  0.28971000000E+005,  0.39009711944E+006,  0.16500000000E+002,  0.00000000000E+000,  0.10000000000E+001
  0.29031000000E+005,  0.39009747301E+006,  0.16500000000E+002,  0.00000000000E+000,  0.10000000000E+001
  0.29091000000E+005,  0.39009784749E+006,  0.16500000000E+002,  0.00000000000E+000,  0.10000000000E+001
  0.29151000000E+005,  0.39009824362E+006,  0.16500000000E+002,  0.00000000000E+000,  0.10000000000E+001
  0.29211000000E+005,  0.39009866212E+006,  0.16500000000E+002,  0.00000000000E+000,  0.10000000000E+001
  0.29271000000E+005,  0.39009910372E+006,  0.16500000000E+002,  0.00000000000E+000,  0.10000000000E+001
  0.29331000000E+005,  0.39009956915E+006,  0.16500000000E+002,  0.00000000000E+000,  0.10000000000E+001
  0.29353750000E+005,  0.39009974909E+006,  0.16500000000E+002,  0.00000000000E+000,  0.10000000000E+001
