"           TIME(S)","              PRES","              TEMP","             SAT_G","             SAT_L"
  0.94860000000E+005,  0.76194723973E+006,  0.16500000000E+002,  0.00000000000E+000,  0.10000000000E+001
  0.94870000000E+005,  0.76221584399E+006,  0.16500000000E+002,  0.00000000000E+000,  0.10000000000E+001
  0.94880000000E+005,  0.76248991554E+006,  0.16500000000E+002,  0.00000000000E+000,  0.10000000000E+001
  0.94890000000E+005,  0.76276908065E+006,  0.16500000000E+002,  0.00000000000E+000,  0.10000000000E+001
  0.94900000000E+005,  0.76305298325E+006,  0.16500000000E+002,  0.00000000000E+000,  0.10000000000E+001
  0.94910000000E+005,  0.76334127275E+006,  0.16500000000E+002,  0.00000000000E+000,  0.10000000000E+001
  0.94920000000E+005,  0.76363362761E+006,  0.16500000000E+002,  0.00000000000E+000,  0.10000000000E+001
  0.94930000000E+005,  0.76392978150E+006,  0.16500000000E+002,  0.00000000000E+000,  0.10000000000E+001
  0.94940000000E+005,  0.76422944174E+006,  0.16500000000E+002,  0.00000000000E+000,  0.10000000000E+001
  0.94950000000E+005,  0.76453233225E+006,  0.16500000000E+002,  0.00000000000E+000,  0.10000000000E+001
  0.94960000000E+005,  0.76483824660E+006,  0.16500000000E+002,  0.00000000000E+000,  0.10000000000E+001
  0.94970000000E+005,  0.76514694786E+006,  0.16500000000E+002,  0.00000000000E+000,  0.10000000000E+001
  0.94980000000E+005,  0.76545819330E+006,  0.16500000000E+002,  0.00000000000E+000,  0.10000000000E+001
  0.94990000000E+005,  0.76577179884E+006,  0.16500000000E+002,  0.00000000000E+000,  0.10000000000E+001
  0.95000000000E+005,  0.76608756392E+006,  0.16500000000E+002,  0.00000000000E+000,  0.10000000000E+001
  0.95010000000E+005,  0.76640531821E+006,  0.16500000000E+002,  0.00000000000E+000,  0.10000000000E+001
  0.95020000000E+005,  0.76672487269E+006,  0.16500000000E+002,  0.00000000000E+000,  0.10000000000E+001
  0.95030000000E+005,  0.76704608602E+006,  0.16500000000E+002,  0.00000000000E+000,  0.10000000000E+001
  0.95040000000E+005,  0.76736881626E+006,  0.16500000000E+002,  0.00000000000E+000,  0.10000000000E+001
  0.95050000000E+005,  0.76769289094E+006,  0.16500000000E+002,  0.00000000000E+000,  0.10000000000E+001
  0.95060000000E+005,  0.76801817457E+006,  0.16500000000E+002,  0.00000000000E+000,  0.10000000000E+001
  0.95070000000E+005,  0.76834454888E+006,  0.16500000000E+002,  0.00000000000E+000,  0.10000000000E+001
  0.95080000000E+005,  0.76867188317E+006,  0.16500000000E+002,  0.00000000000E+000,  0.10000000000E+001
  0.95090000000E+005,  0.76900008229E+006,  0.16500000000E+002,  0.00000000000E+000,  0.10000000000E+001
  0.95100000000E+005,  0.76932901786E+006,  0.16500000000E+002,  0.00000000000E+000,  0.10000000000E+001
  0.95110000000E+005,  0.76965859735E+006,  0.16500000000E+002,  0.00000000000E+000,  0.10000000000E+001
  0.95120000000E+005,  0.76998871334E+006,  0.16500000000E+002,  0.00000000000E+000,  0.10000000000E+001
  0.95128100000E+005,  0.77025643291E+006,  0.16500000000E+002,  0.00000000000E+000,  0.10000000000E+001
  0.95138100000E+005,  0.77058732681E+006,  0.16500000000E+002,  0.00000000000E+000,  0.10000000000E+001
  0.95148100000E+005,  0.77091850049E+006,  0.16500000000E+002,  0.00000000000E+000,  0.10000000000E+001
  0.95158100000E+005,  0.77124988493E+006,  0.16500000000E+002,  0.00000000000E+000,  0.10000000000E+001
  0.95168100000E+005,  0.77158143484E+006,  0.16500000000E+002,  0.00000000000E+000,  0.10000000000E+001
  0.95178100000E+005,  0.77191304971E+006,  0.16500000000E+002,  0.00000000000E+000,  0.10000000000E+001
  0.95188100000E+005,  0.77224467220E+006,  0.16500000000E+002,  0.00000000000E+000,  0.10000000000E+001
  0.95198100000E+005,  0.77257624850E+006,  0.16500000000E+002,  0.00000000000E+000,  0.10000000000E+001
  0.95208100000E+005,  0.77290768861E+006,  0.16500000000E+002,  0.00000000000E+000,  0.10000000000E+001
  0.95218100000E+005,  0.77323893559E+006,  0.16500000000E+002,  0.00000000000E+000,  0.10000000000E+001
  0.95228100000E+005,  0.77356997477E+006,  0.16500000000E+002,  0.00000000000E+000,  0.10000000000E+001
  0.95238100000E+005,  0.77390072529E+006,  0.16500000000E+002,  0.00000000000E+000,  0.10000000000E+001
  0.95248100000E+005,  0.77423113863E+006,  0.16500000000E+002,  0.00000000000E+000,  0.10000000000E+001
  0.95258100000E+005,  0.77456118861E+006,  0.16500000000E+002,  0.00000000000E+000,  0.10000000000E+001
  0.95268100000E+005,  0.77489082170E+006,  0.16500000000E+002,  0.00000000000E+000,  0.10000000000E+001
  0.95278100000E+005,  0.77521998678E+006,  0.16500000000E+002,  0.00000000000E+000,  0.10000000000E+001
  0.95288100000E+005,  0.77554864499E+006,  0.16500000000E+002,  0.00000000000E+000,  0.10000000000E+001
  0.95298100000E+005,  0.77587674970E+006,  0.16500000000E+002,  0.00000000000E+000,  0.10000000000E+001
  0.95308100000E+005,  0.77620432446E+006,  0.16500000000E+002,  0.00000000000E+000,  0.10000000000E+001
  0.95318100000E+005,  0.77653126781E+006,  0.16500000000E+002,  0.00000000000E+000,  0.10000000000E+001
  0.95328100000E+005,  0.77685758756E+006,  0.16500000000E+002,  0.00000000000E+000,  0.10000000000E+001
  0.95338100000E+005,  0.77718325380E+006,  0.16500000000E+002,  0.00000000000E+000,  0.10000000000E+001
  0.95348100000E+005,  0.77750820974E+006,  0.16500000000E+002,  0.00000000000E+000,  0.10000000000E+001
  0.95358100000E+005,  0.77783245779E+006,  0.16500000000E+002,  0.00000000000E+000,  0.10000000000E+001
  0.95368100000E+005,  0.77815595380E+006,  0.16500000000E+002,  0.00000000000E+000,  0.10000000000E+001
  0.95378100000E+005,  0.77847868375E+006,  0.16500000000E+002,  0.00000000000E+000,  0.10000000000E+001
  0.95388100000E+005,  0.77880063478E+006,  0.16500000000E+002,  0.00000000000E+000,  0.10000000000E+001
  0.95398100000E+005,  0.77912178573E+006,  0.16500000000E+002,  0.00000000000E+000,  0.10000000000E+001
  0.95398200000E+005,  0.77912499696E+006,  0.16500000000E+002,  0.00000000000E+000,  0.10000000000E+001
  0.95408200000E+005,  0.77944529262E+006,  0.16500000000E+002,  0.00000000000E+000,  0.10000000000E+001
  0.95418200000E+005,  0.77976474945E+006,  0.16500000000E+002,  0.00000000000E+000,  0.10000000000E+001
  0.95428200000E+005,  0.78008334031E+006,  0.16500000000E+002,  0.00000000000E+000,  0.10000000000E+001
  0.95438200000E+005,  0.78040104871E+006,  0.16500000000E+002,  0.00000000000E+000,  0.10000000000E+001
  0.95448200000E+005,  0.78071785899E+006,  0.16500000000E+002,  0.00000000000E+000,  0.10000000000E+001
  0.95458200000E+005,  0.78103376578E+006,  0.16500000000E+002,  0.00000000000E+000,  0.10000000000E+001
  0.95468200000E+005,  0.78134876443E+006,  0.16500000000E+002,  0.00000000000E+000,  0.10000000000E+001
  0.95478200000E+005,  0.78166280475E+006,  0.16500000000E+002,  0.00000000000E+000,  0.10000000000E+001
  0.95488200000E+005,  0.78197591159E+006,  0.16500000000E+002,  0.00000000000E+000,  0.10000000000E+001
  0.95498200000E+005,  0.78228807336E+006,  0.16500000000E+002,  0.00000000000E+000,  0.10000000000E+001
  0.95508200000E+005,  0.78259924270E+006,  0.16500000000E+002,  0.00000000000E+000,  0.10000000000E+001
  0.95518200000E+005,  0.78290944619E+006,  0.16500000000E+002,  0.00000000000E+000,  0.10000000000E+001
  0.95528200000E+005,  0.78321865616E+006,  0.16500000000E+002,  0.00000000000E+000,  0.10000000000E+001
  0.95538200000E+005,  0.78352687290E+006,  0.16500000000E+002,  0.00000000000E+000,  0.10000000000E+001
  0.95548200000E+005,  0.78383406115E+006,  0.16500000000E+002,  0.00000000000E+000,  0.10000000000E+001
  0.95558200000E+005,  0.78414026761E+006,  0.16500000000E+002,  0.00000000000E+000,  0.10000000000E+001
  0.95568200000E+005,  0.78444543999E+006,  0.16500000000E+002,  0.00000000000E+000,  0.10000000000E+001
  0.95578200000E+005,  0.78474958097E+006,  0.16500000000E+002,  0.00000000000E+000,  0.10000000000E+001
  0.95588200000E+005,  0.78505271122E+006,  0.16500000000E+002,  0.00000000000E+000,  0.10000000000E+001
  0.95598200000E+005,  0.78535478941E+006,  0.16500000000E+002,  0.00000000000E+000,  0.10000000000E+001
  0.95608200000E+005,  0.78565581951E+006,  0.16500000000E+002,  0.00000000000E+000,  0.10000000000E+001
  0.95618200000E+005,  0.78595583202E+006,  0.16500000000E+002,  0.00000000000E+000,  0.10000000000E+001
  0.95628200000E+005,  0.78625476968E+006,  0.16500000000E+002,  0.00000000000E+000,  0.10000000000E+001
  0.95638200000E+005,  0.78655266390E+006,  0.16500000000E+002,  0.00000000000E+000,  0.10000000000E+001
  0.95648200000E+005,  0.78684949358E+006,  0.16500000000E+002,  0.00000000000E+000,  0.10000000000E+001
  0.95658200000E+005,  0.78714527289E+006,  0.16500000000E+002,  0.00000000000E+000,  0.10000000000E+001
  0.95668200000E+005,  0.78743999882E+006,  0.16500000000E+002,  0.00000000000E+000,  0.10000000000E+001
  0.95668300000E+005,  0.78744294595E+006,  0.16500000000E+002,  0.00000000000E+000,  0.10000000000E+001
  0.95678300000E+005,  0.78773661477E+006,  0.16500000000E+002,  0.00000000000E+000,  0.10000000000E+001
  0.95688300000E+005,  0.78802918235E+006,  0.16500000000E+002,  0.00000000000E+000,  0.10000000000E+001
  0.95698300000E+005,  0.78832070671E+006,  0.16500000000E+002,  0.00000000000E+000,  0.10000000000E+001
  0.95708300000E+005,  0.78861115192E+006,  0.16500000000E+002,  0.00000000000E+000,  0.10000000000E+001
  0.95718300000E+005,  0.78890054185E+006,  0.16500000000E+002,  0.00000000000E+000,  0.10000000000E+001
  0.95728300000E+005,  0.78918886686E+006,  0.16500000000E+002,  0.00000000000E+000,  0.10000000000E+001
  0.95738300000E+005,  0.78947613423E+006,  0.16500000000E+002,  0.00000000000E+000,  0.10000000000E+001
  0.95748300000E+005,  0.78976233460E+006,  0.16500000000E+002,  0.00000000000E+000,  0.10000000000E+001
  0.95758300000E+005,  0.79004745080E+006,  0.16500000000E+002,  0.00000000000E+000,  0.10000000000E+001
  0.95768300000E+005,  0.79033149916E+006,  0.16500000000E+002,  0.00000000000E+000,  0.10000000000E+001
  0.95778300000E+005,  0.79061446308E+006,  0.16500000000E+002,  0.00000000000E+000,  0.10000000000E+001
  0.95788300000E+005,  0.79089635099E+006,  0.16500000000E+002,  0.00000000000E+000,  0.10000000000E+001
  0.95798300000E+005,  0.79117717131E+006,  0.16500000000E+002,  0.00000000000E+000,  0.10000000000E+001
  0.95808300000E+005,  0.79145691634E+006,  0.16500000000E+002,  0.00000000000E+000,  0.10000000000E+001
  0.95818300000E+005,  0.79173560285E+006,  0.16500000000E+002,  0.00000000000E+000,  0.10000000000E+001
  0.95828300000E+005,  0.79201323145E+006,  0.16500000000E+002,  0.00000000000E+000,  0.10000000000E+001
  0.95838300000E+005,  0.79228978681E+006,  0.16500000000E+002,  0.00000000000E+000,  0.10000000000E+001
  0.95848300000E+005,  0.79256529386E+006,  0.16500000000E+002,  0.00000000000E+000,  0.10000000000E+001
  0.95858300000E+005,  0.79283970583E+006,  0.16500000000E+002,  0.00000000000E+000,  0.10000000000E+001
  0.95868300000E+005,  0.79311308774E+006,  0.16500000000E+002,  0.00000000000E+000,  0.10000000000E+001
  0.95878300000E+005,  0.79338540897E+006,  0.16500000000E+002,  0.00000000000E+000,  0.10000000000E+001
  0.95888300000E+005,  0.79365667103E+006,  0.16500000000E+002,  0.00000000000E+000,  0.10000000000E+001
  0.95898300000E+005,  0.79392685201E+006,  0.16500000000E+002,  0.00000000000E+000,  0.10000000000E+001
  0.95908300000E+005,  0.79419600074E+006,  0.16500000000E+002,  0.00000000000E+000,  0.10000000000E+001
  0.95918300000E+005,  0.79446411092E+006,  0.16500000000E+002,  0.00000000000E+000,  0.10000000000E+001
  0.95928300000E+005,  0.79473116101E+006,  0.16500000000E+002,  0.00000000000E+000,  0.10000000000E+001
  0.95938300000E+005,  0.79499716856E+006,  0.16500000000E+002,  0.00000000000E+000,  0.10000000000E+001
  0.95938400000E+005,  0.79499982857E+006,  0.16500000000E+002,  0.00000000000E+000,  0.10000000000E+001
  0.95948400000E+005,  0.79526478597E+006,  0.16500000000E+002,  0.00000000000E+000,  0.10000000000E+001
  0.95958400000E+005,  0.79552868959E+006,  0.16500000000E+002,  0.00000000000E+000,  0.10000000000E+001
  0.95968400000E+005,  0.79579157223E+006,  0.16500000000E+002,  0.00000000000E+000,  0.10000000000E+001
  0.95978400000E+005,  0.79605339805E+006,  0.16500000000E+002,  0.00000000000E+000,  0.10000000000E+001
  0.95988400000E+005,  0.79631419230E+006,  0.16500000000E+002,  0.00000000000E+000,  0.10000000000E+001
  0.95998400000E+005,  0.79657397233E+006,  0.16500000000E+002,  0.00000000000E+000,  0.10000000000E+001
  0.96008400000E+005,  0.79683271049E+006,  0.16500000000E+002,  0.00000000000E+000,  0.10000000000E+001
  0.96018400000E+005,  0.79709041692E+006,  0.16500000000E+002,  0.00000000000E+000,  0.10000000000E+001
  0.96028400000E+005,  0.79734711648E+006,  0.16500000000E+002,  0.00000000000E+000,  0.10000000000E+001
  0.96038400000E+005,  0.79760276741E+006,  0.16500000000E+002,  0.00000000000E+000,  0.10000000000E+001
  0.96048400000E+005,  0.79785740952E+006,  0.16500000000E+002,  0.00000000000E+000,  0.10000000000E+001
  0.96058400000E+005,  0.79811106001E+006,  0.16500000000E+002,  0.00000000000E+000,  0.10000000000E+001
  0.96068400000E+005,  0.79836367772E+006,  0.16500000000E+002,  0.00000000000E+000,  0.10000000000E+001
  0.96078400000E+005,  0.79861529481E+006,  0.16500000000E+002,  0.00000000000E+000,  0.10000000000E+001
  0.96088400000E+005,  0.79886592840E+006,  0.16500000000E+002,  0.00000000000E+000,  0.10000000000E+001
  0.96098400000E+005,  0.79911553799E+006,  0.16500000000E+002,  0.00000000000E+000,  0.10000000000E+001
  0.96108400000E+005,  0.79936414122E+006,  0.16500000000E+002,  0.00000000000E+000,  0.10000000000E+001
  0.96118400000E+005,  0.79961174830E+006,  0.16500000000E+002,  0.00000000000E+000,  0.10000000000E+001
  0.96128400000E+005,  0.79985836938E+006,  0.16500000000E+002,  0.00000000000E+000,  0.10000000000E+001
  0.96138400000E+005,  0.80010400742E+006,  0.16500000000E+002,  0.00000000000E+000,  0.10000000000E+001
  0.96148400000E+005,  0.80034866543E+006,  0.16500000000E+002,  0.00000000000E+000,  0.10000000000E+001
  0.96158400000E+005,  0.80059233947E+006,  0.16500000000E+002,  0.00000000000E+000,  0.10000000000E+001
  0.96168400000E+005,  0.80083504666E+006,  0.16500000000E+002,  0.00000000000E+000,  0.10000000000E+001
  0.96178400000E+005,  0.80107678307E+006,  0.16500000000E+002,  0.00000000000E+000,  0.10000000000E+001
  0.96188400000E+005,  0.80131753795E+006,  0.16500000000E+002,  0.00000000000E+000,  0.10000000000E+001
  0.96198400000E+005,  0.80155732845E+006,  0.16500000000E+002,  0.00000000000E+000,  0.10000000000E+001
  0.96208400000E+005,  0.80179615773E+006,  0.16500000000E+002,  0.00000000000E+000,  0.10000000000E+001
  0.96208500000E+005,  0.80179854567E+006,  0.16500000000E+002,  0.00000000000E+000,  0.10000000000E+001
  0.96218500000E+005,  0.80203639451E+006,  0.16500000000E+002,  0.00000000000E+000,  0.10000000000E+001
  0.96228500000E+005,  0.80227329557E+006,  0.16500000000E+002,  0.00000000000E+000,  0.10000000000E+001
  0.96238500000E+005,  0.80250922495E+006,  0.16500000000E+002,  0.00000000000E+000,  0.10000000000E+001
  0.96248500000E+005,  0.80274421311E+006,  0.16500000000E+002,  0.00000000000E+000,  0.10000000000E+001
  0.96258500000E+005,  0.80297825656E+006,  0.16500000000E+002,  0.00000000000E+000,  0.10000000000E+001
  0.96268500000E+005,  0.80321135862E+006,  0.16500000000E+002,  0.00000000000E+000,  0.10000000000E+001
  0.96278500000E+005,  0.80344352264E+006,  0.16500000000E+002,  0.00000000000E+000,  0.10000000000E+001
  0.96288500000E+005,  0.80367475191E+006,  0.16500000000E+002,  0.00000000000E+000,  0.10000000000E+001
  0.96298500000E+005,  0.80390505639E+006,  0.16500000000E+002,  0.00000000000E+000,  0.10000000000E+001
  0.96308500000E+005,  0.80413444590E+006,  0.16500000000E+002,  0.00000000000E+000,  0.10000000000E+001
  0.96318500000E+005,  0.80436289746E+006,  0.16500000000E+002,  0.00000000000E+000,  0.10000000000E+001
  0.96328500000E+005,  0.80459043419E+006,  0.16500000000E+002,  0.00000000000E+000,  0.10000000000E+001
  0.96338500000E+005,  0.80481703995E+006,  0.16500000000E+002,  0.00000000000E+000,  0.10000000000E+001
  0.96348500000E+005,  0.80504276353E+006,  0.16500000000E+002,  0.00000000000E+000,  0.10000000000E+001
  0.96358500000E+005,  0.80526755654E+006,  0.16500000000E+002,  0.00000000000E+000,  0.10000000000E+001
  0.96368500000E+005,  0.80549145461E+006,  0.16500000000E+002,  0.00000000000E+000,  0.10000000000E+001
  0.96378500000E+005,  0.80571444190E+006,  0.16500000000E+002,  0.00000000000E+000,  0.10000000000E+001
  0.96388500000E+005,  0.80593653462E+006,  0.16500000000E+002,  0.00000000000E+000,  0.10000000000E+001
  0.96398500000E+005,  0.80615772350E+006,  0.16500000000E+002,  0.00000000000E+000,  0.10000000000E+001
  0.96408500000E+005,  0.80637802468E+006,  0.16500000000E+002,  0.00000000000E+000,  0.10000000000E+001
  0.96418500000E+005,  0.80659742279E+006,  0.16500000000E+002,  0.00000000000E+000,  0.10000000000E+001
  0.96428500000E+005,  0.80681595881E+006,  0.16500000000E+002,  0.00000000000E+000,  0.10000000000E+001
  0.96438500000E+005,  0.80703359870E+006,  0.16500000000E+002,  0.00000000000E+000,  0.10000000000E+001
  0.96448500000E+005,  0.80725036459E+006,  0.16500000000E+002,  0.00000000000E+000,  0.10000000000E+001
  0.96458500000E+005,  0.80746625991E+006,  0.16500000000E+002,  0.00000000000E+000,  0.10000000000E+001
  0.96468500000E+005,  0.80768129416E+006,  0.16500000000E+002,  0.00000000000E+000,  0.10000000000E+001
  0.96478500000E+005,  0.80789545233E+006,  0.16500000000E+002,  0.00000000000E+000,  0.10000000000E+001
  0.96478600000E+005,  0.80789759384E+006,  0.16500000000E+002,  0.00000000000E+000,  0.10000000000E+001
  0.96488600000E+005,  0.80811088363E+006,  0.16500000000E+002,  0.00000000000E+000,  0.10000000000E+001
  0.96498600000E+005,  0.80832332253E+006,  0.16500000000E+002,  0.00000000000E+000,  0.10000000000E+001
  0.96508600000E+005,  0.80853490185E+006,  0.16500000000E+002,  0.00000000000E+000,  0.10000000000E+001
  0.96518600000E+005,  0.80874563706E+006,  0.16500000000E+002,  0.00000000000E+000,  0.10000000000E+001
  0.96528600000E+005,  0.80895551358E+006,  0.16500000000E+002,  0.00000000000E+000,  0.10000000000E+001
  0.96538600000E+005,  0.80916454687E+006,  0.16500000000E+002,  0.00000000000E+000,  0.10000000000E+001
  0.96548600000E+005,  0.80937274034E+006,  0.16500000000E+002,  0.00000000000E+000,  0.10000000000E+001
  0.96558600000E+005,  0.80958010326E+006,  0.16500000000E+002,  0.00000000000E+000,  0.10000000000E+001
  0.96568600000E+005,  0.80978662727E+006,  0.16500000000E+002,  0.00000000000E+000,  0.10000000000E+001
  0.96578600000E+005,  0.80999231584E+006,  0.16500000000E+002,  0.00000000000E+000,  0.10000000000E+001
  0.96588600000E+005,  0.81019719572E+006,  0.16500000000E+002,  0.00000000000E+000,  0.10000000000E+001
  0.96598600000E+005,  0.81040123529E+006,  0.16500000000E+002,  0.00000000000E+000,  0.10000000000E+001
  0.96608600000E+005,  0.81060448430E+006,  0.16500000000E+002,  0.00000000000E+000,  0.10000000000E+001
  0.96618600000E+005,  0.81080688835E+006,  0.16500000000E+002,  0.00000000000E+000,  0.10000000000E+001
  0.96628600000E+005,  0.81100849699E+006,  0.16500000000E+002,  0.00000000000E+000,  0.10000000000E+001
  0.96638600000E+005,  0.81120929622E+006,  0.16500000000E+002,  0.00000000000E+000,  0.10000000000E+001
  0.96648600000E+005,  0.81140928382E+006,  0.16500000000E+002,  0.00000000000E+000,  0.10000000000E+001
  0.96658600000E+005,  0.81160847451E+006,  0.16500000000E+002,  0.00000000000E+000,  0.10000000000E+001
  0.96668600000E+005,  0.81180686036E+006,  0.16500000000E+002,  0.00000000000E+000,  0.10000000000E+001
  0.96678600000E+005,  0.81200446717E+006,  0.16500000000E+002,  0.00000000000E+000,  0.10000000000E+001
  0.96688600000E+005,  0.81220128695E+006,  0.16500000000E+002,  0.00000000000E+000,  0.10000000000E+001
