"           TIME(S)","              PRES","              TEMP","             SAT_G","             SAT_L"
  0.32516000000E+005,  0.16612950355E+006,  0.16500000000E+002,  0.00000000000E+000,  0.10000000000E+001
  0.32521000000E+005,  0.16614024942E+006,  0.16500000000E+002,  0.00000000000E+000,  0.10000000000E+001
  0.32546000000E+005,  0.16619705213E+006,  0.16500000000E+002,  0.00000000000E+000,  0.10000000000E+001
  0.32606000000E+005,  0.16633609539E+006,  0.16500000000E+002,  0.00000000000E+000,  0.10000000000E+001
  0.32666000000E+005,  0.16647664638E+006,  0.16500000000E+002,  0.00000000000E+000,  0.10000000000E+001
  0.32726000000E+005,  0.16662099379E+006,  0.16500000000E+002,  0.00000000000E+000,  0.10000000000E+001
  0.32786000000E+005,  0.16677374229E+006,  0.16500000000E+002,  0.00000000000E+000,  0.10000000000E+001
  0.32846000000E+005,  0.16694164402E+006,  0.16500000000E+002,  0.00000000000E+000,  0.10000000000E+001
  0.32906000000E+005,  0.16713328113E+006,  0.16500000000E+002,  0.00000000000E+000,  0.10000000000E+001
  0.32966000000E+005,  0.16735852832E+006,  0.16500000000E+002,  0.00000000000E+000,  0.10000000000E+001
  0.33026000000E+005,  0.16762790447E+006,  0.16500000000E+002,  0.00000000000E+000,  0.10000000000E+001
  0.33086000000E+005,  0.16795192927E+006,  0.16500000000E+002,  0.00000000000E+000,  0.10000000000E+001
  0.33146000000E+005,  0.16834056710E+006,  0.16500000000E+002,  0.00000000000E+000,  0.10000000000E+001
  0.33206000000E+005,  0.16880280071E+006,  0.16500000000E+002,  0.00000000000E+000,  0.10000000000E+001
  0.33266000000E+005,  0.16934634550E+006,  0.16500000000E+002,  0.00000000000E+000,  0.10000000000E+001
  0.33326000000E+005,  0.16997749377E+006,  0.16500000000E+002,  0.00000000000E+000,  0.10000000000E+001
  0.33386000000E+005,  0.17070106710E+006,  0.16500000000E+002,  0.00000000000E+000,  0.10000000000E+001
  0.33446000000E+005,  0.17152045115E+006,  0.16500000000E+002,  0.00000000000E+000,  0.10000000000E+001
  0.33506000000E+005,  0.17243768800E+006,  0.16500000000E+002,  0.00000000000E+000,  0.10000000000E+001
  0.33566000000E+005,  0.17345360459E+006,  0.16500000000E+002,  0.00000000000E+000,  0.10000000000E+001
  0.33626000000E+005,  0.17456795995E+006,  0.16500000000E+002,  0.00000000000E+000,  0.10000000000E+001
  0.33686000000E+005,  0.17577959843E+006,  0.16500000000E+002,  0.00000000000E+000,  0.10000000000E+001
  0.33746000000E+005,  0.17708659975E+006,  0.16500000000E+002,  0.00000000000E+000,  0.10000000000E+001
  0.33806000000E+005,  0.17848642014E+006,  0.16500000000E+002,  0.00000000000E+000,  0.10000000000E+001
  0.33866000000E+005,  0.17997602093E+006,  0.16500000000E+002,  0.00000000000E+000,  0.10000000000E+001
  0.33926000000E+005,  0.18155198306E+006,  0.16500000000E+002,  0.00000000000E+000,  0.10000000000E+001
  0.33986000000E+005,  0.18321060698E+006,  0.16500000000E+002,  0.00000000000E+000,  0.10000000000E+001
  0.34046000000E+005,  0.18494799848E+006,  0.16500000000E+002,  0.00000000000E+000,  0.10000000000E+001
  0.34106000000E+005,  0.18676014123E+006,  0.16500000000E+002,  0.00000000000E+000,  0.10000000000E+001
  0.34166000000E+005,  0.18864295732E+006,  0.16500000000E+002,  0.00000000000E+000,  0.10000000000E+001
  0.34226000000E+005,  0.19059235713E+006,  0.16500000000E+002,  0.00000000000E+000,  0.10000000000E+001
  0.34286000000E+005,  0.19260427980E+006,  0.16500000000E+002,  0.00000000000E+000,  0.10000000000E+001
  0.34346000000E+005,  0.19467472565E+006,  0.16500000000E+002,  0.00000000000E+000,  0.10000000000E+001
  0.34406000000E+005,  0.19679978163E+006,  0.16500000000E+002,  0.00000000000E+000,  0.10000000000E+001
  0.34466000000E+005,  0.19897564098E+006,  0.16500000000E+002,  0.00000000000E+000,  0.10000000000E+001
  0.34526000000E+005,  0.20119861796E+006,  0.16500000000E+002,  0.00000000000E+000,  0.10000000000E+001
  0.34586000000E+005,  0.20346515852E+006,  0.16500000000E+002,  0.00000000000E+000,  0.10000000000E+001
  0.34646000000E+005,  0.20577184755E+006,  0.16500000000E+002,  0.00000000000E+000,  0.10000000000E+001
  0.34706000000E+005,  0.20811541344E+006,  0.16500000000E+002,  0.00000000000E+000,  0.10000000000E+001
  0.34766000000E+005,  0.21049273035E+006,  0.16500000000E+002,  0.00000000000E+000,  0.10000000000E+001
  0.34826000000E+005,  0.21290081868E+006,  0.16500000000E+002,  0.00000000000E+000,  0.10000000000E+001
  0.34886000000E+005,  0.21533684408E+006,  0.16500000000E+002,  0.00000000000E+000,  0.10000000000E+001
  0.34946000000E+005,  0.21779811537E+006,  0.16500000000E+002,  0.00000000000E+000,  0.10000000000E+001
  0.35006000000E+005,  0.22028208150E+006,  0.16500000000E+002,  0.00000000000E+000,  0.10000000000E+001
  0.35066000000E+005,  0.22278632792E+006,  0.16500000000E+002,  0.00000000000E+000,  0.10000000000E+001
  0.35126000000E+005,  0.22530857236E+006,  0.16500000000E+002,  0.00000000000E+000,  0.10000000000E+001
  0.35186000000E+005,  0.22784666031E+006,  0.16500000000E+002,  0.00000000000E+000,  0.10000000000E+001
  0.35246000000E+005,  0.23039856023E+006,  0.16500000000E+002,  0.00000000000E+000,  0.10000000000E+001
  0.35306000000E+005,  0.23296235860E+006,  0.16500000000E+002,  0.00000000000E+000,  0.10000000000E+001
  0.35366000000E+005,  0.23553625491E+006,  0.16500000000E+002,  0.00000000000E+000,  0.10000000000E+001
  0.35426000000E+005,  0.23811855663E+006,  0.16500000000E+002,  0.00000000000E+000,  0.10000000000E+001
  0.35486000000E+005,  0.24070767419E+006,  0.16500000000E+002,  0.00000000000E+000,  0.10000000000E+001
  0.35546000000E+005,  0.24330211606E+006,  0.16500000000E+002,  0.00000000000E+000,  0.10000000000E+001
  0.35606000000E+005,  0.24590048392E+006,  0.16500000000E+002,  0.00000000000E+000,  0.10000000000E+001
  0.35666000000E+005,  0.24850146798E+006,  0.16500000000E+002,  0.00000000000E+000,  0.10000000000E+001
  0.35726000000E+005,  0.25110384234E+006,  0.16500000000E+002,  0.00000000000E+000,  0.10000000000E+001
  0.35786000000E+005,  0.25370646065E+006,  0.16500000000E+002,  0.00000000000E+000,  0.10000000000E+001
  0.35846000000E+005,  0.25630825183E+006,  0.16500000000E+002,  0.00000000000E+000,  0.10000000000E+001
  0.35906000000E+005,  0.25890821596E+006,  0.16500000000E+002,  0.00000000000E+000,  0.10000000000E+001
  0.35966000000E+005,  0.26150542040E+006,  0.16500000000E+002,  0.00000000000E+000,  0.10000000000E+001
  0.36026000000E+005,  0.26409899439E+006,  0.16500000000E+002,  0.00000000000E+000,  0.10000000000E+001
  0.36086000000E+005,  0.26668811896E+006,  0.16500000000E+002,  0.00000000000E+000,  0.10000000000E+001
  0.36146000000E+005,  0.26927201171E+006,  0.16500000000E+002,  0.00000000000E+000,  0.10000000000E+001
  0.36206000000E+005,  0.27184991040E+006,  0.16500000000E+002,  0.00000000000E+000,  0.10000000000E+001
  0.36266000000E+005,  0.27442106055E+006,  0.16500000000E+002,  0.00000000000E+000,  0.10000000000E+001
  0.36326000000E+005,  0.27698471022E+006,  0.16500000000E+002,  0.00000000000E+000,  0.10000000000E+001
  0.36386000000E+005,  0.27954011264E+006,  0.16500000000E+002,  0.00000000000E+000,  0.10000000000E+001
  0.36446000000E+005,  0.28208653436E+006,  0.16500000000E+002,  0.00000000000E+000,  0.10000000000E+001
  0.36506000000E+005,  0.28462326651E+006,  0.16500000000E+002,  0.00000000000E+000,  0.10000000000E+001
  0.36566000000E+005,  0.28714963638E+006,  0.16500000000E+002,  0.00000000000E+000,  0.10000000000E+001
  0.36626000000E+005,  0.28966501738E+006,  0.16500000000E+002,  0.00000000000E+000,  0.10000000000E+001
  0.36686000000E+005,  0.29216883657E+006,  0.16500000000E+002,  0.00000000000E+000,  0.10000000000E+001
  0.36746000000E+005,  0.29466057915E+006,  0.16500000000E+002,  0.00000000000E+000,  0.10000000000E+001
  0.36806000000E+005,  0.29713979031E+006,  0.16500000000E+002,  0.00000000000E+000,  0.10000000000E+001
  0.36866000000E+005,  0.29960607472E+006,  0.16500000000E+002,  0.00000000000E+000,  0.10000000000E+001
  0.36926000000E+005,  0.30205909425E+006,  0.16500000000E+002,  0.00000000000E+000,  0.10000000000E+001
  0.36986000000E+005,  0.30449856448E+006,  0.16500000000E+002,  0.00000000000E+000,  0.10000000000E+001
  0.37046000000E+005,  0.30692425048E+006,  0.16500000000E+002,  0.00000000000E+000,  0.10000000000E+001
  0.37106000000E+005,  0.30933596215E+006,  0.16500000000E+002,  0.00000000000E+000,  0.10000000000E+001
  0.37166000000E+005,  0.31173354954E+006,  0.16500000000E+002,  0.00000000000E+000,  0.10000000000E+001
  0.37226000000E+005,  0.31411689825E+006,  0.16500000000E+002,  0.00000000000E+000,  0.10000000000E+001
  0.37286000000E+005,  0.31648592513E+006,  0.16500000000E+002,  0.00000000000E+000,  0.10000000000E+001
  0.37346000000E+005,  0.31884057428E+006,  0.16500000000E+002,  0.00000000000E+000,  0.10000000000E+001
  0.37406000000E+005,  0.32118081344E+006,  0.16500000000E+002,  0.00000000000E+000,  0.10000000000E+001
  0.37466000000E+005,  0.32350662889E+006,  0.16500000000E+002,  0.00000000000E+000,  0.10000000000E+001
  0.37526000000E+005,  0.32581802320E+006,  0.16500000000E+002,  0.00000000000E+000,  0.10000000000E+001
  0.37586000000E+005,  0.32811502088E+006,  0.16500000000E+002,  0.00000000000E+000,  0.10000000000E+001
  0.37646000000E+005,  0.33039768091E+006,  0.16500000000E+002,  0.00000000000E+000,  0.10000000000E+001
  0.37706000000E+005,  0.33266611014E+006,  0.16500000000E+002,  0.00000000000E+000,  0.10000000000E+001
  0.37766000000E+005,  0.33492047126E+006,  0.16500000000E+002,  0.00000000000E+000,  0.10000000000E+001
  0.37826000000E+005,  0.33716098238E+006,  0.16500000000E+002,  0.00000000000E+000,  0.10000000000E+001
  0.37886000000E+005,  0.33938790880E+006,  0.16500000000E+002,  0.00000000000E+000,  0.10000000000E+001
  0.37946000000E+005,  0.34160154945E+006,  0.16500000000E+002,  0.00000000000E+000,  0.10000000000E+001
  0.38006000000E+005,  0.34380222115E+006,  0.16500000000E+002,  0.00000000000E+000,  0.10000000000E+001
  0.38066000000E+005,  0.34599024344E+006,  0.16500000000E+002,  0.00000000000E+000,  0.10000000000E+001
  0.38126000000E+005,  0.34816592558E+006,  0.16500000000E+002,  0.00000000000E+000,  0.10000000000E+001
  0.38186000000E+005,  0.35032955669E+006,  0.16500000000E+002,  0.00000000000E+000,  0.10000000000E+001
  0.38246000000E+005,  0.35248139917E+006,  0.16500000000E+002,  0.00000000000E+000,  0.10000000000E+001
  0.38306000000E+005,  0.35462168505E+006,  0.16500000000E+002,  0.00000000000E+000,  0.10000000000E+001
  0.38366000000E+005,  0.35675061477E+006,  0.16500000000E+002,  0.00000000000E+000,  0.10000000000E+001
  0.38426000000E+005,  0.35886835780E+006,  0.16500000000E+002,  0.00000000000E+000,  0.10000000000E+001
  0.38486000000E+005,  0.36097505460E+006,  0.16500000000E+002,  0.00000000000E+000,  0.10000000000E+001
  0.38546000000E+005,  0.36307081931E+006,  0.16500000000E+002,  0.00000000000E+000,  0.10000000000E+001
  0.38606000000E+005,  0.36515574284E+006,  0.16500000000E+002,  0.00000000000E+000,  0.10000000000E+001
  0.38666000000E+005,  0.36722989623E+006,  0.16500000000E+002,  0.00000000000E+000,  0.10000000000E+001
  0.38726000000E+005,  0.36929333377E+006,  0.16500000000E+002,  0.00000000000E+000,  0.10000000000E+001
  0.38786000000E+005,  0.37134609606E+006,  0.16500000000E+002,  0.00000000000E+000,  0.10000000000E+001
  0.38846000000E+005,  0.37338821272E+006,  0.16500000000E+002,  0.00000000000E+000,  0.10000000000E+001
  0.38906000000E+005,  0.37541970487E+006,  0.16500000000E+002,  0.00000000000E+000,  0.10000000000E+001
  0.38966000000E+005,  0.37744058721E+006,  0.16500000000E+002,  0.00000000000E+000,  0.10000000000E+001
  0.39026000000E+005,  0.37945086986E+006,  0.16500000000E+002,  0.00000000000E+000,  0.10000000000E+001
  0.39086000000E+005,  0.38145055990E+006,  0.16500000000E+002,  0.00000000000E+000,  0.10000000000E+001
  0.39146000000E+005,  0.38343966266E+006,  0.16500000000E+002,  0.00000000000E+000,  0.10000000000E+001
  0.39206000000E+005,  0.38541818275E+006,  0.16500000000E+002,  0.00000000000E+000,  0.10000000000E+001
  0.39266000000E+005,  0.38738612489E+006,  0.16500000000E+002,  0.00000000000E+000,  0.10000000000E+001
  0.39326000000E+005,  0.38934349463E+006,  0.16500000000E+002,  0.00000000000E+000,  0.10000000000E+001
  0.39386000000E+005,  0.39129029887E+006,  0.16500000000E+002,  0.00000000000E+000,  0.10000000000E+001
  0.39446000000E+005,  0.39322654621E+006,  0.16500000000E+002,  0.00000000000E+000,  0.10000000000E+001
  0.39506000000E+005,  0.39515224734E+006,  0.16500000000E+002,  0.00000000000E+000,  0.10000000000E+001
  0.39566000000E+005,  0.39706741517E+006,  0.16500000000E+002,  0.00000000000E+000,  0.10000000000E+001
  0.39626000000E+005,  0.39897206501E+006,  0.16500000000E+002,  0.00000000000E+000,  0.10000000000E+001
  0.39686000000E+005,  0.40086621465E+006,  0.16500000000E+002,  0.00000000000E+000,  0.10000000000E+001
  0.39746000000E+005,  0.40274988440E+006,  0.16500000000E+002,  0.00000000000E+000,  0.10000000000E+001
  0.39806000000E+005,  0.40462309707E+006,  0.16500000000E+002,  0.00000000000E+000,  0.10000000000E+001
  0.39866000000E+005,  0.40648587797E+006,  0.16500000000E+002,  0.00000000000E+000,  0.10000000000E+001
  0.39926000000E+005,  0.40833825483E+006,  0.16500000000E+002,  0.00000000000E+000,  0.10000000000E+001
  0.39986000000E+005,  0.41018025773E+006,  0.16500000000E+002,  0.00000000000E+000,  0.10000000000E+001
  0.40046000000E+005,  0.41201191902E+006,  0.16500000000E+002,  0.00000000000E+000,  0.10000000000E+001
  0.40106000000E+005,  0.41383327323E+006,  0.16500000000E+002,  0.00000000000E+000,  0.10000000000E+001
  0.40166000000E+005,  0.41564435696E+006,  0.16500000000E+002,  0.00000000000E+000,  0.10000000000E+001
  0.40226000000E+005,  0.41744520875E+006,  0.16500000000E+002,  0.00000000000E+000,  0.10000000000E+001
  0.40286000000E+005,  0.41923586903E+006,  0.16500000000E+002,  0.00000000000E+000,  0.10000000000E+001
  0.40346000000E+005,  0.42101637994E+006,  0.16500000000E+002,  0.00000000000E+000,  0.10000000000E+001
  0.40406000000E+005,  0.42278678527E+006,  0.16500000000E+002,  0.00000000000E+000,  0.10000000000E+001
  0.40466000000E+005,  0.42454713032E+006,  0.16500000000E+002,  0.00000000000E+000,  0.10000000000E+001
  0.40526000000E+005,  0.42629746182E+006,  0.16500000000E+002,  0.00000000000E+000,  0.10000000000E+001
  0.40586000000E+005,  0.42803782779E+006,  0.16500000000E+002,  0.00000000000E+000,  0.10000000000E+001
  0.40646000000E+005,  0.42976827749E+006,  0.16500000000E+002,  0.00000000000E+000,  0.10000000000E+001
  0.40706000000E+005,  0.43148886126E+006,  0.16500000000E+002,  0.00000000000E+000,  0.10000000000E+001
  0.40766000000E+005,  0.43319963048E+006,  0.16500000000E+002,  0.00000000000E+000,  0.10000000000E+001
  0.40826000000E+005,  0.43490063744E+006,  0.16500000000E+002,  0.00000000000E+000,  0.10000000000E+001
  0.40886000000E+005,  0.43659193529E+006,  0.16500000000E+002,  0.00000000000E+000,  0.10000000000E+001
  0.40946000000E+005,  0.43827357794E+006,  0.16500000000E+002,  0.00000000000E+000,  0.10000000000E+001
  0.41006000000E+005,  0.43994561996E+006,  0.16500000000E+002,  0.00000000000E+000,  0.10000000000E+001
  0.41066000000E+005,  0.44160811656E+006,  0.16500000000E+002,  0.00000000000E+000,  0.10000000000E+001
  0.41126000000E+005,  0.44326112346E+006,  0.16500000000E+002,  0.00000000000E+000,  0.10000000000E+001
  0.41186000000E+005,  0.44490469687E+006,  0.16500000000E+002,  0.00000000000E+000,  0.10000000000E+001
  0.41246000000E+005,  0.44653889339E+006,  0.16500000000E+002,  0.00000000000E+000,  0.10000000000E+001
  0.41306000000E+005,  0.44816376999E+006,  0.16500000000E+002,  0.00000000000E+000,  0.10000000000E+001
  0.41366000000E+005,  0.44977938391E+006,  0.16500000000E+002,  0.00000000000E+000,  0.10000000000E+001
  0.41426000000E+005,  0.45138579266E+006,  0.16500000000E+002,  0.00000000000E+000,  0.10000000000E+001
  0.41486000000E+005,  0.45298305391E+006,  0.16500000000E+002,  0.00000000000E+000,  0.10000000000E+001
  0.41546000000E+005,  0.45457122550E+006,  0.16500000000E+002,  0.00000000000E+000,  0.10000000000E+001
  0.41606000000E+005,  0.45615036537E+006,  0.16500000000E+002,  0.00000000000E+000,  0.10000000000E+001
  0.41666000000E+005,  0.45772053149E+006,  0.16500000000E+002,  0.00000000000E+000,  0.10000000000E+001
  0.41726000000E+005,  0.45928178190E+006,  0.16500000000E+002,  0.00000000000E+000,  0.10000000000E+001
  0.41786000000E+005,  0.46083417459E+006,  0.16500000000E+002,  0.00000000000E+000,  0.10000000000E+001
  0.41846000000E+005,  0.46237776753E+006,  0.16500000000E+002,  0.00000000000E+000,  0.10000000000E+001
  0.41906000000E+005,  0.46391261860E+006,  0.16500000000E+002,  0.00000000000E+000,  0.10000000000E+001
  0.41966000000E+005,  0.46543878558E+006,  0.16500000000E+002,  0.00000000000E+000,  0.10000000000E+001
  0.42026000000E+005,  0.46695632518E+006,  0.16500000000E+002,  0.00000000000E+000,  0.10000000000E+001
  0.42086000000E+005,  0.46846528925E+006,  0.16500000000E+002,  0.00000000000E+000,  0.10000000000E+001
  0.42146000000E+005,  0.46996571790E+006,  0.16500000000E+002,  0.00000000000E+000,  0.10000000000E+001
  0.42206000000E+005,  0.47145763190E+006,  0.16500000000E+002,  0.00000000000E+000,  0.10000000000E+001
  0.42266000000E+005,  0.47294102728E+006,  0.16500000000E+002,  0.00000000000E+000,  0.10000000000E+001
  0.42326000000E+005,  0.47441587398E+006,  0.16500000000E+002,  0.00000000000E+000,  0.10000000000E+001
  0.42386000000E+005,  0.47588211909E+006,  0.16500000000E+002,  0.00000000000E+000,  0.10000000000E+001
  0.42446000000E+005,  0.47733969307E+006,  0.16500000000E+002,  0.00000000000E+000,  0.10000000000E+001
  0.42506000000E+005,  0.47878851768E+006,  0.16500000000E+002,  0.00000000000E+000,  0.10000000000E+001
  0.42566000000E+005,  0.48022851397E+006,  0.16500000000E+002,  0.00000000000E+000,  0.10000000000E+001
  0.42626000000E+005,  0.48165960947E+006,  0.16500000000E+002,  0.00000000000E+000,  0.10000000000E+001
  0.42686000000E+005,  0.48308174350E+006,  0.16500000000E+002,  0.00000000000E+000,  0.10000000000E+001
  0.42746000000E+005,  0.48449487097E+006,  0.16500000000E+002,  0.00000000000E+000,  0.10000000000E+001
  0.42806000000E+005,  0.48589896449E+006,  0.16500000000E+002,  0.00000000000E+000,  0.10000000000E+001
  0.42866000000E+005,  0.48729401506E+006,  0.16500000000E+002,  0.00000000000E+000,  0.10000000000E+001
  0.42926000000E+005,  0.48868003170E+006,  0.16500000000E+002,  0.00000000000E+000,  0.10000000000E+001
  0.42986000000E+005,  0.49005704034E+006,  0.16500000000E+002,  0.00000000000E+000,  0.10000000000E+001
  0.43046000000E+005,  0.49142508221E+006,  0.16500000000E+002,  0.00000000000E+000,  0.10000000000E+001
  0.43106000000E+005,  0.49278421201E+006,  0.16500000000E+002,  0.00000000000E+000,  0.10000000000E+001
  0.43166000000E+005,  0.49413449586E+006,  0.16500000000E+002,  0.00000000000E+000,  0.10000000000E+001
  0.43226000000E+005,  0.49547600951E+006,  0.16500000000E+002,  0.00000000000E+000,  0.10000000000E+001
  0.43286000000E+005,  0.49680883642E+006,  0.16500000000E+002,  0.00000000000E+000,  0.10000000000E+001
  0.43346000000E+005,  0.49813306617E+006,  0.16500000000E+002,  0.00000000000E+000,  0.10000000000E+001
  0.43406000000E+005,  0.49944879296E+006,  0.16500000000E+002,  0.00000000000E+000,  0.10000000000E+001
  0.43466000000E+005,  0.50075611430E+006,  0.16500000000E+002,  0.00000000000E+000,  0.10000000000E+001
  0.43526000000E+005,  0.50205512994E+006,  0.16500000000E+002,  0.00000000000E+000,  0.10000000000E+001
  0.43586000000E+005,  0.50334594089E+006,  0.16500000000E+002,  0.00000000000E+000,  0.10000000000E+001
  0.43646000000E+005,  0.50462864866E+006,  0.16500000000E+002,  0.00000000000E+000,  0.10000000000E+001
  0.43706000000E+005,  0.50590335457E+006,  0.16500000000E+002,  0.00000000000E+000,  0.10000000000E+001
