"           TIME(S)","              PRES","              TEMP","             SAT_G","             SAT_L"
  0.47581000000E+005,  0.59066088845E+007,  0.16500000000E+002,  0.00000000000E+000,  0.10000000000E+001
  0.47586000000E+005,  0.52016406484E+007,  0.16500000000E+002,  0.00000000000E+000,  0.10000000000E+001
  0.47611000000E+005,  0.43500412145E+007,  0.16500000000E+002,  0.00000000000E+000,  0.10000000000E+001
  0.47671000000E+005,  0.37459882277E+007,  0.16500000000E+002,  0.00000000000E+000,  0.10000000000E+001
  0.47731000000E+005,  0.34361360764E+007,  0.16500000000E+002,  0.00000000000E+000,  0.10000000000E+001
  0.47791000000E+005,  0.32310415068E+007,  0.16500000000E+002,  0.00000000000E+000,  0.10000000000E+001
  0.47851000000E+005,  0.30780172564E+007,  0.16500000000E+002,  0.00000000000E+000,  0.10000000000E+001
  0.47911000000E+005,  0.29560847351E+007,  0.16500000000E+002,  0.00000000000E+000,  0.10000000000E+001
  0.47971000000E+005,  0.28548164915E+007,  0.16500000000E+002,  0.00000000000E+000,  0.10000000000E+001
  0.48031000000E+005,  0.27677820730E+007,  0.16500000000E+002,  0.00000000000E+000,  0.10000000000E+001
  0.48091000000E+005,  0.26916887928E+007,  0.16500000000E+002,  0.00000000000E+000,  0.10000000000E+001
  0.48151000000E+005,  0.26245650025E+007,  0.16500000000E+002,  0.00000000000E+000,  0.10000000000E+001
  0.48211000000E+005,  0.25643531912E+007,  0.16500000000E+002,  0.00000000000E+000,  0.10000000000E+001
  0.48271000000E+005,  0.25097614920E+007,  0.16500000000E+002,  0.00000000000E+000,  0.10000000000E+001
  0.48331000000E+005,  0.24598413760E+007,  0.16500000000E+002,  0.00000000000E+000,  0.10000000000E+001
  0.48391000000E+005,  0.24138674140E+007,  0.16500000000E+002,  0.00000000000E+000,  0.10000000000E+001
  0.48451000000E+005,  0.23712708148E+007,  0.16500000000E+002,  0.00000000000E+000,  0.10000000000E+001
  0.48511000000E+005,  0.23315969853E+007,  0.16500000000E+002,  0.00000000000E+000,  0.10000000000E+001
  0.48571000000E+005,  0.22944767630E+007,  0.16500000000E+002,  0.00000000000E+000,  0.10000000000E+001
  0.48631000000E+005,  0.22596062444E+007,  0.16500000000E+002,  0.00000000000E+000,  0.10000000000E+001
  0.48691000000E+005,  0.22267322595E+007,  0.16500000000E+002,  0.00000000000E+000,  0.10000000000E+001
  0.48751000000E+005,  0.21956418596E+007,  0.16500000000E+002,  0.00000000000E+000,  0.10000000000E+001
  0.48811000000E+005,  0.21661540957E+007,  0.16500000000E+002,  0.00000000000E+000,  0.10000000000E+001
  0.48871000000E+005,  0.21381140640E+007,  0.16500000000E+002,  0.00000000000E+000,  0.10000000000E+001
  0.48931000000E+005,  0.21113880218E+007,  0.16500000000E+002,  0.00000000000E+000,  0.10000000000E+001
  0.48991000000E+005,  0.20858599747E+007,  0.16500000000E+002,  0.00000000000E+000,  0.10000000000E+001
  0.49051000000E+005,  0.20614284193E+007,  0.16500000000E+002,  0.00000000000E+000,  0.10000000000E+001
  0.49111000000E+005,  0.20380042458E+007,  0.16500000000E+002,  0.00000000000E+000,  0.10000000000E+001
  0.49171000000E+005,  0.20155087332E+007,  0.16500000000E+002,  0.00000000000E+000,  0.10000000000E+001
  0.49231000000E+005,  0.19938719123E+007,  0.16500000000E+002,  0.00000000000E+000,  0.10000000000E+001
  0.49291000000E+005,  0.19730314516E+007,  0.16500000000E+002,  0.00000000000E+000,  0.10000000000E+001
  0.49351000000E+005,  0.19529315879E+007,  0.16500000000E+002,  0.00000000000E+000,  0.10000000000E+001
  0.49411000000E+005,  0.19335221487E+007,  0.16500000000E+002,  0.00000000000E+000,  0.10000000000E+001
  0.49471000000E+005,  0.19147578704E+007,  0.16500000000E+002,  0.00000000000E+000,  0.10000000000E+001
  0.49531000000E+005,  0.18965978093E+007,  0.16500000000E+002,  0.00000000000E+000,  0.10000000000E+001
  0.49591000000E+005,  0.18790047733E+007,  0.16500000000E+002,  0.00000000000E+000,  0.10000000000E+001
  0.49651000000E+005,  0.18619448862E+007,  0.16500000000E+002,  0.00000000000E+000,  0.10000000000E+001
  0.49711000000E+005,  0.18453872219E+007,  0.16500000000E+002,  0.00000000000E+000,  0.10000000000E+001
  0.49771000000E+005,  0.18293034605E+007,  0.16500000000E+002,  0.00000000000E+000,  0.10000000000E+001
  0.49831000000E+005,  0.18136676048E+007,  0.16500000000E+002,  0.00000000000E+000,  0.10000000000E+001
  0.49891000000E+005,  0.17984557210E+007,  0.16500000000E+002,  0.00000000000E+000,  0.10000000000E+001
  0.49951000000E+005,  0.17836457987E+007,  0.16500000000E+002,  0.00000000000E+000,  0.10000000000E+001
  0.50011000000E+005,  0.17692174215E+007,  0.16500000000E+002,  0.00000000000E+000,  0.10000000000E+001
  0.50071000000E+005,  0.17551517312E+007,  0.16500000000E+002,  0.00000000000E+000,  0.10000000000E+001
  0.50131000000E+005,  0.17414312289E+007,  0.16500000000E+002,  0.00000000000E+000,  0.10000000000E+001
  0.50191000000E+005,  0.17280396540E+007,  0.16500000000E+002,  0.00000000000E+000,  0.10000000000E+001
  0.50251000000E+005,  0.17149618715E+007,  0.16500000000E+002,  0.00000000000E+000,  0.10000000000E+001
  0.50311000000E+005,  0.17021837730E+007,  0.16500000000E+002,  0.00000000000E+000,  0.10000000000E+001
  0.50371000000E+005,  0.16896921853E+007,  0.16500000000E+002,  0.00000000000E+000,  0.10000000000E+001
  0.50431000000E+005,  0.16774748015E+007,  0.16500000000E+002,  0.00000000000E+000,  0.10000000000E+001
  0.50491000000E+005,  0.16655200629E+007,  0.16500000000E+002,  0.00000000000E+000,  0.10000000000E+001
  0.50551000000E+005,  0.16538171795E+007,  0.16500000000E+002,  0.00000000000E+000,  0.10000000000E+001
  0.50611000000E+005,  0.16423560027E+007,  0.16500000000E+002,  0.00000000000E+000,  0.10000000000E+001
  0.50671000000E+005,  0.16311269827E+007,  0.16500000000E+002,  0.00000000000E+000,  0.10000000000E+001
  0.50731000000E+005,  0.16201211508E+007,  0.16500000000E+002,  0.00000000000E+000,  0.10000000000E+001
  0.50791000000E+005,  0.16093300452E+007,  0.16500000000E+002,  0.00000000000E+000,  0.10000000000E+001
  0.50851000000E+005,  0.15987457017E+007,  0.16500000000E+002,  0.00000000000E+000,  0.10000000000E+001
  0.50911000000E+005,  0.15883605860E+007,  0.16500000000E+002,  0.00000000000E+000,  0.10000000000E+001
  0.50971000000E+005,  0.15781675937E+007,  0.16500000000E+002,  0.00000000000E+000,  0.10000000000E+001
  0.51031000000E+005,  0.15681599861E+007,  0.16500000000E+002,  0.00000000000E+000,  0.10000000000E+001
  0.51091000000E+005,  0.15583314059E+007,  0.16500000000E+002,  0.00000000000E+000,  0.10000000000E+001
  0.51151000000E+005,  0.15486758067E+007,  0.16500000000E+002,  0.00000000000E+000,  0.10000000000E+001
  0.51211000000E+005,  0.15391874828E+007,  0.16500000000E+002,  0.00000000000E+000,  0.10000000000E+001
  0.51271000000E+005,  0.15298609943E+007,  0.16500000000E+002,  0.00000000000E+000,  0.10000000000E+001
  0.51331000000E+005,  0.15206911785E+007,  0.16500000000E+002,  0.00000000000E+000,  0.10000000000E+001
  0.51391000000E+005,  0.15116731250E+007,  0.16500000000E+002,  0.00000000000E+000,  0.10000000000E+001
  0.51451000000E+005,  0.15028021724E+007,  0.16500000000E+002,  0.00000000000E+000,  0.10000000000E+001
  0.51511000000E+005,  0.14940738872E+007,  0.16500000000E+002,  0.00000000000E+000,  0.10000000000E+001
  0.51571000000E+005,  0.14854840189E+007,  0.16500000000E+002,  0.00000000000E+000,  0.10000000000E+001
  0.51631000000E+005,  0.14770285370E+007,  0.16500000000E+002,  0.00000000000E+000,  0.10000000000E+001
  0.51691000000E+005,  0.14687035891E+007,  0.16500000000E+002,  0.00000000000E+000,  0.10000000000E+001
  0.51751000000E+005,  0.14605054940E+007,  0.16500000000E+002,  0.00000000000E+000,  0.10000000000E+001
  0.51811000000E+005,  0.14524307377E+007,  0.16500000000E+002,  0.00000000000E+000,  0.10000000000E+001
  0.51871000000E+005,  0.14444759616E+007,  0.16500000000E+002,  0.00000000000E+000,  0.10000000000E+001
  0.51931000000E+005,  0.14366379484E+007,  0.16500000000E+002,  0.00000000000E+000,  0.10000000000E+001
  0.51991000000E+005,  0.14289136199E+007,  0.16500000000E+002,  0.00000000000E+000,  0.10000000000E+001
  0.52051000000E+005,  0.14213000296E+007,  0.16500000000E+002,  0.00000000000E+000,  0.10000000000E+001
  0.52111000000E+005,  0.14137943491E+007,  0.16500000000E+002,  0.00000000000E+000,  0.10000000000E+001
  0.52171000000E+005,  0.14063938687E+007,  0.16500000000E+002,  0.00000000000E+000,  0.10000000000E+001
  0.52231000000E+005,  0.13990959896E+007,  0.16500000000E+002,  0.00000000000E+000,  0.10000000000E+001
  0.52291000000E+005,  0.13918982110E+007,  0.16500000000E+002,  0.00000000000E+000,  0.10000000000E+001
  0.52351000000E+005,  0.13847981348E+007,  0.16500000000E+002,  0.00000000000E+000,  0.10000000000E+001
  0.52411000000E+005,  0.13777934572E+007,  0.16500000000E+002,  0.00000000000E+000,  0.10000000000E+001
  0.52471000000E+005,  0.13708819568E+007,  0.16500000000E+002,  0.00000000000E+000,  0.10000000000E+001
  0.52531000000E+005,  0.13640615011E+007,  0.16500000000E+002,  0.00000000000E+000,  0.10000000000E+001
  0.52591000000E+005,  0.13573300339E+007,  0.16500000000E+002,  0.00000000000E+000,  0.10000000000E+001
  0.52651000000E+005,  0.13506855765E+007,  0.16500000000E+002,  0.00000000000E+000,  0.10000000000E+001
  0.52711000000E+005,  0.13441262213E+007,  0.16500000000E+002,  0.00000000000E+000,  0.10000000000E+001
  0.52771000000E+005,  0.13376501258E+007,  0.16500000000E+002,  0.00000000000E+000,  0.10000000000E+001
  0.52831000000E+005,  0.13312555178E+007,  0.16500000000E+002,  0.00000000000E+000,  0.10000000000E+001
  0.52891000000E+005,  0.13249406841E+007,  0.16500000000E+002,  0.00000000000E+000,  0.10000000000E+001
  0.52951000000E+005,  0.13187039680E+007,  0.16500000000E+002,  0.00000000000E+000,  0.10000000000E+001
  0.53011000000E+005,  0.13125437721E+007,  0.16500000000E+002,  0.00000000000E+000,  0.10000000000E+001
  0.53071000000E+005,  0.13064585523E+007,  0.16500000000E+002,  0.00000000000E+000,  0.10000000000E+001
  0.53131000000E+005,  0.13004468131E+007,  0.16500000000E+002,  0.00000000000E+000,  0.10000000000E+001
  0.53191000000E+005,  0.12945071071E+007,  0.16500000000E+002,  0.00000000000E+000,  0.10000000000E+001
  0.53251000000E+005,  0.12886380388E+007,  0.16500000000E+002,  0.00000000000E+000,  0.10000000000E+001
  0.53311000000E+005,  0.12828382545E+007,  0.16500000000E+002,  0.00000000000E+000,  0.10000000000E+001
  0.53371000000E+005,  0.12771064358E+007,  0.16500000000E+002,  0.00000000000E+000,  0.10000000000E+001
  0.53431000000E+005,  0.12714413122E+007,  0.16500000000E+002,  0.00000000000E+000,  0.10000000000E+001
  0.53491000000E+005,  0.12658416536E+007,  0.16500000000E+002,  0.00000000000E+000,  0.10000000000E+001
  0.53551000000E+005,  0.12603062596E+007,  0.16500000000E+002,  0.00000000000E+000,  0.10000000000E+001
  0.53611000000E+005,  0.12548339706E+007,  0.16500000000E+002,  0.00000000000E+000,  0.10000000000E+001
  0.53671000000E+005,  0.12494236627E+007,  0.16500000000E+002,  0.00000000000E+000,  0.10000000000E+001
  0.53731000000E+005,  0.12440742331E+007,  0.16500000000E+002,  0.00000000000E+000,  0.10000000000E+001
  0.53791000000E+005,  0.12387846262E+007,  0.16500000000E+002,  0.00000000000E+000,  0.10000000000E+001
  0.53851000000E+005,  0.12335538070E+007,  0.16500000000E+002,  0.00000000000E+000,  0.10000000000E+001
  0.53911000000E+005,  0.12283807663E+007,  0.16500000000E+002,  0.00000000000E+000,  0.10000000000E+001
  0.53971000000E+005,  0.12232645308E+007,  0.16500000000E+002,  0.00000000000E+000,  0.10000000000E+001
  0.54031000000E+005,  0.12187125572E+007,  0.16500000000E+002,  0.00000000000E+000,  0.10000000000E+001
  0.54091000000E+005,  0.12143002666E+007,  0.16500000000E+002,  0.00000000000E+000,  0.10000000000E+001
  0.54151000000E+005,  0.12095197465E+007,  0.16500000000E+002,  0.00000000000E+000,  0.10000000000E+001
  0.54211000000E+005,  0.12047200009E+007,  0.16500000000E+002,  0.00000000000E+000,  0.10000000000E+001
  0.54271000000E+005,  0.11999445522E+007,  0.16500000000E+002,  0.00000000000E+000,  0.10000000000E+001
  0.54331000000E+005,  0.11952053353E+007,  0.16500000000E+002,  0.00000000000E+000,  0.10000000000E+001
  0.54391000000E+005,  0.11905070412E+007,  0.16500000000E+002,  0.00000000000E+000,  0.10000000000E+001
  0.54451000000E+005,  0.11858518148E+007,  0.16500000000E+002,  0.00000000000E+000,  0.10000000000E+001
  0.54511000000E+005,  0.11812406516E+007,  0.16500000000E+002,  0.00000000000E+000,  0.10000000000E+001
  0.54571000000E+005,  0.11766739457E+007,  0.16500000000E+002,  0.00000000000E+000,  0.10000000000E+001
  0.54631000000E+005,  0.11721517552E+007,  0.16500000000E+002,  0.00000000000E+000,  0.10000000000E+001
  0.54691000000E+005,  0.11676739319E+007,  0.16500000000E+002,  0.00000000000E+000,  0.10000000000E+001
  0.54751000000E+005,  0.11632401982E+007,  0.16500000000E+002,  0.00000000000E+000,  0.10000000000E+001
  0.54811000000E+005,  0.11588501927E+007,  0.16500000000E+002,  0.00000000000E+000,  0.10000000000E+001
  0.54871000000E+005,  0.11545035005E+007,  0.16500000000E+002,  0.00000000000E+000,  0.10000000000E+001
  0.54931000000E+005,  0.11501996677E+007,  0.16500000000E+002,  0.00000000000E+000,  0.10000000000E+001
  0.54991000000E+005,  0.11459382217E+007,  0.16500000000E+002,  0.00000000000E+000,  0.10000000000E+001
  0.55051000000E+005,  0.11417186673E+007,  0.16500000000E+002,  0.00000000000E+000,  0.10000000000E+001
  0.55111000000E+005,  0.11375405046E+007,  0.16500000000E+002,  0.00000000000E+000,  0.10000000000E+001
  0.55171000000E+005,  0.11334032305E+007,  0.16500000000E+002,  0.00000000000E+000,  0.10000000000E+001
  0.55231000000E+005,  0.11293063359E+007,  0.16500000000E+002,  0.00000000000E+000,  0.10000000000E+001
  0.55291000000E+005,  0.11252493161E+007,  0.16500000000E+002,  0.00000000000E+000,  0.10000000000E+001
  0.55351000000E+005,  0.11212316670E+007,  0.16500000000E+002,  0.00000000000E+000,  0.10000000000E+001
  0.55411000000E+005,  0.11172528879E+007,  0.16500000000E+002,  0.00000000000E+000,  0.10000000000E+001
  0.55471000000E+005,  0.11133124858E+007,  0.16500000000E+002,  0.00000000000E+000,  0.10000000000E+001
  0.55531000000E+005,  0.11094099692E+007,  0.16500000000E+002,  0.00000000000E+000,  0.10000000000E+001
  0.55591000000E+005,  0.11055448552E+007,  0.16500000000E+002,  0.00000000000E+000,  0.10000000000E+001
  0.55651000000E+005,  0.11017166643E+007,  0.16500000000E+002,  0.00000000000E+000,  0.10000000000E+001
  0.55711000000E+005,  0.10979249286E+007,  0.16500000000E+002,  0.00000000000E+000,  0.10000000000E+001
  0.55771000000E+005,  0.10941691823E+007,  0.16500000000E+002,  0.00000000000E+000,  0.10000000000E+001
  0.55831000000E+005,  0.10904489675E+007,  0.16500000000E+002,  0.00000000000E+000,  0.10000000000E+001
  0.55891000000E+005,  0.10867638356E+007,  0.16500000000E+002,  0.00000000000E+000,  0.10000000000E+001
  0.55951000000E+005,  0.10831133415E+007,  0.16500000000E+002,  0.00000000000E+000,  0.10000000000E+001
  0.56011000000E+005,  0.10794970488E+007,  0.16500000000E+002,  0.00000000000E+000,  0.10000000000E+001
  0.56071000000E+005,  0.10759145270E+007,  0.16500000000E+002,  0.00000000000E+000,  0.10000000000E+001
  0.56131000000E+005,  0.10723653561E+007,  0.16500000000E+002,  0.00000000000E+000,  0.10000000000E+001
  0.56191000000E+005,  0.10688491173E+007,  0.16500000000E+002,  0.00000000000E+000,  0.10000000000E+001
  0.56251000000E+005,  0.10653654010E+007,  0.16500000000E+002,  0.00000000000E+000,  0.10000000000E+001
  0.56311000000E+005,  0.10619138058E+007,  0.16500000000E+002,  0.00000000000E+000,  0.10000000000E+001
  0.56371000000E+005,  0.10584939351E+007,  0.16500000000E+002,  0.00000000000E+000,  0.10000000000E+001
  0.56431000000E+005,  0.10551053975E+007,  0.16500000000E+002,  0.00000000000E+000,  0.10000000000E+001
  0.56491000000E+005,  0.10517478092E+007,  0.16500000000E+002,  0.00000000000E+000,  0.10000000000E+001
  0.56551000000E+005,  0.10484207936E+007,  0.16500000000E+002,  0.00000000000E+000,  0.10000000000E+001
  0.56611000000E+005,  0.10451239778E+007,  0.16500000000E+002,  0.00000000000E+000,  0.10000000000E+001
  0.56671000000E+005,  0.10418569957E+007,  0.16500000000E+002,  0.00000000000E+000,  0.10000000000E+001
  0.56731000000E+005,  0.10386194889E+007,  0.16500000000E+002,  0.00000000000E+000,  0.10000000000E+001
  0.56791000000E+005,  0.10354111010E+007,  0.16500000000E+002,  0.00000000000E+000,  0.10000000000E+001
  0.56851000000E+005,  0.10322314847E+007,  0.16500000000E+002,  0.00000000000E+000,  0.10000000000E+001
  0.56911000000E+005,  0.10290802954E+007,  0.16500000000E+002,  0.00000000000E+000,  0.10000000000E+001
  0.56971000000E+005,  0.10259571957E+007,  0.16500000000E+002,  0.00000000000E+000,  0.10000000000E+001
  0.57031000000E+005,  0.10228618525E+007,  0.16500000000E+002,  0.00000000000E+000,  0.10000000000E+001
  0.57091000000E+005,  0.10197939381E+007,  0.16500000000E+002,  0.00000000000E+000,  0.10000000000E+001
  0.57151000000E+005,  0.10167531299E+007,  0.16500000000E+002,  0.00000000000E+000,  0.10000000000E+001
  0.57211000000E+005,  0.10137391101E+007,  0.16500000000E+002,  0.00000000000E+000,  0.10000000000E+001
  0.57271000000E+005,  0.10107515657E+007,  0.16500000000E+002,  0.00000000000E+000,  0.10000000000E+001
  0.57331000000E+005,  0.10077901885E+007,  0.16500000000E+002,  0.00000000000E+000,  0.10000000000E+001
  0.57391000000E+005,  0.10048546750E+007,  0.16500000000E+002,  0.00000000000E+000,  0.10000000000E+001
  0.57451000000E+005,  0.10019447261E+007,  0.16500000000E+002,  0.00000000000E+000,  0.10000000000E+001
  0.57511000000E+005,  0.99906004728E+006,  0.16500000000E+002,  0.00000000000E+000,  0.10000000000E+001
  0.57571000000E+005,  0.99620034826E+006,  0.16500000000E+002,  0.00000000000E+000,  0.10000000000E+001
  0.57631000000E+005,  0.99336534308E+006,  0.16500000000E+002,  0.00000000000E+000,  0.10000000000E+001
  0.57691000000E+005,  0.99055475002E+006,  0.16500000000E+002,  0.00000000000E+000,  0.10000000000E+001
  0.57751000000E+005,  0.98776829141E+006,  0.16500000000E+002,  0.00000000000E+000,  0.10000000000E+001
  0.57811000000E+005,  0.98500569365E+006,  0.16500000000E+002,  0.00000000000E+000,  0.10000000000E+001
  0.57871000000E+005,  0.98226668707E+006,  0.16500000000E+002,  0.00000000000E+000,  0.10000000000E+001
  0.57931000000E+005,  0.97955100589E+006,  0.16500000000E+002,  0.00000000000E+000,  0.10000000000E+001
  0.57991000000E+005,  0.97685838809E+006,  0.16500000000E+002,  0.00000000000E+000,  0.10000000000E+001
  0.58051000000E+005,  0.97418857547E+006,  0.16500000000E+002,  0.00000000000E+000,  0.10000000000E+001
  0.58111000000E+005,  0.97154131342E+006,  0.16500000000E+002,  0.00000000000E+000,  0.10000000000E+001
  0.58171000000E+005,  0.96891635094E+006,  0.16500000000E+002,  0.00000000000E+000,  0.10000000000E+001
  0.58231000000E+005,  0.96631344056E+006,  0.16500000000E+002,  0.00000000000E+000,  0.10000000000E+001
  0.58291000000E+005,  0.96373233826E+006,  0.16500000000E+002,  0.00000000000E+000,  0.10000000000E+001
  0.58351000000E+005,  0.96117280341E+006,  0.16500000000E+002,  0.00000000000E+000,  0.10000000000E+001
  0.58411000000E+005,  0.95863459875E+006,  0.16500000000E+002,  0.00000000000E+000,  0.10000000000E+001
  0.58471000000E+005,  0.95611749025E+006,  0.16500000000E+002,  0.00000000000E+000,  0.10000000000E+001
  0.58531000000E+005,  0.95362124713E+006,  0.16500000000E+002,  0.00000000000E+000,  0.10000000000E+001
  0.58591000000E+005,  0.95114564175E+006,  0.16500000000E+002,  0.00000000000E+000,  0.10000000000E+001
  0.58651000000E+005,  0.94869044957E+006,  0.16500000000E+002,  0.00000000000E+000,  0.10000000000E+001
  0.58711000000E+005,  0.94625544910E+006,  0.16500000000E+002,  0.00000000000E+000,  0.10000000000E+001
  0.58771000000E+005,  0.94384042185E+006,  0.16500000000E+002,  0.00000000000E+000,  0.10000000000E+001
