"           TIME(S)","              PRES","              TEMP","             SAT_G","             SAT_L"
  0.32470020000E+005,  0.18348974154E+006,  0.16500000000E+002,  0.00000000000E+000,  0.10000000000E+001
  0.32470120000E+005,  0.18861549641E+006,  0.16500000000E+002,  0.00000000000E+000,  0.10000000000E+001
  0.32470420000E+005,  0.20410657636E+006,  0.16500000000E+002,  0.00000000000E+000,  0.10000000000E+001
  0.32470720000E+005,  0.21958579716E+006,  0.16500000000E+002,  0.00000000000E+000,  0.10000000000E+001
  0.32471020000E+005,  0.23504113803E+006,  0.16500000000E+002,  0.00000000000E+000,  0.10000000000E+001
  0.32471320000E+005,  0.25045864839E+006,  0.16500000000E+002,  0.00000000000E+000,  0.10000000000E+001
  0.32471620000E+005,  0.26583094327E+006,  0.16500000000E+002,  0.00000000000E+000,  0.10000000000E+001
  0.32471920000E+005,  0.28115450561E+006,  0.16500000000E+002,  0.00000000000E+000,  0.10000000000E+001
  0.32472220000E+005,  0.29642834191E+006,  0.16500000000E+002,  0.00000000000E+000,  0.10000000000E+001
  0.32472520000E+005,  0.31165233306E+006,  0.16500000000E+002,  0.00000000000E+000,  0.10000000000E+001
  0.32472820000E+005,  0.32682667007E+006,  0.16500000000E+002,  0.00000000000E+000,  0.10000000000E+001
  0.32473120000E+005,  0.34195165907E+006,  0.16500000000E+002,  0.00000000000E+000,  0.10000000000E+001
  0.32473420000E+005,  0.35702764764E+006,  0.16500000000E+002,  0.00000000000E+000,  0.10000000000E+001
  0.32473720000E+005,  0.37205499758E+006,  0.16500000000E+002,  0.00000000000E+000,  0.10000000000E+001
  0.32474020000E+005,  0.38703407422E+006,  0.16500000000E+002,  0.00000000000E+000,  0.10000000000E+001
  0.32474320000E+005,  0.40196524260E+006,  0.16500000000E+002,  0.00000000000E+000,  0.10000000000E+001
  0.32474620000E+005,  0.41684886604E+006,  0.16500000000E+002,  0.00000000000E+000,  0.10000000000E+001
  0.32474920000E+005,  0.43168530562E+006,  0.16500000000E+002,  0.00000000000E+000,  0.10000000000E+001
  0.32475220000E+005,  0.44647491972E+006,  0.16500000000E+002,  0.00000000000E+000,  0.10000000000E+001
  0.32475520000E+005,  0.46121806416E+006,  0.16500000000E+002,  0.00000000000E+000,  0.10000000000E+001
  0.32475820000E+005,  0.47591509192E+006,  0.16500000000E+002,  0.00000000000E+000,  0.10000000000E+001
  0.32476120000E+005,  0.49056635317E+006,  0.16500000000E+002,  0.00000000000E+000,  0.10000000000E+001
  0.32476420000E+005,  0.50517215390E+006,  0.16500000000E+002,  0.00000000000E+000,  0.10000000000E+001
  0.32476720000E+005,  0.51973252571E+006,  0.16500000000E+002,  0.00000000000E+000,  0.10000000000E+001
  0.32477020000E+005,  0.53424779437E+006,  0.16500000000E+002,  0.00000000000E+000,  0.10000000000E+001
  0.32477320000E+005,  0.54871832544E+006,  0.16500000000E+002,  0.00000000000E+000,  0.10000000000E+001
  0.32477620000E+005,  0.56314028448E+006,  0.16500000000E+002,  0.00000000000E+000,  0.10000000000E+001
  0.32477920000E+005,  0.57751815267E+006,  0.16500000000E+002,  0.00000000000E+000,  0.10000000000E+001
  0.32478220000E+005,  0.59184994056E+006,  0.16500000000E+002,  0.00000000000E+000,  0.10000000000E+001
  0.32478520000E+005,  0.60613693560E+006,  0.16500000000E+002,  0.00000000000E+000,  0.10000000000E+001
  0.32478820000E+005,  0.62035868791E+006,  0.16500000000E+002,  0.00000000000E+000,  0.10000000000E+001
  0.32479120000E+005,  0.63453348679E+006,  0.16500000000E+002,  0.00000000000E+000,  0.10000000000E+001
  0.32479420000E+005,  0.64866449898E+006,  0.16500000000E+002,  0.00000000000E+000,  0.10000000000E+001
  0.32479720000E+005,  0.66276476848E+006,  0.16500000000E+002,  0.00000000000E+000,  0.10000000000E+001
  0.32480020000E+005,  0.67683370466E+006,  0.16500000000E+002,  0.00000000000E+000,  0.10000000000E+001
  0.32480320000E+005,  0.69086090738E+006,  0.16500000000E+002,  0.00000000000E+000,  0.10000000000E+001
  0.32480620000E+005,  0.70567700910E+006,  0.16500000000E+002,  0.00000000000E+000,  0.10000000000E+001
  0.32480920000E+005,  0.72385580991E+006,  0.16500000000E+002,  0.00000000000E+000,  0.10000000000E+001
  0.32481220000E+005,  0.74204082612E+006,  0.16500000000E+002,  0.00000000000E+000,  0.10000000000E+001
  0.32481520000E+005,  0.76017855533E+006,  0.16500000000E+002,  0.00000000000E+000,  0.10000000000E+001
  0.32481820000E+005,  0.90247588753E+006,  0.16500000000E+002,  0.00000000000E+000,  0.10000000000E+001
  0.32482120000E+005,  0.10660992797E+007,  0.16500000000E+002,  0.00000000000E+000,  0.10000000000E+001
  0.32482420000E+005,  0.12297785593E+007,  0.16500000000E+002,  0.00000000000E+000,  0.10000000000E+001
  0.32482720000E+005,  0.13930845855E+007,  0.16500000000E+002,  0.00000000000E+000,  0.10000000000E+001
  0.32483020000E+005,  0.15559177020E+007,  0.16500000000E+002,  0.00000000000E+000,  0.10000000000E+001
  0.32483320000E+005,  0.17182269252E+007,  0.16500000000E+002,  0.00000000000E+000,  0.10000000000E+001
  0.32483620000E+005,  0.18799919916E+007,  0.16500000000E+002,  0.00000000000E+000,  0.10000000000E+001
  0.32483920000E+005,  0.20412072896E+007,  0.16500000000E+002,  0.00000000000E+000,  0.10000000000E+001
  0.32484220000E+005,  0.22018732505E+007,  0.16500000000E+002,  0.00000000000E+000,  0.10000000000E+001
  0.32484520000E+005,  0.23619926362E+007,  0.16500000000E+002,  0.00000000000E+000,  0.10000000000E+001
  0.32484820000E+005,  0.25215690741E+007,  0.16500000000E+002,  0.00000000000E+000,  0.10000000000E+001
  0.32485120000E+005,  0.26806064967E+007,  0.16500000000E+002,  0.00000000000E+000,  0.10000000000E+001
  0.32485420000E+005,  0.28391089332E+007,  0.16500000000E+002,  0.00000000000E+000,  0.10000000000E+001
  0.32485720000E+005,  0.29970804312E+007,  0.16500000000E+002,  0.00000000000E+000,  0.10000000000E+001
  0.32486020000E+005,  0.31545250280E+007,  0.16500000000E+002,  0.00000000000E+000,  0.10000000000E+001
  0.32486320000E+005,  0.33114467390E+007,  0.16500000000E+002,  0.00000000000E+000,  0.10000000000E+001
  0.32486620000E+005,  0.34678495531E+007,  0.16500000000E+002,  0.00000000000E+000,  0.10000000000E+001
  0.32486920000E+005,  0.36237374306E+007,  0.16500000000E+002,  0.00000000000E+000,  0.10000000000E+001
  0.32487220000E+005,  0.37791143017E+007,  0.16500000000E+002,  0.00000000000E+000,  0.10000000000E+001
  0.32487520000E+005,  0.39339836274E+007,  0.16500000000E+002,  0.00000000000E+000,  0.10000000000E+001
  0.32487820000E+005,  0.40882995037E+007,  0.16500000000E+002,  0.00000000000E+000,  0.10000000000E+001
  0.32488120000E+005,  0.42421221071E+007,  0.16500000000E+002,  0.00000000000E+000,  0.10000000000E+001
  0.32488420000E+005,  0.43954230747E+007,  0.16500000000E+002,  0.00000000000E+000,  0.10000000000E+001
  0.32488720000E+005,  0.45482150990E+007,  0.16500000000E+002,  0.00000000000E+000,  0.10000000000E+001
  0.32489020000E+005,  0.47005095215E+007,  0.16500000000E+002,  0.00000000000E+000,  0.10000000000E+001
  0.32489320000E+005,  0.48523098953E+007,  0.16500000000E+002,  0.00000000000E+000,  0.10000000000E+001
  0.32489620000E+005,  0.50036127028E+007,  0.16500000000E+002,  0.00000000000E+000,  0.10000000000E+001
  0.32489920000E+005,  0.51544260845E+007,  0.16500000000E+002,  0.00000000000E+000,  0.10000000000E+001
  0.32490220000E+005,  0.53047559246E+007,  0.16500000000E+002,  0.00000000000E+000,  0.10000000000E+001
  0.32490520000E+005,  0.54546068059E+007,  0.16500000000E+002,  0.00000000000E+000,  0.10000000000E+001
  0.32490820000E+005,  0.56039828544E+007,  0.16500000000E+002,  0.00000000000E+000,  0.10000000000E+001
  0.32491120000E+005,  0.57528880125E+007,  0.16500000000E+002,  0.00000000000E+000,  0.10000000000E+001
  0.32491420000E+005,  0.59013261260E+007,  0.16500000000E+002,  0.00000000000E+000,  0.10000000000E+001
  0.32491720000E+005,  0.60493009746E+007,  0.16500000000E+002,  0.00000000000E+000,  0.10000000000E+001
  0.32492020000E+005,  0.61968162833E+007,  0.16500000000E+002,  0.00000000000E+000,  0.10000000000E+001
  0.32492320000E+005,  0.63438757272E+007,  0.16500000000E+002,  0.00000000000E+000,  0.10000000000E+001
  0.32492620000E+005,  0.64904829336E+007,  0.16500000000E+002,  0.00000000000E+000,  0.10000000000E+001
  0.32492920000E+005,  0.66366414837E+007,  0.16500000000E+002,  0.00000000000E+000,  0.10000000000E+001
  0.32493220000E+005,  0.67823549129E+007,  0.16500000000E+002,  0.00000000000E+000,  0.10000000000E+001
  0.32493520000E+005,  0.69276267122E+007,  0.16500000000E+002,  0.00000000000E+000,  0.10000000000E+001
  0.32493820000E+005,  0.70724603285E+007,  0.16500000000E+002,  0.00000000000E+000,  0.10000000000E+001
  0.32494120000E+005,  0.72168591656E+007,  0.16500000000E+002,  0.00000000000E+000,  0.10000000000E+001
  0.32494420000E+005,  0.73608265849E+007,  0.16500000000E+002,  0.00000000000E+000,  0.10000000000E+001
  0.32494720000E+005,  0.75043659058E+007,  0.16500000000E+002,  0.00000000000E+000,  0.10000000000E+001
  0.32495020000E+005,  0.76474804069E+007,  0.16500000000E+002,  0.00000000000E+000,  0.10000000000E+001
  0.32495320000E+005,  0.77901733262E+007,  0.16500000000E+002,  0.00000000000E+000,  0.10000000000E+001
  0.32495620000E+005,  0.79324478617E+007,  0.16500000000E+002,  0.00000000000E+000,  0.10000000000E+001
  0.32495920000E+005,  0.80743071729E+007,  0.16500000000E+002,  0.00000000000E+000,  0.10000000000E+001
  0.32496220000E+005,  0.82157531841E+007,  0.16500000000E+002,  0.00000000000E+000,  0.10000000000E+001
  0.32496520000E+005,  0.83567488814E+007,  0.16500000000E+002,  0.00000000000E+000,  0.10000000000E+001
  0.32496820000E+005,  0.84973261892E+007,  0.16500000000E+002,  0.00000000000E+000,  0.10000000000E+001
  0.32497120000E+005,  0.86374981652E+007,  0.16500000000E+002,  0.00000000000E+000,  0.10000000000E+001
  0.32497420000E+005,  0.87772692249E+007,  0.16500000000E+002,  0.00000000000E+000,  0.10000000000E+001
  0.32497720000E+005,  0.89166423075E+007,  0.16500000000E+002,  0.00000000000E+000,  0.10000000000E+001
  0.32498020000E+005,  0.90556202404E+007,  0.16500000000E+002,  0.00000000000E+000,  0.10000000000E+001
  0.32498320000E+005,  0.91942058718E+007,  0.16500000000E+002,  0.00000000000E+000,  0.10000000000E+001
  0.32498620000E+005,  0.93324020506E+007,  0.16500000000E+002,  0.00000000000E+000,  0.10000000000E+001
  0.32498920000E+005,  0.94702116074E+007,  0.16500000000E+002,  0.00000000000E+000,  0.10000000000E+001
  0.32499220000E+005,  0.96076373452E+007,  0.16500000000E+002,  0.00000000000E+000,  0.10000000000E+001
  0.32499520000E+005,  0.97446817108E+007,  0.16500000000E+002,  0.00000000000E+000,  0.10000000000E+001
  0.32499820000E+005,  0.98813474037E+007,  0.16500000000E+002,  0.00000000000E+000,  0.10000000000E+001
  0.32500000000E+005,  0.99632072192E+007,  0.16500000000E+002,  0.00000000000E+000,  0.10000000000E+001
