"           TIME(S)","              PRES","              TEMP","             SAT_G","             SAT_L"
  0.10000000000E+001,  0.12374487412E+003,  0.16500000000E+002,  0.00000000000E+000,  0.10000000000E+001
  0.60000000000E+001,  0.49171536403E+003,  0.16500000000E+002,  0.00000000000E+000,  0.10000000000E+001
  0.31000000000E+002,  0.22534814163E+004,  0.16500000000E+002,  0.00000000000E+000,  0.10000000000E+001
  0.15600000000E+003,  0.97994990650E+004,  0.16500000000E+002,  0.00000000000E+000,  0.10000000000E+001
  0.45600000000E+003,  0.26603769166E+005,  0.16500000000E+002,  0.00000000000E+000,  0.10000000000E+001
  0.75600000000E+003,  0.42219299325E+005,  0.16500000000E+002,  0.00000000000E+000,  0.10000000000E+001
  0.10560000000E+004,  0.56752042305E+005,  0.16500000000E+002,  0.00000000000E+000,  0.10000000000E+001
  0.13560000000E+004,  0.70297349045E+005,  0.16500000000E+002,  0.00000000000E+000,  0.10000000000E+001
  0.16560000000E+004,  0.82941097151E+005,  0.16500000000E+002,  0.00000000000E+000,  0.10000000000E+001
  0.19560000000E+004,  0.94760694303E+005,  0.16500000000E+002,  0.00000000000E+000,  0.10000000000E+001
  0.22560000000E+004,  0.10582597101E+006,  0.16500000000E+002,  0.00000000000E+000,  0.10000000000E+001
  0.25560000000E+004,  0.11619997536E+006,  0.16500000000E+002,  0.00000000000E+000,  0.10000000000E+001
  0.28560000000E+004,  0.12593968104E+006,  0.16500000000E+002,  0.00000000000E+000,  0.10000000000E+001
  0.31560000000E+004,  0.13509661822E+006,  0.16500000000E+002,  0.00000000000E+000,  0.10000000000E+001
  0.34560000000E+004,  0.14371743619E+006,  0.16500000000E+002,  0.00000000000E+000,  0.10000000000E+001
  0.37560000000E+004,  0.15184440536E+006,  0.16500000000E+002,  0.00000000000E+000,  0.10000000000E+001
  0.40560000000E+004,  0.15951586521E+006,  0.16500000000E+002,  0.00000000000E+000,  0.10000000000E+001
  0.43560000000E+004,  0.16676662440E+006,  0.16500000000E+002,  0.00000000000E+000,  0.10000000000E+001
  0.46560000000E+004,  0.17362831820E+006,  0.16500000000E+002,  0.00000000000E+000,  0.10000000000E+001
  0.49560000000E+004,  0.18012972795E+006,  0.16500000000E+002,  0.00000000000E+000,  0.10000000000E+001
  0.52560000000E+004,  0.18629706675E+006,  0.16500000000E+002,  0.00000000000E+000,  0.10000000000E+001
  0.55560000000E+004,  0.19215423499E+006,  0.16500000000E+002,  0.00000000000E+000,  0.10000000000E+001
  0.58560000000E+004,  0.19772304913E+006,  0.16500000000E+002,  0.00000000000E+000,  0.10000000000E+001
  0.61560000000E+004,  0.20302344641E+006,  0.16500000000E+002,  0.00000000000E+000,  0.10000000000E+001
  0.64560000000E+004,  0.20807366838E+006,  0.16500000000E+002,  0.00000000000E+000,  0.10000000000E+001
  0.67560000000E+004,  0.21289042528E+006,  0.16500000000E+002,  0.00000000000E+000,  0.10000000000E+001
  0.70560000000E+004,  0.21748904344E+006,  0.16500000000E+002,  0.00000000000E+000,  0.10000000000E+001
  0.73560000000E+004,  0.22188359755E+006,  0.16500000000E+002,  0.00000000000E+000,  0.10000000000E+001
  0.76560000000E+004,  0.22608702929E+006,  0.16500000000E+002,  0.00000000000E+000,  0.10000000000E+001
  0.79560000000E+004,  0.23011125389E+006,  0.16500000000E+002,  0.00000000000E+000,  0.10000000000E+001
  0.82560000000E+004,  0.23396725588E+006,  0.16500000000E+002,  0.00000000000E+000,  0.10000000000E+001
  0.85560000000E+004,  0.23766517510E+006,  0.16500000000E+002,  0.00000000000E+000,  0.10000000000E+001
  0.88560000000E+004,  0.24121438409E+006,  0.16500000000E+002,  0.00000000000E+000,  0.10000000000E+001
  0.91560000000E+004,  0.24462355768E+006,  0.16500000000E+002,  0.00000000000E+000,  0.10000000000E+001
  0.94560000000E+004,  0.24790073568E+006,  0.16500000000E+002,  0.00000000000E+000,  0.10000000000E+001
  0.97560000000E+004,  0.25105337934E+006,  0.16500000000E+002,  0.00000000000E+000,  0.10000000000E+001
  0.10056000000E+005,  0.25408842222E+006,  0.16500000000E+002,  0.00000000000E+000,  0.10000000000E+001
  0.10356000000E+005,  0.25701231611E+006,  0.16500000000E+002,  0.00000000000E+000,  0.10000000000E+001
  0.10656000000E+005,  0.25983107243E+006,  0.16500000000E+002,  0.00000000000E+000,  0.10000000000E+001
  0.10956000000E+005,  0.26255029965E+006,  0.16500000000E+002,  0.00000000000E+000,  0.10000000000E+001
  0.11256000000E+005,  0.26517523709E+006,  0.16500000000E+002,  0.00000000000E+000,  0.10000000000E+001
  0.11556000000E+005,  0.26771078549E+006,  0.16500000000E+002,  0.00000000000E+000,  0.10000000000E+001
  0.11856000000E+005,  0.27016153468E+006,  0.16500000000E+002,  0.00000000000E+000,  0.10000000000E+001
  0.12156000000E+005,  0.27253178866E+006,  0.16500000000E+002,  0.00000000000E+000,  0.10000000000E+001
  0.12456000000E+005,  0.27482558828E+006,  0.16500000000E+002,  0.00000000000E+000,  0.10000000000E+001
  0.12756000000E+005,  0.27704673186E+006,  0.16500000000E+002,  0.00000000000E+000,  0.10000000000E+001
  0.13056000000E+005,  0.27919879391E+006,  0.16500000000E+002,  0.00000000000E+000,  0.10000000000E+001
  0.13356000000E+005,  0.28128514215E+006,  0.16500000000E+002,  0.00000000000E+000,  0.10000000000E+001
  0.13656000000E+005,  0.28330895293E+006,  0.16500000000E+002,  0.00000000000E+000,  0.10000000000E+001
  0.13956000000E+005,  0.28527322531E+006,  0.16500000000E+002,  0.00000000000E+000,  0.10000000000E+001
  0.14256000000E+005,  0.28718079395E+006,  0.16500000000E+002,  0.00000000000E+000,  0.10000000000E+001
  0.14556000000E+005,  0.28903434075E+006,  0.16500000000E+002,  0.00000000000E+000,  0.10000000000E+001
  0.14856000000E+005,  0.29083640553E+006,  0.16500000000E+002,  0.00000000000E+000,  0.10000000000E+001
  0.15156000000E+005,  0.29258939586E+006,  0.16500000000E+002,  0.00000000000E+000,  0.10000000000E+001
  0.15456000000E+005,  0.29429559591E+006,  0.16500000000E+002,  0.00000000000E+000,  0.10000000000E+001
  0.15756000000E+005,  0.29595717471E+006,  0.16500000000E+002,  0.00000000000E+000,  0.10000000000E+001
  0.16056000000E+005,  0.29757619358E+006,  0.16500000000E+002,  0.00000000000E+000,  0.10000000000E+001
  0.16356000000E+005,  0.29915461308E+006,  0.16500000000E+002,  0.00000000000E+000,  0.10000000000E+001
  0.16656000000E+005,  0.30069429931E+006,  0.16500000000E+002,  0.00000000000E+000,  0.10000000000E+001
  0.16956000000E+005,  0.30219702973E+006,  0.16500000000E+002,  0.00000000000E+000,  0.10000000000E+001
  0.17256000000E+005,  0.30366449853E+006,  0.16500000000E+002,  0.00000000000E+000,  0.10000000000E+001
  0.17556000000E+005,  0.30509832159E+006,  0.16500000000E+002,  0.00000000000E+000,  0.10000000000E+001
  0.17856000000E+005,  0.30650004101E+006,  0.16500000000E+002,  0.00000000000E+000,  0.10000000000E+001
  0.18156000000E+005,  0.30787112938E+006,  0.16500000000E+002,  0.00000000000E+000,  0.10000000000E+001
  0.18456000000E+005,  0.30921299367E+006,  0.16500000000E+002,  0.00000000000E+000,  0.10000000000E+001
  0.18756000000E+005,  0.31052697885E+006,  0.16500000000E+002,  0.00000000000E+000,  0.10000000000E+001
  0.19056000000E+005,  0.31181437124E+006,  0.16500000000E+002,  0.00000000000E+000,  0.10000000000E+001
  0.19356000000E+005,  0.31307640166E+006,  0.16500000000E+002,  0.00000000000E+000,  0.10000000000E+001
  0.19656000000E+005,  0.31431424831E+006,  0.16500000000E+002,  0.00000000000E+000,  0.10000000000E+001
  0.19956000000E+005,  0.31552903949E+006,  0.16500000000E+002,  0.00000000000E+000,  0.10000000000E+001
  0.20256000000E+005,  0.31672185613E+006,  0.16500000000E+002,  0.00000000000E+000,  0.10000000000E+001
  0.20556000000E+005,  0.31789373413E+006,  0.16500000000E+002,  0.00000000000E+000,  0.10000000000E+001
  0.20856000000E+005,  0.31904566658E+006,  0.16500000000E+002,  0.00000000000E+000,  0.10000000000E+001
  0.21156000000E+005,  0.32017860582E+006,  0.16500000000E+002,  0.00000000000E+000,  0.10000000000E+001
  0.21456000000E+005,  0.32129346533E+006,  0.16500000000E+002,  0.00000000000E+000,  0.10000000000E+001
  0.21600000000E+005,  0.32182453073E+006,  0.16500000000E+002,  0.00000000000E+000,  0.10000000000E+001
