"           TIME(S)","              PRES","              TEMP","             SAT_G","             SAT_L"
  0.10000000000E+001,  0.11737456029E+007,  0.16500000000E+002,  0.00000000000E+000,  0.10000000000E+001
  0.60000000000E+001,  0.29912971006E+007,  0.16500000000E+002,  0.00000000000E+000,  0.10000000000E+001
  0.31000000000E+002,  0.65928641693E+007,  0.16500000000E+002,  0.00000000000E+000,  0.10000000000E+001
  0.15600000000E+003,  0.11211566824E+008,  0.16500000000E+002,  0.00000000000E+000,  0.10000000000E+001
  0.45600000000E+003,  0.14257460430E+008,  0.16500000000E+002,  0.00000000000E+000,  0.10000000000E+001
  0.75600000000E+003,  0.15564555507E+008,  0.16500000000E+002,  0.00000000000E+000,  0.10000000000E+001
  0.10560000000E+004,  0.16282759481E+008,  0.16500000000E+002,  0.00000000000E+000,  0.10000000000E+001
  0.13560000000E+004,  0.16738950293E+008,  0.16500000000E+002,  0.00000000000E+000,  0.10000000000E+001
  0.16560000000E+004,  0.17056393878E+008,  0.16500000000E+002,  0.00000000000E+000,  0.10000000000E+001
  0.19560000000E+004,  0.17291256692E+008,  0.16500000000E+002,  0.00000000000E+000,  0.10000000000E+001
  0.22560000000E+004,  0.17472769586E+008,  0.16500000000E+002,  0.00000000000E+000,  0.10000000000E+001
  0.25560000000E+004,  0.17617686563E+008,  0.16500000000E+002,  0.00000000000E+000,  0.10000000000E+001
  0.28560000000E+004,  0.17736330043E+008,  0.16500000000E+002,  0.00000000000E+000,  0.10000000000E+001
  0.31560000000E+004,  0.17835424925E+008,  0.16500000000E+002,  0.00000000000E+000,  0.10000000000E+001
  0.34560000000E+004,  0.17919551076E+008,  0.16500000000E+002,  0.00000000000E+000,  0.10000000000E+001
  0.37560000000E+004,  0.17991942385E+008,  0.16500000000E+002,  0.00000000000E+000,  0.10000000000E+001
  0.40560000000E+004,  0.18054951737E+008,  0.16500000000E+002,  0.00000000000E+000,  0.10000000000E+001
  0.43560000000E+004,  0.18110335113E+008,  0.16500000000E+002,  0.00000000000E+000,  0.10000000000E+001
  0.46560000000E+004,  0.18159431635E+008,  0.16500000000E+002,  0.00000000000E+000,  0.10000000000E+001
  0.49560000000E+004,  0.18203281769E+008,  0.16500000000E+002,  0.00000000000E+000,  0.10000000000E+001
  0.52560000000E+004,  0.18242707195E+008,  0.16500000000E+002,  0.00000000000E+000,  0.10000000000E+001
  0.55560000000E+004,  0.18278366075E+008,  0.16500000000E+002,  0.00000000000E+000,  0.10000000000E+001
  0.58560000000E+004,  0.18310792251E+008,  0.16500000000E+002,  0.00000000000E+000,  0.10000000000E+001
  0.61560000000E+004,  0.18343251709E+008,  0.16500000000E+002,  0.00000000000E+000,  0.10000000000E+001
  0.64560000000E+004,  0.18373683824E+008,  0.16500000000E+002,  0.00000000000E+000,  0.10000000000E+001
  0.67560000000E+004,  0.18399595550E+008,  0.16500000000E+002,  0.00000000000E+000,  0.10000000000E+001
  0.70560000000E+004,  0.18423187266E+008,  0.16500000000E+002,  0.00000000000E+000,  0.10000000000E+001
  0.73560000000E+004,  0.18444961170E+008,  0.16500000000E+002,  0.00000000000E+000,  0.10000000000E+001
  0.76560000000E+004,  0.18465184873E+008,  0.16500000000E+002,  0.00000000000E+000,  0.10000000000E+001
  0.79560000000E+004,  0.18484050305E+008,  0.16500000000E+002,  0.00000000000E+000,  0.10000000000E+001
  0.82560000000E+004,  0.18501710518E+008,  0.16500000000E+002,  0.00000000000E+000,  0.10000000000E+001
  0.85560000000E+004,  0.18518293102E+008,  0.16500000000E+002,  0.00000000000E+000,  0.10000000000E+001
  0.88560000000E+004,  0.18533906800E+008,  0.16500000000E+002,  0.00000000000E+000,  0.10000000000E+001
  0.91560000000E+004,  0.18548645492E+008,  0.16500000000E+002,  0.00000000000E+000,  0.10000000000E+001
  0.94560000000E+004,  0.18562590934E+008,  0.16500000000E+002,  0.00000000000E+000,  0.10000000000E+001
  0.97560000000E+004,  0.18575814766E+008,  0.16500000000E+002,  0.00000000000E+000,  0.10000000000E+001
  0.10056000000E+005,  0.18588380109E+008,  0.16500000000E+002,  0.00000000000E+000,  0.10000000000E+001
  0.10356000000E+005,  0.18600342796E+008,  0.16500000000E+002,  0.00000000000E+000,  0.10000000000E+001
  0.10656000000E+005,  0.18611752413E+008,  0.16500000000E+002,  0.00000000000E+000,  0.10000000000E+001
  0.10956000000E+005,  0.18622653146E+008,  0.16500000000E+002,  0.00000000000E+000,  0.10000000000E+001
  0.11256000000E+005,  0.18633084487E+008,  0.16500000000E+002,  0.00000000000E+000,  0.10000000000E+001
  0.11556000000E+005,  0.18643081841E+008,  0.16500000000E+002,  0.00000000000E+000,  0.10000000000E+001
  0.11856000000E+005,  0.18652677030E+008,  0.16500000000E+002,  0.00000000000E+000,  0.10000000000E+001
  0.12156000000E+005,  0.18648814228E+008,  0.16500000000E+002,  0.00000000000E+000,  0.10000000000E+001
  0.12456000000E+005,  0.18642723831E+008,  0.16500000000E+002,  0.00000000000E+000,  0.10000000000E+001
  0.12756000000E+005,  0.18647367654E+008,  0.16500000000E+002,  0.00000000000E+000,  0.10000000000E+001
  0.13056000000E+005,  0.18653766515E+008,  0.16500000000E+002,  0.00000000000E+000,  0.10000000000E+001
  0.13356000000E+005,  0.18660620485E+008,  0.16500000000E+002,  0.00000000000E+000,  0.10000000000E+001
  0.13656000000E+005,  0.18667564557E+008,  0.16500000000E+002,  0.00000000000E+000,  0.10000000000E+001
  0.13956000000E+005,  0.18674460627E+008,  0.16500000000E+002,  0.00000000000E+000,  0.10000000000E+001
  0.14256000000E+005,  0.18681248398E+008,  0.16500000000E+002,  0.00000000000E+000,  0.10000000000E+001
  0.14556000000E+005,  0.18687900081E+008,  0.16500000000E+002,  0.00000000000E+000,  0.10000000000E+001
  0.14856000000E+005,  0.18694403295E+008,  0.16500000000E+002,  0.00000000000E+000,  0.10000000000E+001
  0.15156000000E+005,  0.18700753592E+008,  0.16500000000E+002,  0.00000000000E+000,  0.10000000000E+001
  0.15456000000E+005,  0.18706950827E+008,  0.16500000000E+002,  0.00000000000E+000,  0.10000000000E+001
  0.15756000000E+005,  0.18712997252E+008,  0.16500000000E+002,  0.00000000000E+000,  0.10000000000E+001
  0.16056000000E+005,  0.18718896460E+008,  0.16500000000E+002,  0.00000000000E+000,  0.10000000000E+001
  0.16356000000E+005,  0.18724652769E+008,  0.16500000000E+002,  0.00000000000E+000,  0.10000000000E+001
  0.16656000000E+005,  0.18730270859E+008,  0.16500000000E+002,  0.00000000000E+000,  0.10000000000E+001
  0.16956000000E+005,  0.18735755546E+008,  0.16500000000E+002,  0.00000000000E+000,  0.10000000000E+001
  0.17256000000E+005,  0.18741111647E+008,  0.16500000000E+002,  0.00000000000E+000,  0.10000000000E+001
  0.17556000000E+005,  0.18746343894E+008,  0.16500000000E+002,  0.00000000000E+000,  0.10000000000E+001
  0.17856000000E+005,  0.18751456886E+008,  0.16500000000E+002,  0.00000000000E+000,  0.10000000000E+001
  0.18156000000E+005,  0.18769911088E+008,  0.16500000000E+002,  0.00000000000E+000,  0.10000000000E+001
  0.18456000000E+005,  0.18790186082E+008,  0.16500000000E+002,  0.00000000000E+000,  0.10000000000E+001
  0.18756000000E+005,  0.18798981937E+008,  0.16500000000E+002,  0.00000000000E+000,  0.10000000000E+001
  0.19056000000E+005,  0.18805563235E+008,  0.16500000000E+002,  0.00000000000E+000,  0.10000000000E+001
  0.19356000000E+005,  0.18811288094E+008,  0.16500000000E+002,  0.00000000000E+000,  0.10000000000E+001
  0.19656000000E+005,  0.18816552229E+008,  0.16500000000E+002,  0.00000000000E+000,  0.10000000000E+001
  0.19956000000E+005,  0.18821516992E+008,  0.16500000000E+002,  0.00000000000E+000,  0.10000000000E+001
  0.20256000000E+005,  0.18826262478E+008,  0.16500000000E+002,  0.00000000000E+000,  0.10000000000E+001
  0.20556000000E+005,  0.18830834074E+008,  0.16500000000E+002,  0.00000000000E+000,  0.10000000000E+001
  0.20856000000E+005,  0.18835260104E+008,  0.16500000000E+002,  0.00000000000E+000,  0.10000000000E+001
  0.21156000000E+005,  0.18839559602E+008,  0.16500000000E+002,  0.00000000000E+000,  0.10000000000E+001
  0.21456000000E+005,  0.18843746139E+008,  0.16500000000E+002,  0.00000000000E+000,  0.10000000000E+001
  0.21756000000E+005,  0.18847829873E+008,  0.16500000000E+002,  0.00000000000E+000,  0.10000000000E+001
  0.22056000000E+005,  0.18851818714E+008,  0.16500000000E+002,  0.00000000000E+000,  0.10000000000E+001
  0.22356000000E+005,  0.18855719038E+008,  0.16500000000E+002,  0.00000000000E+000,  0.10000000000E+001
  0.22656000000E+005,  0.18859536127E+008,  0.16500000000E+002,  0.00000000000E+000,  0.10000000000E+001
  0.22956000000E+005,  0.18863274462E+008,  0.16500000000E+002,  0.00000000000E+000,  0.10000000000E+001
  0.23256000000E+005,  0.18866937918E+008,  0.16500000000E+002,  0.00000000000E+000,  0.10000000000E+001
  0.23556000000E+005,  0.18870529904E+008,  0.16500000000E+002,  0.00000000000E+000,  0.10000000000E+001
  0.23856000000E+005,  0.18874053459E+008,  0.16500000000E+002,  0.00000000000E+000,  0.10000000000E+001
  0.24156000000E+005,  0.18881687054E+008,  0.16500000000E+002,  0.00000000000E+000,  0.10000000000E+001
  0.24456000000E+005,  0.18889855974E+008,  0.16500000000E+002,  0.00000000000E+000,  0.10000000000E+001
  0.24756000000E+005,  0.18894434283E+008,  0.16500000000E+002,  0.00000000000E+000,  0.10000000000E+001
  0.25056000000E+005,  0.18898299283E+008,  0.16500000000E+002,  0.00000000000E+000,  0.10000000000E+001
  0.25356000000E+005,  0.18901872920E+008,  0.16500000000E+002,  0.00000000000E+000,  0.10000000000E+001
  0.25656000000E+005,  0.18905278437E+008,  0.16500000000E+002,  0.00000000000E+000,  0.10000000000E+001
  0.25956000000E+005,  0.18908566519E+008,  0.16500000000E+002,  0.00000000000E+000,  0.10000000000E+001
  0.26256000000E+005,  0.18911762506E+008,  0.16500000000E+002,  0.00000000000E+000,  0.10000000000E+001
  0.26556000000E+005,  0.18914881048E+008,  0.16500000000E+002,  0.00000000000E+000,  0.10000000000E+001
  0.26856000000E+005,  0.18917931470E+008,  0.16500000000E+002,  0.00000000000E+000,  0.10000000000E+001
  0.27156000000E+005,  0.18920920191E+008,  0.16500000000E+002,  0.00000000000E+000,  0.10000000000E+001
  0.27456000000E+005,  0.18923851914E+008,  0.16500000000E+002,  0.00000000000E+000,  0.10000000000E+001
  0.27756000000E+005,  0.18926730261E+008,  0.16500000000E+002,  0.00000000000E+000,  0.10000000000E+001
  0.28056000000E+005,  0.18929558139E+008,  0.16500000000E+002,  0.00000000000E+000,  0.10000000000E+001
  0.28356000000E+005,  0.18932337963E+008,  0.16500000000E+002,  0.00000000000E+000,  0.10000000000E+001
  0.28656000000E+005,  0.18935071790E+008,  0.16500000000E+002,  0.00000000000E+000,  0.10000000000E+001
  0.28956000000E+005,  0.18937761415E+008,  0.16500000000E+002,  0.00000000000E+000,  0.10000000000E+001
  0.29256000000E+005,  0.18940408433E+008,  0.16500000000E+002,  0.00000000000E+000,  0.10000000000E+001
  0.29556000000E+005,  0.18943014282E+008,  0.16500000000E+002,  0.00000000000E+000,  0.10000000000E+001
  0.29856000000E+005,  0.18945580271E+008,  0.16500000000E+002,  0.00000000000E+000,  0.10000000000E+001
  0.30156000000E+005,  0.18953653478E+008,  0.16500000000E+002,  0.00000000000E+000,  0.10000000000E+001
  0.30456000000E+005,  0.18962483038E+008,  0.16500000000E+002,  0.00000000000E+000,  0.10000000000E+001
  0.30756000000E+005,  0.18966587612E+008,  0.16500000000E+002,  0.00000000000E+000,  0.10000000000E+001
  0.31056000000E+005,  0.18969788146E+008,  0.16500000000E+002,  0.00000000000E+000,  0.10000000000E+001
  0.31356000000E+005,  0.18972643187E+008,  0.16500000000E+002,  0.00000000000E+000,  0.10000000000E+001
  0.31656000000E+005,  0.18975314666E+008,  0.16500000000E+002,  0.00000000000E+000,  0.10000000000E+001
  0.31956000000E+005,  0.18977868201E+008,  0.16500000000E+002,  0.00000000000E+000,  0.10000000000E+001
  0.32256000000E+005,  0.18980336105E+008,  0.16500000000E+002,  0.00000000000E+000,  0.10000000000E+001
  0.32556000000E+005,  0.88545645812E+008,  0.16500000000E+002,  0.00000000000E+000,  0.10000000000E+001
  0.32556292969E+005,  0.96527308090E+008,  0.16500000000E+002,  0.00000000000E+000,  0.10000000000E+001
  0.32556384521E+005,  0.98962145234E+008,  0.16500000000E+002,  0.00000000000E+000,  0.10000000000E+001
  0.32556413132E+005,  0.99717378828E+008,  0.16500000000E+002,  0.00000000000E+000,  0.10000000000E+001
  0.32556422072E+005,  0.99952842017E+008,  0.16500000000E+002,  0.00000000000E+000,  0.10000000000E+001
  0.32556422771E+005,  0.99971233216E+008,  0.16500000000E+002,  0.00000000000E+000,  0.10000000000E+001
  0.32556423644E+005,  0.99994217476E+008,  0.16500000000E+002,  0.00000000000E+000,  0.10000000000E+001
  0.32556423661E+005,  0.99994666379E+008,  0.16500000000E+002,  0.00000000000E+000,  0.10000000000E+001
  0.32556423666E+005,  0.99994806661E+008,  0.16500000000E+002,  0.00000000000E+000,  0.10000000000E+001
  0.32556423673E+005,  0.99994982013E+008,  0.16500000000E+002,  0.00000000000E+000,  0.10000000000E+001
  0.32556423675E+005,  0.99995036810E+008,  0.16500000000E+002,  0.00000000000E+000,  0.10000000000E+001
  0.32556423678E+005,  0.99995105307E+008,  0.16500000000E+002,  0.00000000000E+000,  0.10000000000E+001
  0.32556423678E+005,  0.99995110658E+008,  0.16500000000E+002,  0.00000000000E+000,  0.10000000000E+001
  0.32556423678E+005,  0.99995117347E+008,  0.16500000000E+002,  0.00000000000E+000,  0.10000000000E+001
  0.32556423678E+005,  0.99995117347E+008,  0.16500000000E+002,  0.00000000000E+000,  0.10000000000E+001
  0.32556423678E+005,  0.99995117347E+008,  0.16500000000E+002,  0.00000000000E+000,  0.10000000000E+001
  0.32556423679E+005,  0.99995117347E+008,  0.16500000000E+002,  0.00000000000E+000,  0.10000000000E+001
