"           TIME(S)","              PRES","              TEMP","             SAT_G","             SAT_L"
  0.94860000000E+005,  0.99952875818E+006,  0.16500000000E+002,  0.00000000000E+000,  0.10000000000E+001
  0.94870000000E+005,  0.99952875839E+006,  0.16500000000E+002,  0.00000000000E+000,  0.10000000000E+001
  0.94880000000E+005,  0.99952875859E+006,  0.16500000000E+002,  0.00000000000E+000,  0.10000000000E+001
  0.94890000000E+005,  0.99974018498E+006,  0.16500000000E+002,  0.00000000000E+000,  0.10000000000E+001
  0.94900000000E+005,  0.99999059287E+006,  0.16500000000E+002,  0.00000000000E+000,  0.10000000000E+001
  0.94910000000E+005,  0.10002408860E+007,  0.16500000000E+002,  0.00000000000E+000,  0.10000000000E+001
  0.94920000000E+005,  0.10005267163E+007,  0.16500000000E+002,  0.00000000000E+000,  0.10000000000E+001
  0.94930000000E+005,  0.10009006409E+007,  0.16500000000E+002,  0.00000000000E+000,  0.10000000000E+001
  0.94940000000E+005,  0.10019342432E+007,  0.16500000000E+002,  0.00000000000E+000,  0.10000000000E+001
  0.94950000000E+005,  0.10031330232E+007,  0.16500000000E+002,  0.00000000000E+000,  0.10000000000E+001
  0.94960000000E+005,  0.10043754802E+007,  0.16500000000E+002,  0.00000000000E+000,  0.10000000000E+001
  0.94970000000E+005,  0.10055927392E+007,  0.16500000000E+002,  0.00000000000E+000,  0.10000000000E+001
  0.94980000000E+005,  0.10068073298E+007,  0.16500000000E+002,  0.00000000000E+000,  0.10000000000E+001
  0.94990000000E+005,  0.10080192640E+007,  0.16500000000E+002,  0.00000000000E+000,  0.10000000000E+001
  0.95000000000E+005,  0.10092525711E+007,  0.16500000000E+002,  0.00000000000E+000,  0.10000000000E+001
  0.95010000000E+005,  0.10104787303E+007,  0.16500000000E+002,  0.00000000000E+000,  0.10000000000E+001
  0.95020000000E+005,  0.10117021833E+007,  0.16500000000E+002,  0.00000000000E+000,  0.10000000000E+001
  0.95030000000E+005,  0.10129160295E+007,  0.16500000000E+002,  0.00000000000E+000,  0.10000000000E+001
  0.95040000000E+005,  0.10141146708E+007,  0.16500000000E+002,  0.00000000000E+000,  0.10000000000E+001
  0.95050000000E+005,  0.10153107266E+007,  0.16500000000E+002,  0.00000000000E+000,  0.10000000000E+001
  0.95060000000E+005,  0.10165042078E+007,  0.16500000000E+002,  0.00000000000E+000,  0.10000000000E+001
  0.95070000000E+005,  0.10176951259E+007,  0.16500000000E+002,  0.00000000000E+000,  0.10000000000E+001
  0.95080000000E+005,  0.10188834917E+007,  0.16500000000E+002,  0.00000000000E+000,  0.10000000000E+001
  0.95090000000E+005,  0.10200693165E+007,  0.16500000000E+002,  0.00000000000E+000,  0.10000000000E+001
  0.95100000000E+005,  0.10212526110E+007,  0.16500000000E+002,  0.00000000000E+000,  0.10000000000E+001
  0.95110000000E+005,  0.10224333863E+007,  0.16500000000E+002,  0.00000000000E+000,  0.10000000000E+001
  0.95120000000E+005,  0.10236116530E+007,  0.16500000000E+002,  0.00000000000E+000,  0.10000000000E+001
  0.95128100000E+005,  0.10245640263E+007,  0.16500000000E+002,  0.00000000000E+000,  0.10000000000E+001
  0.95138100000E+005,  0.10257377797E+007,  0.16500000000E+002,  0.00000000000E+000,  0.10000000000E+001
  0.95148100000E+005,  0.10269090545E+007,  0.16500000000E+002,  0.00000000000E+000,  0.10000000000E+001
  0.95158100000E+005,  0.10280778611E+007,  0.16500000000E+002,  0.00000000000E+000,  0.10000000000E+001
  0.95168100000E+005,  0.10292442101E+007,  0.16500000000E+002,  0.00000000000E+000,  0.10000000000E+001
  0.95178100000E+005,  0.10304081118E+007,  0.16500000000E+002,  0.00000000000E+000,  0.10000000000E+001
  0.95188100000E+005,  0.10315695764E+007,  0.16500000000E+002,  0.00000000000E+000,  0.10000000000E+001
  0.95198100000E+005,  0.10327286142E+007,  0.16500000000E+002,  0.00000000000E+000,  0.10000000000E+001
  0.95208100000E+005,  0.10338852355E+007,  0.16500000000E+002,  0.00000000000E+000,  0.10000000000E+001
  0.95218100000E+005,  0.10350394501E+007,  0.16500000000E+002,  0.00000000000E+000,  0.10000000000E+001
  0.95228100000E+005,  0.10361912683E+007,  0.16500000000E+002,  0.00000000000E+000,  0.10000000000E+001
  0.95238100000E+005,  0.10373406999E+007,  0.16500000000E+002,  0.00000000000E+000,  0.10000000000E+001
  0.95248100000E+005,  0.10384877549E+007,  0.16500000000E+002,  0.00000000000E+000,  0.10000000000E+001
  0.95258100000E+005,  0.10396324431E+007,  0.16500000000E+002,  0.00000000000E+000,  0.10000000000E+001
  0.95268100000E+005,  0.10407747742E+007,  0.16500000000E+002,  0.00000000000E+000,  0.10000000000E+001
  0.95278100000E+005,  0.10419147581E+007,  0.16500000000E+002,  0.00000000000E+000,  0.10000000000E+001
  0.95288100000E+005,  0.10430524042E+007,  0.16500000000E+002,  0.00000000000E+000,  0.10000000000E+001
  0.95298100000E+005,  0.10441877222E+007,  0.16500000000E+002,  0.00000000000E+000,  0.10000000000E+001
  0.95308100000E+005,  0.10453207217E+007,  0.16500000000E+002,  0.00000000000E+000,  0.10000000000E+001
  0.95318100000E+005,  0.10464514121E+007,  0.16500000000E+002,  0.00000000000E+000,  0.10000000000E+001
  0.95328100000E+005,  0.10475798028E+007,  0.16500000000E+002,  0.00000000000E+000,  0.10000000000E+001
  0.95338100000E+005,  0.10487059032E+007,  0.16500000000E+002,  0.00000000000E+000,  0.10000000000E+001
  0.95348100000E+005,  0.10498297225E+007,  0.16500000000E+002,  0.00000000000E+000,  0.10000000000E+001
  0.95358100000E+005,  0.10509512701E+007,  0.16500000000E+002,  0.00000000000E+000,  0.10000000000E+001
  0.95368100000E+005,  0.10520705550E+007,  0.16500000000E+002,  0.00000000000E+000,  0.10000000000E+001
  0.95378100000E+005,  0.10531875864E+007,  0.16500000000E+002,  0.00000000000E+000,  0.10000000000E+001
  0.95388100000E+005,  0.10543023733E+007,  0.16500000000E+002,  0.00000000000E+000,  0.10000000000E+001
  0.95398100000E+005,  0.10554149248E+007,  0.16500000000E+002,  0.00000000000E+000,  0.10000000000E+001
  0.95398200000E+005,  0.10554260281E+007,  0.16500000000E+002,  0.00000000000E+000,  0.10000000000E+001
  0.95408200000E+005,  0.10565363310E+007,  0.16500000000E+002,  0.00000000000E+000,  0.10000000000E+001
  0.95418200000E+005,  0.10576444163E+007,  0.16500000000E+002,  0.00000000000E+000,  0.10000000000E+001
  0.95428200000E+005,  0.10587502930E+007,  0.16500000000E+002,  0.00000000000E+000,  0.10000000000E+001
  0.95438200000E+005,  0.10598539699E+007,  0.16500000000E+002,  0.00000000000E+000,  0.10000000000E+001
  0.95448200000E+005,  0.10609554556E+007,  0.16500000000E+002,  0.00000000000E+000,  0.10000000000E+001
  0.95458200000E+005,  0.10620547590E+007,  0.16500000000E+002,  0.00000000000E+000,  0.10000000000E+001
  0.95468200000E+005,  0.10631518886E+007,  0.16500000000E+002,  0.00000000000E+000,  0.10000000000E+001
  0.95478200000E+005,  0.10642468529E+007,  0.16500000000E+002,  0.00000000000E+000,  0.10000000000E+001
  0.95488200000E+005,  0.10653396606E+007,  0.16500000000E+002,  0.00000000000E+000,  0.10000000000E+001
  0.95498200000E+005,  0.10664303201E+007,  0.16500000000E+002,  0.00000000000E+000,  0.10000000000E+001
  0.95508200000E+005,  0.10675188399E+007,  0.16500000000E+002,  0.00000000000E+000,  0.10000000000E+001
  0.95518200000E+005,  0.10686052283E+007,  0.16500000000E+002,  0.00000000000E+000,  0.10000000000E+001
  0.95528200000E+005,  0.10696894937E+007,  0.16500000000E+002,  0.00000000000E+000,  0.10000000000E+001
  0.95538200000E+005,  0.10707716443E+007,  0.16500000000E+002,  0.00000000000E+000,  0.10000000000E+001
  0.95548200000E+005,  0.10718516884E+007,  0.16500000000E+002,  0.00000000000E+000,  0.10000000000E+001
  0.95558200000E+005,  0.10729296341E+007,  0.16500000000E+002,  0.00000000000E+000,  0.10000000000E+001
  0.95568200000E+005,  0.10740054897E+007,  0.16500000000E+002,  0.00000000000E+000,  0.10000000000E+001
  0.95578200000E+005,  0.10750792632E+007,  0.16500000000E+002,  0.00000000000E+000,  0.10000000000E+001
  0.95588200000E+005,  0.10761509626E+007,  0.16500000000E+002,  0.00000000000E+000,  0.10000000000E+001
  0.95598200000E+005,  0.10772205960E+007,  0.16500000000E+002,  0.00000000000E+000,  0.10000000000E+001
  0.95608200000E+005,  0.10782881712E+007,  0.16500000000E+002,  0.00000000000E+000,  0.10000000000E+001
  0.95618200000E+005,  0.10793536963E+007,  0.16500000000E+002,  0.00000000000E+000,  0.10000000000E+001
  0.95628200000E+005,  0.10804171790E+007,  0.16500000000E+002,  0.00000000000E+000,  0.10000000000E+001
  0.95638200000E+005,  0.10814786272E+007,  0.16500000000E+002,  0.00000000000E+000,  0.10000000000E+001
  0.95648200000E+005,  0.10825380486E+007,  0.16500000000E+002,  0.00000000000E+000,  0.10000000000E+001
  0.95658200000E+005,  0.10835954510E+007,  0.16500000000E+002,  0.00000000000E+000,  0.10000000000E+001
  0.95668200000E+005,  0.10846508420E+007,  0.16500000000E+002,  0.00000000000E+000,  0.10000000000E+001
  0.95668300000E+005,  0.10846613759E+007,  0.16500000000E+002,  0.00000000000E+000,  0.10000000000E+001
  0.95678300000E+005,  0.10857147433E+007,  0.16500000000E+002,  0.00000000000E+000,  0.10000000000E+001
  0.95688300000E+005,  0.10867661146E+007,  0.16500000000E+002,  0.00000000000E+000,  0.10000000000E+001
  0.95698300000E+005,  0.10878154974E+007,  0.16500000000E+002,  0.00000000000E+000,  0.10000000000E+001
  0.95708300000E+005,  0.10888628992E+007,  0.16500000000E+002,  0.00000000000E+000,  0.10000000000E+001
  0.95718300000E+005,  0.10899083275E+007,  0.16500000000E+002,  0.00000000000E+000,  0.10000000000E+001
  0.95728300000E+005,  0.10909517897E+007,  0.16500000000E+002,  0.00000000000E+000,  0.10000000000E+001
  0.95738300000E+005,  0.10919932931E+007,  0.16500000000E+002,  0.00000000000E+000,  0.10000000000E+001
  0.95748300000E+005,  0.10930328452E+007,  0.16500000000E+002,  0.00000000000E+000,  0.10000000000E+001
  0.95758300000E+005,  0.10940704533E+007,  0.16500000000E+002,  0.00000000000E+000,  0.10000000000E+001
  0.95768300000E+005,  0.10951061245E+007,  0.16500000000E+002,  0.00000000000E+000,  0.10000000000E+001
  0.95778300000E+005,  0.10961398661E+007,  0.16500000000E+002,  0.00000000000E+000,  0.10000000000E+001
  0.95788300000E+005,  0.10971716852E+007,  0.16500000000E+002,  0.00000000000E+000,  0.10000000000E+001
  0.95798300000E+005,  0.10982015891E+007,  0.16500000000E+002,  0.00000000000E+000,  0.10000000000E+001
  0.95808300000E+005,  0.10992295848E+007,  0.16500000000E+002,  0.00000000000E+000,  0.10000000000E+001
  0.95818300000E+005,  0.11002556793E+007,  0.16500000000E+002,  0.00000000000E+000,  0.10000000000E+001
  0.95828300000E+005,  0.11012798797E+007,  0.16500000000E+002,  0.00000000000E+000,  0.10000000000E+001
  0.95838300000E+005,  0.11023021930E+007,  0.16500000000E+002,  0.00000000000E+000,  0.10000000000E+001
  0.95848300000E+005,  0.11033226261E+007,  0.16500000000E+002,  0.00000000000E+000,  0.10000000000E+001
  0.95858300000E+005,  0.11043411859E+007,  0.16500000000E+002,  0.00000000000E+000,  0.10000000000E+001
  0.95868300000E+005,  0.11053578792E+007,  0.16500000000E+002,  0.00000000000E+000,  0.10000000000E+001
  0.95878300000E+005,  0.11063727130E+007,  0.16500000000E+002,  0.00000000000E+000,  0.10000000000E+001
  0.95888300000E+005,  0.11073856939E+007,  0.16500000000E+002,  0.00000000000E+000,  0.10000000000E+001
  0.95898300000E+005,  0.11083968288E+007,  0.16500000000E+002,  0.00000000000E+000,  0.10000000000E+001
  0.95908300000E+005,  0.11094061243E+007,  0.16500000000E+002,  0.00000000000E+000,  0.10000000000E+001
  0.95918300000E+005,  0.11104135872E+007,  0.16500000000E+002,  0.00000000000E+000,  0.10000000000E+001
  0.95928300000E+005,  0.11114192240E+007,  0.16500000000E+002,  0.00000000000E+000,  0.10000000000E+001
  0.95938300000E+005,  0.11124230414E+007,  0.16500000000E+002,  0.00000000000E+000,  0.10000000000E+001
  0.95938400000E+005,  0.11124330615E+007,  0.16500000000E+002,  0.00000000000E+000,  0.10000000000E+001
  0.95948400000E+005,  0.11134350480E+007,  0.16500000000E+002,  0.00000000000E+000,  0.10000000000E+001
  0.95958400000E+005,  0.11144352282E+007,  0.16500000000E+002,  0.00000000000E+000,  0.10000000000E+001
  0.95968400000E+005,  0.11154336087E+007,  0.16500000000E+002,  0.00000000000E+000,  0.10000000000E+001
  0.95978400000E+005,  0.11164301960E+007,  0.16500000000E+002,  0.00000000000E+000,  0.10000000000E+001
  0.95988400000E+005,  0.11174249963E+007,  0.16500000000E+002,  0.00000000000E+000,  0.10000000000E+001
  0.95998400000E+005,  0.11184180163E+007,  0.16500000000E+002,  0.00000000000E+000,  0.10000000000E+001
  0.96008400000E+005,  0.11193956437E+007,  0.16500000000E+002,  0.00000000000E+000,  0.10000000000E+001
  0.96018400000E+005,  0.11203689621E+007,  0.16500000000E+002,  0.00000000000E+000,  0.10000000000E+001
  0.96028400000E+005,  0.11213405761E+007,  0.16500000000E+002,  0.00000000000E+000,  0.10000000000E+001
  0.96038400000E+005,  0.11223104917E+007,  0.16500000000E+002,  0.00000000000E+000,  0.10000000000E+001
  0.96048400000E+005,  0.11232787147E+007,  0.16500000000E+002,  0.00000000000E+000,  0.10000000000E+001
  0.96058400000E+005,  0.11242452510E+007,  0.16500000000E+002,  0.00000000000E+000,  0.10000000000E+001
  0.96068400000E+005,  0.11252101065E+007,  0.16500000000E+002,  0.00000000000E+000,  0.10000000000E+001
  0.96078400000E+005,  0.11261732871E+007,  0.16500000000E+002,  0.00000000000E+000,  0.10000000000E+001
  0.96088400000E+005,  0.11271347985E+007,  0.16500000000E+002,  0.00000000000E+000,  0.10000000000E+001
  0.96098400000E+005,  0.11280946466E+007,  0.16500000000E+002,  0.00000000000E+000,  0.10000000000E+001
  0.96108400000E+005,  0.11290528369E+007,  0.16500000000E+002,  0.00000000000E+000,  0.10000000000E+001
  0.96118400000E+005,  0.11300093754E+007,  0.16500000000E+002,  0.00000000000E+000,  0.10000000000E+001
  0.96128400000E+005,  0.11309642676E+007,  0.16500000000E+002,  0.00000000000E+000,  0.10000000000E+001
  0.96138400000E+005,  0.11319175192E+007,  0.16500000000E+002,  0.00000000000E+000,  0.10000000000E+001
  0.96148400000E+005,  0.11328691359E+007,  0.16500000000E+002,  0.00000000000E+000,  0.10000000000E+001
  0.96158400000E+005,  0.11338191231E+007,  0.16500000000E+002,  0.00000000000E+000,  0.10000000000E+001
  0.96168400000E+005,  0.11347674866E+007,  0.16500000000E+002,  0.00000000000E+000,  0.10000000000E+001
  0.96178400000E+005,  0.11357142318E+007,  0.16500000000E+002,  0.00000000000E+000,  0.10000000000E+001
  0.96188400000E+005,  0.11366593643E+007,  0.16500000000E+002,  0.00000000000E+000,  0.10000000000E+001
  0.96198400000E+005,  0.11376028895E+007,  0.16500000000E+002,  0.00000000000E+000,  0.10000000000E+001
  0.96208400000E+005,  0.11385448129E+007,  0.16500000000E+002,  0.00000000000E+000,  0.10000000000E+001
  0.96208500000E+005,  0.11385542162E+007,  0.16500000000E+002,  0.00000000000E+000,  0.10000000000E+001
  0.96218500000E+005,  0.11394945273E+007,  0.16500000000E+002,  0.00000000000E+000,  0.10000000000E+001
  0.96228500000E+005,  0.11404332475E+007,  0.16500000000E+002,  0.00000000000E+000,  0.10000000000E+001
  0.96238500000E+005,  0.11413703821E+007,  0.16500000000E+002,  0.00000000000E+000,  0.10000000000E+001
  0.96248500000E+005,  0.11423059365E+007,  0.16500000000E+002,  0.00000000000E+000,  0.10000000000E+001
  0.96258500000E+005,  0.11432399161E+007,  0.16500000000E+002,  0.00000000000E+000,  0.10000000000E+001
  0.96268500000E+005,  0.11441723260E+007,  0.16500000000E+002,  0.00000000000E+000,  0.10000000000E+001
  0.96278500000E+005,  0.11451031717E+007,  0.16500000000E+002,  0.00000000000E+000,  0.10000000000E+001
  0.96288500000E+005,  0.11460324582E+007,  0.16500000000E+002,  0.00000000000E+000,  0.10000000000E+001
  0.96298500000E+005,  0.11469601909E+007,  0.16500000000E+002,  0.00000000000E+000,  0.10000000000E+001
  0.96308500000E+005,  0.11478863750E+007,  0.16500000000E+002,  0.00000000000E+000,  0.10000000000E+001
  0.96318500000E+005,  0.11488110155E+007,  0.16500000000E+002,  0.00000000000E+000,  0.10000000000E+001
  0.96328500000E+005,  0.11497341176E+007,  0.16500000000E+002,  0.00000000000E+000,  0.10000000000E+001
  0.96338500000E+005,  0.11506556864E+007,  0.16500000000E+002,  0.00000000000E+000,  0.10000000000E+001
  0.96348500000E+005,  0.11515757271E+007,  0.16500000000E+002,  0.00000000000E+000,  0.10000000000E+001
  0.96358500000E+005,  0.11524942447E+007,  0.16500000000E+002,  0.00000000000E+000,  0.10000000000E+001
  0.96368500000E+005,  0.11534112441E+007,  0.16500000000E+002,  0.00000000000E+000,  0.10000000000E+001
  0.96378500000E+005,  0.11543267305E+007,  0.16500000000E+002,  0.00000000000E+000,  0.10000000000E+001
  0.96388500000E+005,  0.11552407088E+007,  0.16500000000E+002,  0.00000000000E+000,  0.10000000000E+001
  0.96398500000E+005,  0.11561531840E+007,  0.16500000000E+002,  0.00000000000E+000,  0.10000000000E+001
  0.96408500000E+005,  0.11570641609E+007,  0.16500000000E+002,  0.00000000000E+000,  0.10000000000E+001
  0.96418500000E+005,  0.11579736446E+007,  0.16500000000E+002,  0.00000000000E+000,  0.10000000000E+001
  0.96428500000E+005,  0.11588816398E+007,  0.16500000000E+002,  0.00000000000E+000,  0.10000000000E+001
  0.96438500000E+005,  0.11597881516E+007,  0.16500000000E+002,  0.00000000000E+000,  0.10000000000E+001
  0.96448500000E+005,  0.11606931846E+007,  0.16500000000E+002,  0.00000000000E+000,  0.10000000000E+001
  0.96458500000E+005,  0.11615967438E+007,  0.16500000000E+002,  0.00000000000E+000,  0.10000000000E+001
  0.96468500000E+005,  0.11624988339E+007,  0.16500000000E+002,  0.00000000000E+000,  0.10000000000E+001
  0.96478500000E+005,  0.11633994597E+007,  0.16500000000E+002,  0.00000000000E+000,  0.10000000000E+001
  0.96478600000E+005,  0.11634084514E+007,  0.16500000000E+002,  0.00000000000E+000,  0.10000000000E+001
  0.96488600000E+005,  0.11643076030E+007,  0.16500000000E+002,  0.00000000000E+000,  0.10000000000E+001
  0.96498600000E+005,  0.11652052999E+007,  0.16500000000E+002,  0.00000000000E+000,  0.10000000000E+001
  0.96508600000E+005,  0.11661015466E+007,  0.16500000000E+002,  0.00000000000E+000,  0.10000000000E+001
  0.96518600000E+005,  0.11669963480E+007,  0.16500000000E+002,  0.00000000000E+000,  0.10000000000E+001
  0.96528600000E+005,  0.11678897085E+007,  0.16500000000E+002,  0.00000000000E+000,  0.10000000000E+001
  0.96538600000E+005,  0.11687816330E+007,  0.16500000000E+002,  0.00000000000E+000,  0.10000000000E+001
  0.96548600000E+005,  0.11696721259E+007,  0.16500000000E+002,  0.00000000000E+000,  0.10000000000E+001
  0.96558600000E+005,  0.11705611919E+007,  0.16500000000E+002,  0.00000000000E+000,  0.10000000000E+001
  0.96568600000E+005,  0.11714488355E+007,  0.16500000000E+002,  0.00000000000E+000,  0.10000000000E+001
  0.96578600000E+005,  0.11723350614E+007,  0.16500000000E+002,  0.00000000000E+000,  0.10000000000E+001
  0.96588600000E+005,  0.11732198739E+007,  0.16500000000E+002,  0.00000000000E+000,  0.10000000000E+001
  0.96598600000E+005,  0.11741032776E+007,  0.16500000000E+002,  0.00000000000E+000,  0.10000000000E+001
  0.96608600000E+005,  0.11749852771E+007,  0.16500000000E+002,  0.00000000000E+000,  0.10000000000E+001
  0.96618600000E+005,  0.11758658766E+007,  0.16500000000E+002,  0.00000000000E+000,  0.10000000000E+001
  0.96628600000E+005,  0.11767450808E+007,  0.16500000000E+002,  0.00000000000E+000,  0.10000000000E+001
  0.96638600000E+005,  0.11776228939E+007,  0.16500000000E+002,  0.00000000000E+000,  0.10000000000E+001
  0.96648600000E+005,  0.11784993204E+007,  0.16500000000E+002,  0.00000000000E+000,  0.10000000000E+001
  0.96658600000E+005,  0.11793743647E+007,  0.16500000000E+002,  0.00000000000E+000,  0.10000000000E+001
  0.96668600000E+005,  0.11802480312E+007,  0.16500000000E+002,  0.00000000000E+000,  0.10000000000E+001
  0.96678600000E+005,  0.11811203240E+007,  0.16500000000E+002,  0.00000000000E+000,  0.10000000000E+001
  0.96688600000E+005,  0.11819912477E+007,  0.16500000000E+002,  0.00000000000E+000,  0.10000000000E+001
