"           TIME(S)","              PRES","              TEMP","             SAT_G","             SAT_L"
  0.94934000000E+005,  0.76845562599E+006,  0.16500000000E+002,  0.00000000000E+000,  0.10000000000E+001
  0.94939000000E+005,  0.76845560848E+006,  0.16500000000E+002,  0.00000000000E+000,  0.10000000000E+001
  0.94964000000E+005,  0.76845558115E+006,  0.16500000000E+002,  0.00000000000E+000,  0.10000000000E+001
  0.94994000000E+005,  0.76845580963E+006,  0.16500000000E+002,  0.00000000000E+000,  0.10000000000E+001
  0.95024000000E+005,  0.76845672635E+006,  0.16500000000E+002,  0.00000000000E+000,  0.10000000000E+001
  0.95054000000E+005,  0.76845911335E+006,  0.16500000000E+002,  0.00000000000E+000,  0.10000000000E+001
  0.95084000000E+005,  0.76846423189E+006,  0.16500000000E+002,  0.00000000000E+000,  0.10000000000E+001
  0.95114000000E+005,  0.76847373627E+006,  0.16500000000E+002,  0.00000000000E+000,  0.10000000000E+001
  0.95144000000E+005,  0.76848959335E+006,  0.16500000000E+002,  0.00000000000E+000,  0.10000000000E+001
  0.95174000000E+005,  0.76851398478E+006,  0.16500000000E+002,  0.00000000000E+000,  0.10000000000E+001
  0.95204000000E+005,  0.76854920054E+006,  0.16500000000E+002,  0.00000000000E+000,  0.10000000000E+001
  0.95234000000E+005,  0.76859753799E+006,  0.16500000000E+002,  0.00000000000E+000,  0.10000000000E+001
  0.95264000000E+005,  0.76866121493E+006,  0.16500000000E+002,  0.00000000000E+000,  0.10000000000E+001
  0.95294000000E+005,  0.76874230044E+006,  0.16500000000E+002,  0.00000000000E+000,  0.10000000000E+001
  0.95324000000E+005,  0.76884266434E+006,  0.16500000000E+002,  0.00000000000E+000,  0.10000000000E+001
  0.95354000000E+005,  0.76896394397E+006,  0.16500000000E+002,  0.00000000000E+000,  0.10000000000E+001
  0.95384000000E+005,  0.76910752606E+006,  0.16500000000E+002,  0.00000000000E+000,  0.10000000000E+001
  0.95414000000E+005,  0.76927454095E+006,  0.16500000000E+002,  0.00000000000E+000,  0.10000000000E+001
  0.95444000000E+005,  0.76946586658E+006,  0.16500000000E+002,  0.00000000000E+000,  0.10000000000E+001
  0.95474000000E+005,  0.76968213952E+006,  0.16500000000E+002,  0.00000000000E+000,  0.10000000000E+001
  0.95504000000E+005,  0.76992377110E+006,  0.16500000000E+002,  0.00000000000E+000,  0.10000000000E+001
  0.95534000000E+005,  0.77019096659E+006,  0.16500000000E+002,  0.00000000000E+000,  0.10000000000E+001
  0.95564000000E+005,  0.77048374611E+006,  0.16500000000E+002,  0.00000000000E+000,  0.10000000000E+001
  0.95594000000E+005,  0.77080196618E+006,  0.16500000000E+002,  0.00000000000E+000,  0.10000000000E+001
  0.95624000000E+005,  0.77114534084E+006,  0.16500000000E+002,  0.00000000000E+000,  0.10000000000E+001
  0.95654000000E+005,  0.77151346210E+006,  0.16500000000E+002,  0.00000000000E+000,  0.10000000000E+001
  0.95684000000E+005,  0.77190581902E+006,  0.16500000000E+002,  0.00000000000E+000,  0.10000000000E+001
  0.95714000000E+005,  0.77232181536E+006,  0.16500000000E+002,  0.00000000000E+000,  0.10000000000E+001
  0.95744000000E+005,  0.77276078555E+006,  0.16500000000E+002,  0.00000000000E+000,  0.10000000000E+001
  0.95774000000E+005,  0.77322200912E+006,  0.16500000000E+002,  0.00000000000E+000,  0.10000000000E+001
  0.95804000000E+005,  0.77370472336E+006,  0.16500000000E+002,  0.00000000000E+000,  0.10000000000E+001
  0.95834000000E+005,  0.77420813459E+006,  0.16500000000E+002,  0.00000000000E+000,  0.10000000000E+001
  0.95864000000E+005,  0.77473142786E+006,  0.16500000000E+002,  0.00000000000E+000,  0.10000000000E+001
  0.95894000000E+005,  0.77527377532E+006,  0.16500000000E+002,  0.00000000000E+000,  0.10000000000E+001
  0.95924000000E+005,  0.77583434342E+006,  0.16500000000E+002,  0.00000000000E+000,  0.10000000000E+001
  0.95954000000E+005,  0.77641229899E+006,  0.16500000000E+002,  0.00000000000E+000,  0.10000000000E+001
  0.95984000000E+005,  0.77700681430E+006,  0.16500000000E+002,  0.00000000000E+000,  0.10000000000E+001
  0.96014000000E+005,  0.77761707108E+006,  0.16500000000E+002,  0.00000000000E+000,  0.10000000000E+001
  0.96044000000E+005,  0.77824226307E+006,  0.16500000000E+002,  0.00000000000E+000,  0.10000000000E+001
  0.96074000000E+005,  0.77888159726E+006,  0.16500000000E+002,  0.00000000000E+000,  0.10000000000E+001
  0.96104000000E+005,  0.77953429434E+006,  0.16500000000E+002,  0.00000000000E+000,  0.10000000000E+001
  0.96134000000E+005,  0.78019958911E+006,  0.16500000000E+002,  0.00000000000E+000,  0.10000000000E+001
  0.96164000000E+005,  0.78087673134E+006,  0.16500000000E+002,  0.00000000000E+000,  0.10000000000E+001
  0.96194000000E+005,  0.78156498706E+006,  0.16500000000E+002,  0.00000000000E+000,  0.10000000000E+001
  0.96224000000E+005,  0.78226364035E+006,  0.16500000000E+002,  0.00000000000E+000,  0.10000000000E+001
  0.96254000000E+005,  0.78297199515E+006,  0.16500000000E+002,  0.00000000000E+000,  0.10000000000E+001
  0.96284000000E+005,  0.78368937705E+006,  0.16500000000E+002,  0.00000000000E+000,  0.10000000000E+001
  0.96314000000E+005,  0.78441513488E+006,  0.16500000000E+002,  0.00000000000E+000,  0.10000000000E+001
  0.96344000000E+005,  0.78514864186E+006,  0.16500000000E+002,  0.00000000000E+000,  0.10000000000E+001
  0.96374000000E+005,  0.78588929646E+006,  0.16500000000E+002,  0.00000000000E+000,  0.10000000000E+001
  0.96404000000E+005,  0.78663652285E+006,  0.16500000000E+002,  0.00000000000E+000,  0.10000000000E+001
  0.96434000000E+005,  0.78738977097E+006,  0.16500000000E+002,  0.00000000000E+000,  0.10000000000E+001
  0.96464000000E+005,  0.78814851635E+006,  0.16500000000E+002,  0.00000000000E+000,  0.10000000000E+001
  0.96494000000E+005,  0.78891225968E+006,  0.16500000000E+002,  0.00000000000E+000,  0.10000000000E+001
  0.96524000000E+005,  0.78968052617E+006,  0.16500000000E+002,  0.00000000000E+000,  0.10000000000E+001
  0.96554000000E+005,  0.79045286477E+006,  0.16500000000E+002,  0.00000000000E+000,  0.10000000000E+001
  0.96584000000E+005,  0.79122884729E+006,  0.16500000000E+002,  0.00000000000E+000,  0.10000000000E+001
  0.96614000000E+005,  0.79200806748E+006,  0.16500000000E+002,  0.00000000000E+000,  0.10000000000E+001
  0.96644000000E+005,  0.79279014006E+006,  0.16500000000E+002,  0.00000000000E+000,  0.10000000000E+001
  0.96674000000E+005,  0.79357469973E+006,  0.16500000000E+002,  0.00000000000E+000,  0.10000000000E+001
  0.96704000000E+005,  0.79436140019E+006,  0.16500000000E+002,  0.00000000000E+000,  0.10000000000E+001
  0.96734000000E+005,  0.79514991320E+006,  0.16500000000E+002,  0.00000000000E+000,  0.10000000000E+001
  0.96764000000E+005,  0.79593992768E+006,  0.16500000000E+002,  0.00000000000E+000,  0.10000000000E+001
  0.96794000000E+005,  0.79673114877E+006,  0.16500000000E+002,  0.00000000000E+000,  0.10000000000E+001
  0.96824000000E+005,  0.79752329705E+006,  0.16500000000E+002,  0.00000000000E+000,  0.10000000000E+001
  0.96854000000E+005,  0.79831610767E+006,  0.16500000000E+002,  0.00000000000E+000,  0.10000000000E+001
  0.96884000000E+005,  0.79910932966E+006,  0.16500000000E+002,  0.00000000000E+000,  0.10000000000E+001
  0.96914000000E+005,  0.79990272515E+006,  0.16500000000E+002,  0.00000000000E+000,  0.10000000000E+001
  0.96944000000E+005,  0.80069606874E+006,  0.16500000000E+002,  0.00000000000E+000,  0.10000000000E+001
  0.96974000000E+005,  0.80148914681E+006,  0.16500000000E+002,  0.00000000000E+000,  0.10000000000E+001
  0.97004000000E+005,  0.80228175698E+006,  0.16500000000E+002,  0.00000000000E+000,  0.10000000000E+001
  0.97034000000E+005,  0.80307370750E+006,  0.16500000000E+002,  0.00000000000E+000,  0.10000000000E+001
  0.97064000000E+005,  0.80386481674E+006,  0.16500000000E+002,  0.00000000000E+000,  0.10000000000E+001
  0.97094000000E+005,  0.80465491267E+006,  0.16500000000E+002,  0.00000000000E+000,  0.10000000000E+001
  0.97124000000E+005,  0.80544383243E+006,  0.16500000000E+002,  0.00000000000E+000,  0.10000000000E+001
  0.97154000000E+005,  0.80623142181E+006,  0.16500000000E+002,  0.00000000000E+000,  0.10000000000E+001
  0.97184000000E+005,  0.80701753493E+006,  0.16500000000E+002,  0.00000000000E+000,  0.10000000000E+001
  0.97214000000E+005,  0.80780203375E+006,  0.16500000000E+002,  0.00000000000E+000,  0.10000000000E+001
  0.97244000000E+005,  0.80858478776E+006,  0.16500000000E+002,  0.00000000000E+000,  0.10000000000E+001
  0.97274000000E+005,  0.80936567359E+006,  0.16500000000E+002,  0.00000000000E+000,  0.10000000000E+001
  0.97304000000E+005,  0.81014457472E+006,  0.16500000000E+002,  0.00000000000E+000,  0.10000000000E+001
  0.97334000000E+005,  0.81092138109E+006,  0.16500000000E+002,  0.00000000000E+000,  0.10000000000E+001
  0.97364000000E+005,  0.81169598887E+006,  0.16500000000E+002,  0.00000000000E+000,  0.10000000000E+001
  0.97394000000E+005,  0.81246830014E+006,  0.16500000000E+002,  0.00000000000E+000,  0.10000000000E+001
  0.97424000000E+005,  0.81323822262E+006,  0.16500000000E+002,  0.00000000000E+000,  0.10000000000E+001
  0.97454000000E+005,  0.81400566944E+006,  0.16500000000E+002,  0.00000000000E+000,  0.10000000000E+001
  0.97484000000E+005,  0.81477055884E+006,  0.16500000000E+002,  0.00000000000E+000,  0.10000000000E+001
  0.97514000000E+005,  0.81553281400E+006,  0.16500000000E+002,  0.00000000000E+000,  0.10000000000E+001
  0.97544000000E+005,  0.81629236278E+006,  0.16500000000E+002,  0.00000000000E+000,  0.10000000000E+001
  0.97574000000E+005,  0.81704913751E+006,  0.16500000000E+002,  0.00000000000E+000,  0.10000000000E+001
  0.97604000000E+005,  0.81780307480E+006,  0.16500000000E+002,  0.00000000000E+000,  0.10000000000E+001
  0.97634000000E+005,  0.81855411536E+006,  0.16500000000E+002,  0.00000000000E+000,  0.10000000000E+001
  0.97664000000E+005,  0.81930220377E+006,  0.16500000000E+002,  0.00000000000E+000,  0.10000000000E+001
  0.97694000000E+005,  0.82004728836E+006,  0.16500000000E+002,  0.00000000000E+000,  0.10000000000E+001
  0.97724000000E+005,  0.82078932102E+006,  0.16500000000E+002,  0.00000000000E+000,  0.10000000000E+001
  0.97754000000E+005,  0.82152825701E+006,  0.16500000000E+002,  0.00000000000E+000,  0.10000000000E+001
  0.97784000000E+005,  0.82226405488E+006,  0.16500000000E+002,  0.00000000000E+000,  0.10000000000E+001
  0.97814000000E+005,  0.82299667624E+006,  0.16500000000E+002,  0.00000000000E+000,  0.10000000000E+001
  0.97844000000E+005,  0.82372608569E+006,  0.16500000000E+002,  0.00000000000E+000,  0.10000000000E+001
  0.97874000000E+005,  0.82445225064E+006,  0.16500000000E+002,  0.00000000000E+000,  0.10000000000E+001
  0.97904000000E+005,  0.82517514120E+006,  0.16500000000E+002,  0.00000000000E+000,  0.10000000000E+001
  0.97934000000E+005,  0.82589473006E+006,  0.16500000000E+002,  0.00000000000E+000,  0.10000000000E+001
  0.97964000000E+005,  0.82661099239E+006,  0.16500000000E+002,  0.00000000000E+000,  0.10000000000E+001
  0.97994000000E+005,  0.82732390568E+006,  0.16500000000E+002,  0.00000000000E+000,  0.10000000000E+001
  0.98024000000E+005,  0.82803344968E+006,  0.16500000000E+002,  0.00000000000E+000,  0.10000000000E+001
  0.98054000000E+005,  0.82873960627E+006,  0.16500000000E+002,  0.00000000000E+000,  0.10000000000E+001
  0.98084000000E+005,  0.82944235938E+006,  0.16500000000E+002,  0.00000000000E+000,  0.10000000000E+001
  0.98114000000E+005,  0.83014169487E+006,  0.16500000000E+002,  0.00000000000E+000,  0.10000000000E+001
  0.98144000000E+005,  0.83083760049E+006,  0.16500000000E+002,  0.00000000000E+000,  0.10000000000E+001
  0.98174000000E+005,  0.83153006573E+006,  0.16500000000E+002,  0.00000000000E+000,  0.10000000000E+001
  0.98204000000E+005,  0.83221908177E+006,  0.16500000000E+002,  0.00000000000E+000,  0.10000000000E+001
  0.98234000000E+005,  0.83290464142E+006,  0.16500000000E+002,  0.00000000000E+000,  0.10000000000E+001
  0.98264000000E+005,  0.83358673901E+006,  0.16500000000E+002,  0.00000000000E+000,  0.10000000000E+001
  0.98294000000E+005,  0.83426537032E+006,  0.16500000000E+002,  0.00000000000E+000,  0.10000000000E+001
  0.98324000000E+005,  0.83494053254E+006,  0.16500000000E+002,  0.00000000000E+000,  0.10000000000E+001
  0.98354000000E+005,  0.83561222417E+006,  0.16500000000E+002,  0.00000000000E+000,  0.10000000000E+001
  0.98384000000E+005,  0.83628044498E+006,  0.16500000000E+002,  0.00000000000E+000,  0.10000000000E+001
  0.98414000000E+005,  0.83694519594E+006,  0.16500000000E+002,  0.00000000000E+000,  0.10000000000E+001
  0.98444000000E+005,  0.83760647914E+006,  0.16500000000E+002,  0.00000000000E+000,  0.10000000000E+001
  0.98474000000E+005,  0.83826429778E+006,  0.16500000000E+002,  0.00000000000E+000,  0.10000000000E+001
  0.98504000000E+005,  0.83891865607E+006,  0.16500000000E+002,  0.00000000000E+000,  0.10000000000E+001
  0.98534000000E+005,  0.83956955921E+006,  0.16500000000E+002,  0.00000000000E+000,  0.10000000000E+001
  0.98564000000E+005,  0.84021701332E+006,  0.16500000000E+002,  0.00000000000E+000,  0.10000000000E+001
  0.98594000000E+005,  0.84086102540E+006,  0.16500000000E+002,  0.00000000000E+000,  0.10000000000E+001
  0.98624000000E+005,  0.84150160330E+006,  0.16500000000E+002,  0.00000000000E+000,  0.10000000000E+001
  0.98654000000E+005,  0.84213875564E+006,  0.16500000000E+002,  0.00000000000E+000,  0.10000000000E+001
  0.98684000000E+005,  0.84277249181E+006,  0.16500000000E+002,  0.00000000000E+000,  0.10000000000E+001
  0.98714000000E+005,  0.84340282190E+006,  0.16500000000E+002,  0.00000000000E+000,  0.10000000000E+001
  0.98744000000E+005,  0.84402975666E+006,  0.16500000000E+002,  0.00000000000E+000,  0.10000000000E+001
  0.98774000000E+005,  0.84465330751E+006,  0.16500000000E+002,  0.00000000000E+000,  0.10000000000E+001
  0.98804000000E+005,  0.84527348643E+006,  0.16500000000E+002,  0.00000000000E+000,  0.10000000000E+001
  0.98834000000E+005,  0.84589030599E+006,  0.16500000000E+002,  0.00000000000E+000,  0.10000000000E+001
  0.98864000000E+005,  0.84650377928E+006,  0.16500000000E+002,  0.00000000000E+000,  0.10000000000E+001
  0.98894000000E+005,  0.84711391991E+006,  0.16500000000E+002,  0.00000000000E+000,  0.10000000000E+001
  0.98924000000E+005,  0.84772074193E+006,  0.16500000000E+002,  0.00000000000E+000,  0.10000000000E+001
  0.98954000000E+005,  0.84832425988E+006,  0.16500000000E+002,  0.00000000000E+000,  0.10000000000E+001
  0.98984000000E+005,  0.84892448867E+006,  0.16500000000E+002,  0.00000000000E+000,  0.10000000000E+001
  0.99014000000E+005,  0.84952144364E+006,  0.16500000000E+002,  0.00000000000E+000,  0.10000000000E+001
  0.99044000000E+005,  0.85011514047E+006,  0.16500000000E+002,  0.00000000000E+000,  0.10000000000E+001
  0.99074000000E+005,  0.85070559519E+006,  0.16500000000E+002,  0.00000000000E+000,  0.10000000000E+001
  0.99104000000E+005,  0.85129282416E+006,  0.16500000000E+002,  0.00000000000E+000,  0.10000000000E+001
  0.99134000000E+005,  0.85187684403E+006,  0.16500000000E+002,  0.00000000000E+000,  0.10000000000E+001
  0.99164000000E+005,  0.85245767172E+006,  0.16500000000E+002,  0.00000000000E+000,  0.10000000000E+001
  0.99194000000E+005,  0.85303532440E+006,  0.16500000000E+002,  0.00000000000E+000,  0.10000000000E+001
  0.99224000000E+005,  0.85360981951E+006,  0.16500000000E+002,  0.00000000000E+000,  0.10000000000E+001
  0.99254000000E+005,  0.85418117468E+006,  0.16500000000E+002,  0.00000000000E+000,  0.10000000000E+001
  0.99284000000E+005,  0.85474940775E+006,  0.16500000000E+002,  0.00000000000E+000,  0.10000000000E+001
  0.99314000000E+005,  0.85531453675E+006,  0.16500000000E+002,  0.00000000000E+000,  0.10000000000E+001
  0.99344000000E+005,  0.85587657986E+006,  0.16500000000E+002,  0.00000000000E+000,  0.10000000000E+001
  0.99374000000E+005,  0.85643555543E+006,  0.16500000000E+002,  0.00000000000E+000,  0.10000000000E+001
  0.99404000000E+005,  0.85699148196E+006,  0.16500000000E+002,  0.00000000000E+000,  0.10000000000E+001
  0.99434000000E+005,  0.85754437804E+006,  0.16500000000E+002,  0.00000000000E+000,  0.10000000000E+001
  0.99464000000E+005,  0.85809426241E+006,  0.16500000000E+002,  0.00000000000E+000,  0.10000000000E+001
  0.99494000000E+005,  0.85864115387E+006,  0.16500000000E+002,  0.00000000000E+000,  0.10000000000E+001
  0.99524000000E+005,  0.85918507134E+006,  0.16500000000E+002,  0.00000000000E+000,  0.10000000000E+001
  0.99554000000E+005,  0.85972603381E+006,  0.16500000000E+002,  0.00000000000E+000,  0.10000000000E+001
  0.99584000000E+005,  0.86026406031E+006,  0.16500000000E+002,  0.00000000000E+000,  0.10000000000E+001
  0.99614000000E+005,  0.86079916994E+006,  0.16500000000E+002,  0.00000000000E+000,  0.10000000000E+001
  0.99644000000E+005,  0.86133138184E+006,  0.16500000000E+002,  0.00000000000E+000,  0.10000000000E+001
  0.99674000000E+005,  0.86186071520E+006,  0.16500000000E+002,  0.00000000000E+000,  0.10000000000E+001
  0.99704000000E+005,  0.86238718921E+006,  0.16500000000E+002,  0.00000000000E+000,  0.10000000000E+001
  0.99734000000E+005,  0.86291082308E+006,  0.16500000000E+002,  0.00000000000E+000,  0.10000000000E+001
  0.99764000000E+005,  0.86343163604E+006,  0.16500000000E+002,  0.00000000000E+000,  0.10000000000E+001
  0.99794000000E+005,  0.86394964731E+006,  0.16500000000E+002,  0.00000000000E+000,  0.10000000000E+001
  0.99824000000E+005,  0.86446487610E+006,  0.16500000000E+002,  0.00000000000E+000,  0.10000000000E+001
  0.99854000000E+005,  0.86497734004E+006,  0.16500000000E+002,  0.00000000000E+000,  0.10000000000E+001
  0.99884000000E+005,  0.86548705012E+006,  0.16500000000E+002,  0.00000000000E+000,  0.10000000000E+001
  0.99914000000E+005,  0.86599400259E+006,  0.16500000000E+002,  0.00000000000E+000,  0.10000000000E+001
  0.99944000000E+005,  0.86649817063E+006,  0.16500000000E+002,  0.00000000000E+000,  0.10000000000E+001
  0.99974000000E+005,  0.86699949912E+006,  0.16500000000E+002,  0.00000000000E+000,  0.10000000000E+001
  0.10000400000E+006,  0.86749790387E+006,  0.16500000000E+002,  0.00000000000E+000,  0.10000000000E+001
  0.10003400000E+006,  0.86799327550E+006,  0.16500000000E+002,  0.00000000000E+000,  0.10000000000E+001
  0.10006400000E+006,  0.86848548629E+006,  0.16500000000E+002,  0.00000000000E+000,  0.10000000000E+001
  0.10009400000E+006,  0.86897439848E+006,  0.16500000000E+002,  0.00000000000E+000,  0.10000000000E+001
  0.10012400000E+006,  0.86945987262E+006,  0.16500000000E+002,  0.00000000000E+000,  0.10000000000E+001
  0.10015400000E+006,  0.86994177482E+006,  0.16500000000E+002,  0.00000000000E+000,  0.10000000000E+001
  0.10018400000E+006,  0.87041998256E+006,  0.16500000000E+002,  0.00000000000E+000,  0.10000000000E+001
  0.10021400000E+006,  0.87089438880E+006,  0.16500000000E+002,  0.00000000000E+000,  0.10000000000E+001
  0.10024400000E+006,  0.87136490451E+006,  0.16500000000E+002,  0.00000000000E+000,  0.10000000000E+001
  0.10027400000E+006,  0.87183145985E+006,  0.16500000000E+002,  0.00000000000E+000,  0.10000000000E+001
  0.10030400000E+006,  0.87229400432E+006,  0.16500000000E+002,  0.00000000000E+000,  0.10000000000E+001
  0.10033400000E+006,  0.87275250588E+006,  0.16500000000E+002,  0.00000000000E+000,  0.10000000000E+001
  0.10036400000E+006,  0.87320694975E+006,  0.16500000000E+002,  0.00000000000E+000,  0.10000000000E+001
  0.10039400000E+006,  0.87365733668E+006,  0.16500000000E+002,  0.00000000000E+000,  0.10000000000E+001
  0.10042400000E+006,  0.87410368113E+006,  0.16500000000E+002,  0.00000000000E+000,  0.10000000000E+001
  0.10045400000E+006,  0.87454600942E+006,  0.16500000000E+002,  0.00000000000E+000,  0.10000000000E+001
  0.10048400000E+006,  0.87498435791E+006,  0.16500000000E+002,  0.00000000000E+000,  0.10000000000E+001
  0.10051400000E+006,  0.87541877136E+006,  0.16500000000E+002,  0.00000000000E+000,  0.10000000000E+001
  0.10054400000E+006,  0.87584930137E+006,  0.16500000000E+002,  0.00000000000E+000,  0.10000000000E+001
