"           TIME(S)","              PRES","              TEMP","             SAT_G","             SAT_L"
  0.32486000000E+005,  0.17497288956E+006,  0.16500000000E+002,  0.00000000000E+000,  0.10000000000E+001
  0.32491000000E+005,  0.17497552741E+006,  0.16500000000E+002,  0.00000000000E+000,  0.10000000000E+001
  0.32516000000E+005,  0.17498870653E+006,  0.16500000000E+002,  0.00000000000E+000,  0.10000000000E+001
  0.32576000000E+005,  0.17502199193E+006,  0.16500000000E+002,  0.00000000000E+000,  0.10000000000E+001
  0.32636000000E+005,  0.17506393281E+006,  0.16500000000E+002,  0.00000000000E+000,  0.10000000000E+001
  0.32696000000E+005,  0.17513116901E+006,  0.16500000000E+002,  0.00000000000E+000,  0.10000000000E+001
  0.32756000000E+005,  0.17525320754E+006,  0.16500000000E+002,  0.00000000000E+000,  0.10000000000E+001
  0.32816000000E+005,  0.17547326585E+006,  0.16500000000E+002,  0.00000000000E+000,  0.10000000000E+001
  0.32876000000E+005,  0.17584654322E+006,  0.16500000000E+002,  0.00000000000E+000,  0.10000000000E+001
  0.32936000000E+005,  0.17643656722E+006,  0.16500000000E+002,  0.00000000000E+000,  0.10000000000E+001
  0.32996000000E+005,  0.17731061114E+006,  0.16500000000E+002,  0.00000000000E+000,  0.10000000000E+001
  0.33056000000E+005,  0.17853511935E+006,  0.16500000000E+002,  0.00000000000E+000,  0.10000000000E+001
  0.33116000000E+005,  0.18017180230E+006,  0.16500000000E+002,  0.00000000000E+000,  0.10000000000E+001
  0.33176000000E+005,  0.18227474303E+006,  0.16500000000E+002,  0.00000000000E+000,  0.10000000000E+001
  0.33236000000E+005,  0.18488859049E+006,  0.16500000000E+002,  0.00000000000E+000,  0.10000000000E+001
  0.33296000000E+005,  0.18804773879E+006,  0.16500000000E+002,  0.00000000000E+000,  0.10000000000E+001
  0.33356000000E+005,  0.19177630108E+006,  0.16500000000E+002,  0.00000000000E+000,  0.10000000000E+001
  0.33416000000E+005,  0.19608866049E+006,  0.16500000000E+002,  0.00000000000E+000,  0.10000000000E+001
  0.33476000000E+005,  0.20099039425E+006,  0.16500000000E+002,  0.00000000000E+000,  0.10000000000E+001
  0.33536000000E+005,  0.20647940118E+006,  0.16500000000E+002,  0.00000000000E+000,  0.10000000000E+001
  0.33596000000E+005,  0.21254710315E+006,  0.16500000000E+002,  0.00000000000E+000,  0.10000000000E+001
  0.33656000000E+005,  0.21917962884E+006,  0.16500000000E+002,  0.00000000000E+000,  0.10000000000E+001
  0.33716000000E+005,  0.22635892117E+006,  0.16500000000E+002,  0.00000000000E+000,  0.10000000000E+001
  0.33776000000E+005,  0.23406373449E+006,  0.16500000000E+002,  0.00000000000E+000,  0.10000000000E+001
  0.33836000000E+005,  0.24227050640E+006,  0.16500000000E+002,  0.00000000000E+000,  0.10000000000E+001
  0.33896000000E+005,  0.25095410157E+006,  0.16500000000E+002,  0.00000000000E+000,  0.10000000000E+001
  0.33956000000E+005,  0.26008843304E+006,  0.16500000000E+002,  0.00000000000E+000,  0.10000000000E+001
  0.34016000000E+005,  0.26964697129E+006,  0.16500000000E+002,  0.00000000000E+000,  0.10000000000E+001
  0.34076000000E+005,  0.27960315355E+006,  0.16500000000E+002,  0.00000000000E+000,  0.10000000000E+001
  0.34136000000E+005,  0.28993070643E+006,  0.16500000000E+002,  0.00000000000E+000,  0.10000000000E+001
  0.34196000000E+005,  0.30060389484E+006,  0.16500000000E+002,  0.00000000000E+000,  0.10000000000E+001
  0.34256000000E+005,  0.31159770906E+006,  0.16500000000E+002,  0.00000000000E+000,  0.10000000000E+001
  0.34316000000E+005,  0.32288800072E+006,  0.16500000000E+002,  0.00000000000E+000,  0.10000000000E+001
  0.34376000000E+005,  0.33445157708E+006,  0.16500000000E+002,  0.00000000000E+000,  0.10000000000E+001
  0.34436000000E+005,  0.34626626161E+006,  0.16500000000E+002,  0.00000000000E+000,  0.10000000000E+001
  0.34496000000E+005,  0.35831092780E+006,  0.16500000000E+002,  0.00000000000E+000,  0.10000000000E+001
  0.34556000000E+005,  0.37056551190E+006,  0.16500000000E+002,  0.00000000000E+000,  0.10000000000E+001
  0.34616000000E+005,  0.38301100929E+006,  0.16500000000E+002,  0.00000000000E+000,  0.10000000000E+001
  0.34676000000E+005,  0.39562945836E+006,  0.16500000000E+002,  0.00000000000E+000,  0.10000000000E+001
  0.34736000000E+005,  0.40840391520E+006,  0.16500000000E+002,  0.00000000000E+000,  0.10000000000E+001
  0.34796000000E+005,  0.42131842144E+006,  0.16500000000E+002,  0.00000000000E+000,  0.10000000000E+001
  0.34856000000E+005,  0.43435796741E+006,  0.16500000000E+002,  0.00000000000E+000,  0.10000000000E+001
  0.34916000000E+005,  0.44750845234E+006,  0.16500000000E+002,  0.00000000000E+000,  0.10000000000E+001
  0.34976000000E+005,  0.46075664259E+006,  0.16500000000E+002,  0.00000000000E+000,  0.10000000000E+001
  0.35036000000E+005,  0.47409012918E+006,  0.16500000000E+002,  0.00000000000E+000,  0.10000000000E+001
  0.35096000000E+005,  0.48749728528E+006,  0.16500000000E+002,  0.00000000000E+000,  0.10000000000E+001
  0.35156000000E+005,  0.50096722414E+006,  0.16500000000E+002,  0.00000000000E+000,  0.10000000000E+001
  0.35216000000E+005,  0.51448975812E+006,  0.16500000000E+002,  0.00000000000E+000,  0.10000000000E+001
  0.35276000000E+005,  0.52805535883E+006,  0.16500000000E+002,  0.00000000000E+000,  0.10000000000E+001
  0.35336000000E+005,  0.54165511894E+006,  0.16500000000E+002,  0.00000000000E+000,  0.10000000000E+001
  0.35396000000E+005,  0.55528071543E+006,  0.16500000000E+002,  0.00000000000E+000,  0.10000000000E+001
  0.35456000000E+005,  0.56892437471E+006,  0.16500000000E+002,  0.00000000000E+000,  0.10000000000E+001
  0.35516000000E+005,  0.58257883937E+006,  0.16500000000E+002,  0.00000000000E+000,  0.10000000000E+001
  0.35576000000E+005,  0.59623733678E+006,  0.16500000000E+002,  0.00000000000E+000,  0.10000000000E+001
  0.35636000000E+005,  0.60989354938E+006,  0.16500000000E+002,  0.00000000000E+000,  0.10000000000E+001
  0.35696000000E+005,  0.62354158664E+006,  0.16500000000E+002,  0.00000000000E+000,  0.10000000000E+001
  0.35756000000E+005,  0.63717595869E+006,  0.16500000000E+002,  0.00000000000E+000,  0.10000000000E+001
  0.35816000000E+005,  0.65079155156E+006,  0.16500000000E+002,  0.00000000000E+000,  0.10000000000E+001
  0.35876000000E+005,  0.66438360386E+006,  0.16500000000E+002,  0.00000000000E+000,  0.10000000000E+001
  0.35936000000E+005,  0.67794768492E+006,  0.16500000000E+002,  0.00000000000E+000,  0.10000000000E+001
  0.35996000000E+005,  0.69147967433E+006,  0.16500000000E+002,  0.00000000000E+000,  0.10000000000E+001
  0.36056000000E+005,  0.70497570911E+006,  0.16500000000E+002,  0.00000000000E+000,  0.10000000000E+001
  0.36116000000E+005,  0.71843208886E+006,  0.16500000000E+002,  0.00000000000E+000,  0.10000000000E+001
  0.36176000000E+005,  0.73184516732E+006,  0.16500000000E+002,  0.00000000000E+000,  0.10000000000E+001
  0.36236000000E+005,  0.74521126974E+006,  0.16500000000E+002,  0.00000000000E+000,  0.10000000000E+001
  0.36296000000E+005,  0.75852666138E+006,  0.16500000000E+002,  0.00000000000E+000,  0.10000000000E+001
  0.36356000000E+005,  0.77178756982E+006,  0.16500000000E+002,  0.00000000000E+000,  0.10000000000E+001
  0.36416000000E+005,  0.78499024768E+006,  0.16500000000E+002,  0.00000000000E+000,  0.10000000000E+001
  0.36476000000E+005,  0.79813105478E+006,  0.16500000000E+002,  0.00000000000E+000,  0.10000000000E+001
  0.36536000000E+005,  0.81120654104E+006,  0.16500000000E+002,  0.00000000000E+000,  0.10000000000E+001
  0.36596000000E+005,  0.82421351651E+006,  0.16500000000E+002,  0.00000000000E+000,  0.10000000000E+001
  0.36656000000E+005,  0.83714910153E+006,  0.16500000000E+002,  0.00000000000E+000,  0.10000000000E+001
  0.36716000000E+005,  0.85001075537E+006,  0.16500000000E+002,  0.00000000000E+000,  0.10000000000E+001
  0.36776000000E+005,  0.86279628527E+006,  0.16500000000E+002,  0.00000000000E+000,  0.10000000000E+001
  0.36836000000E+005,  0.87550383968E+006,  0.16500000000E+002,  0.00000000000E+000,  0.10000000000E+001
  0.36896000000E+005,  0.88813188992E+006,  0.16500000000E+002,  0.00000000000E+000,  0.10000000000E+001
  0.36956000000E+005,  0.90067920448E+006,  0.16500000000E+002,  0.00000000000E+000,  0.10000000000E+001
  0.37016000000E+005,  0.91314481942E+006,  0.16500000000E+002,  0.00000000000E+000,  0.10000000000E+001
  0.37076000000E+005,  0.92552800734E+006,  0.16500000000E+002,  0.00000000000E+000,  0.10000000000E+001
  0.37136000000E+005,  0.93782824706E+006,  0.16500000000E+002,  0.00000000000E+000,  0.10000000000E+001
  0.37196000000E+005,  0.95004519503E+006,  0.16500000000E+002,  0.00000000000E+000,  0.10000000000E+001
  0.37256000000E+005,  0.96217865924E+006,  0.16500000000E+002,  0.00000000000E+000,  0.10000000000E+001
  0.37316000000E+005,  0.97422857598E+006,  0.16500000000E+002,  0.00000000000E+000,  0.10000000000E+001
  0.37376000000E+005,  0.98619498951E+006,  0.16500000000E+002,  0.00000000000E+000,  0.10000000000E+001
  0.37436000000E+005,  0.99807802832E+006,  0.16500000000E+002,  0.00000000000E+000,  0.10000000000E+001
  0.37496000000E+005,  0.10098778883E+007,  0.16500000000E+002,  0.00000000000E+000,  0.10000000000E+001
  0.37556000000E+005,  0.10215948585E+007,  0.16500000000E+002,  0.00000000000E+000,  0.10000000000E+001
  0.37616000000E+005,  0.10332293944E+007,  0.16500000000E+002,  0.00000000000E+000,  0.10000000000E+001
  0.37676000000E+005,  0.10447822067E+007,  0.16500000000E+002,  0.00000000000E+000,  0.10000000000E+001
  0.37736000000E+005,  0.10562543220E+007,  0.16500000000E+002,  0.00000000000E+000,  0.10000000000E+001
  0.37796000000E+005,  0.10676470914E+007,  0.16500000000E+002,  0.00000000000E+000,  0.10000000000E+001
  0.37856000000E+005,  0.10789621444E+007,  0.16500000000E+002,  0.00000000000E+000,  0.10000000000E+001
  0.37916000000E+005,  0.10902013046E+007,  0.16500000000E+002,  0.00000000000E+000,  0.10000000000E+001
  0.37976000000E+005,  0.11013664876E+007,  0.16500000000E+002,  0.00000000000E+000,  0.10000000000E+001
  0.38036000000E+005,  0.11124596020E+007,  0.16500000000E+002,  0.00000000000E+000,  0.10000000000E+001
  0.38096000000E+005,  0.11234824657E+007,  0.16500000000E+002,  0.00000000000E+000,  0.10000000000E+001
  0.38156000000E+005,  0.11344367441E+007,  0.16500000000E+002,  0.00000000000E+000,  0.10000000000E+001
  0.38216000000E+005,  0.11453239121E+007,  0.16500000000E+002,  0.00000000000E+000,  0.10000000000E+001
  0.38276000000E+005,  0.11561452366E+007,  0.16500000000E+002,  0.00000000000E+000,  0.10000000000E+001
  0.38336000000E+005,  0.11669017752E+007,  0.16500000000E+002,  0.00000000000E+000,  0.10000000000E+001
  0.38396000000E+005,  0.11775943879E+007,  0.16500000000E+002,  0.00000000000E+000,  0.10000000000E+001
  0.38456000000E+005,  0.11882237551E+007,  0.16500000000E+002,  0.00000000000E+000,  0.10000000000E+001
  0.38516000000E+005,  0.11987904014E+007,  0.16500000000E+002,  0.00000000000E+000,  0.10000000000E+001
  0.38576000000E+005,  0.12092947193E+007,  0.16500000000E+002,  0.00000000000E+000,  0.10000000000E+001
  0.38636000000E+005,  0.12197369940E+007,  0.16500000000E+002,  0.00000000000E+000,  0.10000000000E+001
  0.38696000000E+005,  0.12301174253E+007,  0.16500000000E+002,  0.00000000000E+000,  0.10000000000E+001
  0.38756000000E+005,  0.12404361487E+007,  0.16500000000E+002,  0.00000000000E+000,  0.10000000000E+001
  0.38816000000E+005,  0.12506932522E+007,  0.16500000000E+002,  0.00000000000E+000,  0.10000000000E+001
  0.38876000000E+005,  0.12608887922E+007,  0.16500000000E+002,  0.00000000000E+000,  0.10000000000E+001
  0.38936000000E+005,  0.12710228057E+007,  0.16500000000E+002,  0.00000000000E+000,  0.10000000000E+001
  0.38996000000E+005,  0.12810953206E+007,  0.16500000000E+002,  0.00000000000E+000,  0.10000000000E+001
  0.39056000000E+005,  0.12911063642E+007,  0.16500000000E+002,  0.00000000000E+000,  0.10000000000E+001
  0.39116000000E+005,  0.13010559692E+007,  0.16500000000E+002,  0.00000000000E+000,  0.10000000000E+001
  0.39176000000E+005,  0.13109441793E+007,  0.16500000000E+002,  0.00000000000E+000,  0.10000000000E+001
  0.39236000000E+005,  0.13207710522E+007,  0.16500000000E+002,  0.00000000000E+000,  0.10000000000E+001
  0.39296000000E+005,  0.13305366627E+007,  0.16500000000E+002,  0.00000000000E+000,  0.10000000000E+001
  0.39356000000E+005,  0.13402411044E+007,  0.16500000000E+002,  0.00000000000E+000,  0.10000000000E+001
  0.39416000000E+005,  0.13498844905E+007,  0.16500000000E+002,  0.00000000000E+000,  0.10000000000E+001
  0.39476000000E+005,  0.13594669548E+007,  0.16500000000E+002,  0.00000000000E+000,  0.10000000000E+001
  0.39536000000E+005,  0.13689886512E+007,  0.16500000000E+002,  0.00000000000E+000,  0.10000000000E+001
  0.39596000000E+005,  0.13784497542E+007,  0.16500000000E+002,  0.00000000000E+000,  0.10000000000E+001
  0.39656000000E+005,  0.13878504578E+007,  0.16500000000E+002,  0.00000000000E+000,  0.10000000000E+001
  0.39716000000E+005,  0.13971909751E+007,  0.16500000000E+002,  0.00000000000E+000,  0.10000000000E+001
  0.39776000000E+005,  0.14064715373E+007,  0.16500000000E+002,  0.00000000000E+000,  0.10000000000E+001
  0.39836000000E+005,  0.14156923931E+007,  0.16500000000E+002,  0.00000000000E+000,  0.10000000000E+001
  0.39896000000E+005,  0.14248538075E+007,  0.16500000000E+002,  0.00000000000E+000,  0.10000000000E+001
  0.39956000000E+005,  0.14339560610E+007,  0.16500000000E+002,  0.00000000000E+000,  0.10000000000E+001
  0.40016000000E+005,  0.14429994482E+007,  0.16500000000E+002,  0.00000000000E+000,  0.10000000000E+001
  0.40076000000E+005,  0.14519842772E+007,  0.16500000000E+002,  0.00000000000E+000,  0.10000000000E+001
  0.40136000000E+005,  0.14609108685E+007,  0.16500000000E+002,  0.00000000000E+000,  0.10000000000E+001
  0.40196000000E+005,  0.14697795540E+007,  0.16500000000E+002,  0.00000000000E+000,  0.10000000000E+001
  0.40256000000E+005,  0.14785906760E+007,  0.16500000000E+002,  0.00000000000E+000,  0.10000000000E+001
  0.40316000000E+005,  0.14873445865E+007,  0.16500000000E+002,  0.00000000000E+000,  0.10000000000E+001
  0.40376000000E+005,  0.14960416461E+007,  0.16500000000E+002,  0.00000000000E+000,  0.10000000000E+001
  0.40436000000E+005,  0.15046822235E+007,  0.16500000000E+002,  0.00000000000E+000,  0.10000000000E+001
  0.40496000000E+005,  0.15132666943E+007,  0.16500000000E+002,  0.00000000000E+000,  0.10000000000E+001
  0.40556000000E+005,  0.15217954408E+007,  0.16500000000E+002,  0.00000000000E+000,  0.10000000000E+001
  0.40616000000E+005,  0.15302688508E+007,  0.16500000000E+002,  0.00000000000E+000,  0.10000000000E+001
  0.40676000000E+005,  0.15386873171E+007,  0.16500000000E+002,  0.00000000000E+000,  0.10000000000E+001
  0.40736000000E+005,  0.15470512373E+007,  0.16500000000E+002,  0.00000000000E+000,  0.10000000000E+001
  0.40796000000E+005,  0.15553610127E+007,  0.16500000000E+002,  0.00000000000E+000,  0.10000000000E+001
  0.40856000000E+005,  0.15636170478E+007,  0.16500000000E+002,  0.00000000000E+000,  0.10000000000E+001
  0.40916000000E+005,  0.15718197503E+007,  0.16500000000E+002,  0.00000000000E+000,  0.10000000000E+001
  0.40976000000E+005,  0.15799695299E+007,  0.16500000000E+002,  0.00000000000E+000,  0.10000000000E+001
  0.41036000000E+005,  0.15880667985E+007,  0.16500000000E+002,  0.00000000000E+000,  0.10000000000E+001
  0.41096000000E+005,  0.15961119694E+007,  0.16500000000E+002,  0.00000000000E+000,  0.10000000000E+001
  0.41156000000E+005,  0.16041054572E+007,  0.16500000000E+002,  0.00000000000E+000,  0.10000000000E+001
  0.41216000000E+005,  0.16120476772E+007,  0.16500000000E+002,  0.00000000000E+000,  0.10000000000E+001
  0.41276000000E+005,  0.16199390452E+007,  0.16500000000E+002,  0.00000000000E+000,  0.10000000000E+001
  0.41336000000E+005,  0.16277799769E+007,  0.16500000000E+002,  0.00000000000E+000,  0.10000000000E+001
  0.41396000000E+005,  0.16355708883E+007,  0.16500000000E+002,  0.00000000000E+000,  0.10000000000E+001
  0.41456000000E+005,  0.16433121948E+007,  0.16500000000E+002,  0.00000000000E+000,  0.10000000000E+001
  0.41516000000E+005,  0.16510043110E+007,  0.16500000000E+002,  0.00000000000E+000,  0.10000000000E+001
  0.41576000000E+005,  0.16586476508E+007,  0.16500000000E+002,  0.00000000000E+000,  0.10000000000E+001
  0.41636000000E+005,  0.16662426270E+007,  0.16500000000E+002,  0.00000000000E+000,  0.10000000000E+001
  0.41696000000E+005,  0.16737896511E+007,  0.16500000000E+002,  0.00000000000E+000,  0.10000000000E+001
  0.41756000000E+005,  0.16812891330E+007,  0.16500000000E+002,  0.00000000000E+000,  0.10000000000E+001
  0.41816000000E+005,  0.16887414812E+007,  0.16500000000E+002,  0.00000000000E+000,  0.10000000000E+001
  0.41876000000E+005,  0.16961471022E+007,  0.16500000000E+002,  0.00000000000E+000,  0.10000000000E+001
  0.41936000000E+005,  0.17035064007E+007,  0.16500000000E+002,  0.00000000000E+000,  0.10000000000E+001
  0.41996000000E+005,  0.17108197793E+007,  0.16500000000E+002,  0.00000000000E+000,  0.10000000000E+001
  0.42056000000E+005,  0.17180876188E+007,  0.16500000000E+002,  0.00000000000E+000,  0.10000000000E+001
  0.42116000000E+005,  0.17253102344E+007,  0.16500000000E+002,  0.00000000000E+000,  0.10000000000E+001
  0.42176000000E+005,  0.17324878216E+007,  0.16500000000E+002,  0.00000000000E+000,  0.10000000000E+001
  0.42236000000E+005,  0.17396204188E+007,  0.16500000000E+002,  0.00000000000E+000,  0.10000000000E+001
  0.42296000000E+005,  0.17467078976E+007,  0.16500000000E+002,  0.00000000000E+000,  0.10000000000E+001
  0.42356000000E+005,  0.17537499847E+007,  0.16500000000E+002,  0.00000000000E+000,  0.10000000000E+001
  0.42416000000E+005,  0.17607463051E+007,  0.16500000000E+002,  0.00000000000E+000,  0.10000000000E+001
  0.42476000000E+005,  0.17676964370E+007,  0.16500000000E+002,  0.00000000000E+000,  0.10000000000E+001
  0.42536000000E+005,  0.17745999652E+007,  0.16500000000E+002,  0.00000000000E+000,  0.10000000000E+001
  0.42596000000E+005,  0.17814565271E+007,  0.16500000000E+002,  0.00000000000E+000,  0.10000000000E+001
  0.42656000000E+005,  0.17882658458E+007,  0.16500000000E+002,  0.00000000000E+000,  0.10000000000E+001
  0.42716000000E+005,  0.17950277523E+007,  0.16500000000E+002,  0.00000000000E+000,  0.10000000000E+001
  0.42776000000E+005,  0.18017421948E+007,  0.16500000000E+002,  0.00000000000E+000,  0.10000000000E+001
  0.42836000000E+005,  0.18084092397E+007,  0.16500000000E+002,  0.00000000000E+000,  0.10000000000E+001
  0.42896000000E+005,  0.18150290655E+007,  0.16500000000E+002,  0.00000000000E+000,  0.10000000000E+001
  0.42956000000E+005,  0.18216019527E+007,  0.16500000000E+002,  0.00000000000E+000,  0.10000000000E+001
  0.43016000000E+005,  0.18281282707E+007,  0.16500000000E+002,  0.00000000000E+000,  0.10000000000E+001
  0.43076000000E+005,  0.18346084639E+007,  0.16500000000E+002,  0.00000000000E+000,  0.10000000000E+001
  0.43136000000E+005,  0.18410430382E+007,  0.16500000000E+002,  0.00000000000E+000,  0.10000000000E+001
  0.43196000000E+005,  0.18474325476E+007,  0.16500000000E+002,  0.00000000000E+000,  0.10000000000E+001
  0.43256000000E+005,  0.18537775824E+007,  0.16500000000E+002,  0.00000000000E+000,  0.10000000000E+001
  0.43316000000E+005,  0.18600787590E+007,  0.16500000000E+002,  0.00000000000E+000,  0.10000000000E+001
  0.43376000000E+005,  0.18663367105E+007,  0.16500000000E+002,  0.00000000000E+000,  0.10000000000E+001
  0.43436000000E+005,  0.18725520797E+007,  0.16500000000E+002,  0.00000000000E+000,  0.10000000000E+001
  0.43496000000E+005,  0.18787255125E+007,  0.16500000000E+002,  0.00000000000E+000,  0.10000000000E+001
  0.43556000000E+005,  0.18848576529E+007,  0.16500000000E+002,  0.00000000000E+000,  0.10000000000E+001
  0.43616000000E+005,  0.18909491391E+007,  0.16500000000E+002,  0.00000000000E+000,  0.10000000000E+001
  0.43676000000E+005,  0.18970006007E+007,  0.16500000000E+002,  0.00000000000E+000,  0.10000000000E+001
