"           TIME(S)","              PRES","              TEMP","             SAT_G","             SAT_L"
  0.94860000000E+005,  0.99606484381E+006,  0.16500000000E+002,  0.00000000000E+000,  0.10000000000E+001
  0.94870000000E+005,  0.99606484266E+006,  0.16500000000E+002,  0.00000000000E+000,  0.10000000000E+001
  0.94880000000E+005,  0.99606484274E+006,  0.16500000000E+002,  0.00000000000E+000,  0.10000000000E+001
  0.94890000000E+005,  0.17003224203E+007,  0.16500000000E+002,  0.00000000000E+000,  0.10000000000E+001
  0.94900000000E+005,  0.25159867336E+007,  0.16500000000E+002,  0.00000000000E+000,  0.10000000000E+001
  0.94910000000E+005,  0.33119279448E+007,  0.16500000000E+002,  0.00000000000E+000,  0.10000000000E+001
  0.94920000000E+005,  0.42089162808E+007,  0.16500000000E+002,  0.00000000000E+000,  0.10000000000E+001
  0.94930000000E+005,  0.53801918631E+007,  0.16500000000E+002,  0.00000000000E+000,  0.10000000000E+001
  0.94940000000E+005,  0.87190304213E+007,  0.16500000000E+002,  0.00000000000E+000,  0.10000000000E+001
  0.94950000000E+005,  0.12524522382E+008,  0.16500000000E+002,  0.00000000000E+000,  0.10000000000E+001
  0.94960000000E+005,  0.16388008732E+008,  0.16500000000E+002,  0.00000000000E+000,  0.10000000000E+001
  0.94970000000E+005,  0.20085998339E+008,  0.16500000000E+002,  0.00000000000E+000,  0.10000000000E+001
  0.94980000000E+005,  0.23702427619E+008,  0.16500000000E+002,  0.00000000000E+000,  0.10000000000E+001
  0.94990000000E+005,  0.27242755627E+008,  0.16500000000E+002,  0.00000000000E+000,  0.10000000000E+001
  0.95000000000E+005,  0.30790959618E+008,  0.16500000000E+002,  0.00000000000E+000,  0.10000000000E+001
  0.95010000000E+005,  0.34254387820E+008,  0.16500000000E+002,  0.00000000000E+000,  0.10000000000E+001
  0.95020000000E+005,  0.37651757335E+008,  0.16500000000E+002,  0.00000000000E+000,  0.10000000000E+001
  0.95030000000E+005,  0.40963374239E+008,  0.16500000000E+002,  0.00000000000E+000,  0.10000000000E+001
  0.95040000000E+005,  0.44174126597E+008,  0.16500000000E+002,  0.00000000000E+000,  0.10000000000E+001
  0.95050000000E+005,  0.47329210490E+008,  0.16500000000E+002,  0.00000000000E+000,  0.10000000000E+001
  0.95060000000E+005,  0.50430716453E+008,  0.16500000000E+002,  0.00000000000E+000,  0.10000000000E+001
  0.95070000000E+005,  0.53480610049E+008,  0.16500000000E+002,  0.00000000000E+000,  0.10000000000E+001
  0.95080000000E+005,  0.56480731213E+008,  0.16500000000E+002,  0.00000000000E+000,  0.10000000000E+001
  0.95090000000E+005,  0.59432802033E+008,  0.16500000000E+002,  0.00000000000E+000,  0.10000000000E+001
  0.95100000000E+005,  0.62338436556E+008,  0.16500000000E+002,  0.00000000000E+000,  0.10000000000E+001
  0.95110000000E+005,  0.65199150534E+008,  0.16500000000E+002,  0.00000000000E+000,  0.10000000000E+001
  0.95120000000E+005,  0.68016370426E+008,  0.16500000000E+002,  0.00000000000E+000,  0.10000000000E+001
  0.95128100000E+005,  0.70270029127E+008,  0.16500000000E+002,  0.00000000000E+000,  0.10000000000E+001
  0.95138100000E+005,  0.73011820978E+008,  0.16500000000E+002,  0.00000000000E+000,  0.10000000000E+001
  0.95148100000E+005,  0.75713718481E+008,  0.16500000000E+002,  0.00000000000E+000,  0.10000000000E+001
  0.95158100000E+005,  0.78376874329E+008,  0.16500000000E+002,  0.00000000000E+000,  0.10000000000E+001
  0.95168100000E+005,  0.81002383164E+008,  0.16500000000E+002,  0.00000000000E+000,  0.10000000000E+001
  0.95178100000E+005,  0.83591286152E+008,  0.16500000000E+002,  0.00000000000E+000,  0.10000000000E+001
  0.95188100000E+005,  0.86144575049E+008,  0.16500000000E+002,  0.00000000000E+000,  0.10000000000E+001
  0.95198100000E+005,  0.88663195832E+008,  0.16500000000E+002,  0.00000000000E+000,  0.10000000000E+001
  0.95208100000E+005,  0.91148051956E+008,  0.16500000000E+002,  0.00000000000E+000,  0.10000000000E+001
  0.95218100000E+005,  0.93600007292E+008,  0.16500000000E+002,  0.00000000000E+000,  0.10000000000E+001
  0.95228100000E+005,  0.96019888782E+008,  0.16500000000E+002,  0.00000000000E+000,  0.10000000000E+001
  0.95238100000E+005,  0.98408488848E+008,  0.16500000000E+002,  0.00000000000E+000,  0.10000000000E+001
  0.95239350000E+005,  0.98706319542E+008,  0.16500000000E+002,  0.00000000000E+000,  0.10000000000E+001
  0.95240131250E+005,  0.98892266065E+008,  0.16500000000E+002,  0.00000000000E+000,  0.10000000000E+001
  0.95244037500E+005,  0.99817598403E+008,  0.16500000000E+002,  0.00000000000E+000,  0.10000000000E+001
  0.95244193750E+005,  0.99854591010E+008,  0.16500000000E+002,  0.00000000000E+000,  0.10000000000E+001
  0.95244291406E+005,  0.99877708206E+008,  0.16500000000E+002,  0.00000000000E+000,  0.10000000000E+001
  0.95244352441E+005,  0.99892155254E+008,  0.16500000000E+002,  0.00000000000E+000,  0.10000000000E+001
  0.95244657617E+005,  0.99964364853E+008,  0.16500000000E+002,  0.00000000000E+000,  0.10000000000E+001
  0.95244681459E+005,  0.99970005797E+008,  0.16500000000E+002,  0.00000000000E+000,  0.10000000000E+001
  0.95244696360E+005,  0.99973531311E+008,  0.16500000000E+002,  0.00000000000E+000,  0.10000000000E+001
  0.95244705673E+005,  0.99975734728E+008,  0.16500000000E+002,  0.00000000000E+000,  0.10000000000E+001
  0.95244752240E+005,  0.99986751237E+008,  0.16500000000E+002,  0.00000000000E+000,  0.10000000000E+001
  0.95244755878E+005,  0.99987611890E+008,  0.16500000000E+002,  0.00000000000E+000,  0.10000000000E+001
  0.95244758151E+005,  0.99988149796E+008,  0.16500000000E+002,  0.00000000000E+000,  0.10000000000E+001
  0.95244759572E+005,  0.99988485987E+008,  0.16500000000E+002,  0.00000000000E+000,  0.10000000000E+001
  0.95244766678E+005,  0.99990166928E+008,  0.16500000000E+002,  0.00000000000E+000,  0.10000000000E+001
  0.95244767233E+005,  0.99990298251E+008,  0.16500000000E+002,  0.00000000000E+000,  0.10000000000E+001
  0.95244767580E+005,  0.99990380328E+008,  0.16500000000E+002,  0.00000000000E+000,  0.10000000000E+001
  0.95244767797E+005,  0.99990431626E+008,  0.16500000000E+002,  0.00000000000E+000,  0.10000000000E+001
  0.95244768881E+005,  0.99990688117E+008,  0.16500000000E+002,  0.00000000000E+000,  0.10000000000E+001
  0.95244768966E+005,  0.99990708155E+008,  0.16500000000E+002,  0.00000000000E+000,  0.10000000000E+001
  0.95244769019E+005,  0.99990708155E+008,  0.16500000000E+002,  0.00000000000E+000,  0.10000000000E+001
  0.95244769283E+005,  0.99990770775E+008,  0.16500000000E+002,  0.00000000000E+000,  0.10000000000E+001
  0.95244769304E+005,  0.99990770775E+008,  0.16500000000E+002,  0.00000000000E+000,  0.10000000000E+001
  0.95244769317E+005,  0.99990770775E+008,  0.16500000000E+002,  0.00000000000E+000,  0.10000000000E+001
  0.95244769381E+005,  0.99990770775E+008,  0.16500000000E+002,  0.00000000000E+000,  0.10000000000E+001
  0.95244769422E+005,  0.99990770775E+008,  0.16500000000E+002,  0.00000000000E+000,  0.10000000000E+001
