"           TIME(S)","              PRES","              TEMP","             SAT_G","             SAT_L"
  0.23620500000E+005,  0.90768160275E+006,  0.16500000000E+002,  0.00000000000E+000,  0.10000000000E+001
  0.23623000000E+005,  0.15519447006E+007,  0.16500000000E+002,  0.00000000000E+000,  0.10000000000E+001
  0.23628000000E+005,  0.26336083514E+007,  0.16500000000E+002,  0.00000000000E+000,  0.10000000000E+001
  0.23633000000E+005,  0.36064732135E+007,  0.16500000000E+002,  0.00000000000E+000,  0.10000000000E+001
  0.23638000000E+005,  0.45116235192E+007,  0.16500000000E+002,  0.00000000000E+000,  0.10000000000E+001
  0.23643000000E+005,  0.53118282078E+007,  0.16500000000E+002,  0.00000000000E+000,  0.10000000000E+001
  0.23648000000E+005,  0.49658193755E+007,  0.16500000000E+002,  0.00000000000E+000,  0.10000000000E+001
  0.23653000000E+005,  0.47463453883E+007,  0.16500000000E+002,  0.00000000000E+000,  0.10000000000E+001
  0.23658000000E+005,  0.45876913781E+007,  0.16500000000E+002,  0.00000000000E+000,  0.10000000000E+001
  0.23663000000E+005,  0.44618871332E+007,  0.16500000000E+002,  0.00000000000E+000,  0.10000000000E+001
  0.23668000000E+005,  0.43563073925E+007,  0.16500000000E+002,  0.00000000000E+000,  0.10000000000E+001
  0.23673000000E+005,  0.42643865968E+007,  0.16500000000E+002,  0.00000000000E+000,  0.10000000000E+001
  0.23678000000E+005,  0.41823292643E+007,  0.16500000000E+002,  0.00000000000E+000,  0.10000000000E+001
  0.23683000000E+005,  0.41077669169E+007,  0.16500000000E+002,  0.00000000000E+000,  0.10000000000E+001
  0.23688000000E+005,  0.40391302143E+007,  0.16500000000E+002,  0.00000000000E+000,  0.10000000000E+001
  0.23693000000E+005,  0.39753258311E+007,  0.16500000000E+002,  0.00000000000E+000,  0.10000000000E+001
  0.23698000000E+005,  0.39155589986E+007,  0.16500000000E+002,  0.00000000000E+000,  0.10000000000E+001
  0.23703000000E+005,  0.38592311194E+007,  0.16500000000E+002,  0.00000000000E+000,  0.10000000000E+001
  0.23708000000E+005,  0.38058780643E+007,  0.16500000000E+002,  0.00000000000E+000,  0.10000000000E+001
  0.23713000000E+005,  0.37551314015E+007,  0.16500000000E+002,  0.00000000000E+000,  0.10000000000E+001
  0.23718000000E+005,  0.37066930309E+007,  0.16500000000E+002,  0.00000000000E+000,  0.10000000000E+001
  0.23723000000E+005,  0.36603179442E+007,  0.16500000000E+002,  0.00000000000E+000,  0.10000000000E+001
  0.23728000000E+005,  0.36158021017E+007,  0.16500000000E+002,  0.00000000000E+000,  0.10000000000E+001
  0.23733000000E+005,  0.35729736504E+007,  0.16500000000E+002,  0.00000000000E+000,  0.10000000000E+001
  0.23738000000E+005,  0.35316864020E+007,  0.16500000000E+002,  0.00000000000E+000,  0.10000000000E+001
  0.23743000000E+005,  0.34918148888E+007,  0.16500000000E+002,  0.00000000000E+000,  0.10000000000E+001
  0.23748000000E+005,  0.34532505513E+007,  0.16500000000E+002,  0.00000000000E+000,  0.10000000000E+001
  0.23753000000E+005,  0.34158987580E+007,  0.16500000000E+002,  0.00000000000E+000,  0.10000000000E+001
  0.23758000000E+005,  0.33796764476E+007,  0.16500000000E+002,  0.00000000000E+000,  0.10000000000E+001
  0.23763000000E+005,  0.33445102451E+007,  0.16500000000E+002,  0.00000000000E+000,  0.10000000000E+001
  0.23768000000E+005,  0.33103349425E+007,  0.16500000000E+002,  0.00000000000E+000,  0.10000000000E+001
  0.23773000000E+005,  0.32770922653E+007,  0.16500000000E+002,  0.00000000000E+000,  0.10000000000E+001
  0.23778000000E+005,  0.32447298616E+007,  0.16500000000E+002,  0.00000000000E+000,  0.10000000000E+001
  0.23783000000E+005,  0.32132004706E+007,  0.16500000000E+002,  0.00000000000E+000,  0.10000000000E+001
  0.23788000000E+005,  0.31824612320E+007,  0.16500000000E+002,  0.00000000000E+000,  0.10000000000E+001
  0.23793000000E+005,  0.31524731103E+007,  0.16500000000E+002,  0.00000000000E+000,  0.10000000000E+001
  0.23798000000E+005,  0.31232004121E+007,  0.16500000000E+002,  0.00000000000E+000,  0.10000000000E+001
  0.23803000000E+005,  0.30946103782E+007,  0.16500000000E+002,  0.00000000000E+000,  0.10000000000E+001
  0.23808000000E+005,  0.30666728385E+007,  0.16500000000E+002,  0.00000000000E+000,  0.10000000000E+001
  0.23813000000E+005,  0.30393599174E+007,  0.16500000000E+002,  0.00000000000E+000,  0.10000000000E+001
  0.23818000000E+005,  0.30126457810E+007,  0.16500000000E+002,  0.00000000000E+000,  0.10000000000E+001
  0.23823000000E+005,  0.29865064209E+007,  0.16500000000E+002,  0.00000000000E+000,  0.10000000000E+001
  0.23828000000E+005,  0.29609194655E+007,  0.16500000000E+002,  0.00000000000E+000,  0.10000000000E+001
  0.23833000000E+005,  0.29358640179E+007,  0.16500000000E+002,  0.00000000000E+000,  0.10000000000E+001
  0.23838000000E+005,  0.29113205131E+007,  0.16500000000E+002,  0.00000000000E+000,  0.10000000000E+001
  0.23843000000E+005,  0.28872705940E+007,  0.16500000000E+002,  0.00000000000E+000,  0.10000000000E+001
  0.23848000000E+005,  0.28636970019E+007,  0.16500000000E+002,  0.00000000000E+000,  0.10000000000E+001
  0.23853000000E+005,  0.28405834798E+007,  0.16500000000E+002,  0.00000000000E+000,  0.10000000000E+001
  0.23858000000E+005,  0.28179146875E+007,  0.16500000000E+002,  0.00000000000E+000,  0.10000000000E+001
  0.23863000000E+005,  0.27956761251E+007,  0.16500000000E+002,  0.00000000000E+000,  0.10000000000E+001
  0.23868000000E+005,  0.27738540659E+007,  0.16500000000E+002,  0.00000000000E+000,  0.10000000000E+001
  0.23873000000E+005,  0.27524354956E+007,  0.16500000000E+002,  0.00000000000E+000,  0.10000000000E+001
  0.23878000000E+005,  0.27314080580E+007,  0.16500000000E+002,  0.00000000000E+000,  0.10000000000E+001
  0.23883000000E+005,  0.27107600064E+007,  0.16500000000E+002,  0.00000000000E+000,  0.10000000000E+001
  0.23888000000E+005,  0.26904801597E+007,  0.16500000000E+002,  0.00000000000E+000,  0.10000000000E+001
  0.23893000000E+005,  0.26705578621E+007,  0.16500000000E+002,  0.00000000000E+000,  0.10000000000E+001
  0.23898000000E+005,  0.26509829477E+007,  0.16500000000E+002,  0.00000000000E+000,  0.10000000000E+001
  0.23903000000E+005,  0.26317457068E+007,  0.16500000000E+002,  0.00000000000E+000,  0.10000000000E+001
  0.23908000000E+005,  0.26128368572E+007,  0.16500000000E+002,  0.00000000000E+000,  0.10000000000E+001
  0.23913000000E+005,  0.25942475157E+007,  0.16500000000E+002,  0.00000000000E+000,  0.10000000000E+001
  0.23918000000E+005,  0.25759691739E+007,  0.16500000000E+002,  0.00000000000E+000,  0.10000000000E+001
  0.23923000000E+005,  0.25579936752E+007,  0.16500000000E+002,  0.00000000000E+000,  0.10000000000E+001
  0.23928000000E+005,  0.25403131936E+007,  0.16500000000E+002,  0.00000000000E+000,  0.10000000000E+001
  0.23933000000E+005,  0.25229202144E+007,  0.16500000000E+002,  0.00000000000E+000,  0.10000000000E+001
  0.23938000000E+005,  0.25058075162E+007,  0.16500000000E+002,  0.00000000000E+000,  0.10000000000E+001
  0.23943000000E+005,  0.24889681549E+007,  0.16500000000E+002,  0.00000000000E+000,  0.10000000000E+001
  0.23948000000E+005,  0.24723954478E+007,  0.16500000000E+002,  0.00000000000E+000,  0.10000000000E+001
  0.23953000000E+005,  0.24560829599E+007,  0.16500000000E+002,  0.00000000000E+000,  0.10000000000E+001
  0.23958000000E+005,  0.24400244906E+007,  0.16500000000E+002,  0.00000000000E+000,  0.10000000000E+001
  0.23963000000E+005,  0.24242140616E+007,  0.16500000000E+002,  0.00000000000E+000,  0.10000000000E+001
  0.23968000000E+005,  0.24086459055E+007,  0.16500000000E+002,  0.00000000000E+000,  0.10000000000E+001
  0.23973000000E+005,  0.23933144550E+007,  0.16500000000E+002,  0.00000000000E+000,  0.10000000000E+001
  0.23978000000E+005,  0.23782143334E+007,  0.16500000000E+002,  0.00000000000E+000,  0.10000000000E+001
  0.23983000000E+005,  0.23633403450E+007,  0.16500000000E+002,  0.00000000000E+000,  0.10000000000E+001
  0.23988000000E+005,  0.23486874669E+007,  0.16500000000E+002,  0.00000000000E+000,  0.10000000000E+001
  0.23993000000E+005,  0.23342508402E+007,  0.16500000000E+002,  0.00000000000E+000,  0.10000000000E+001
  0.23998000000E+005,  0.23200257632E+007,  0.16500000000E+002,  0.00000000000E+000,  0.10000000000E+001
  0.24003000000E+005,  0.23060076838E+007,  0.16500000000E+002,  0.00000000000E+000,  0.10000000000E+001
  0.24008000000E+005,  0.22921921927E+007,  0.16500000000E+002,  0.00000000000E+000,  0.10000000000E+001
  0.24013000000E+005,  0.22785750174E+007,  0.16500000000E+002,  0.00000000000E+000,  0.10000000000E+001
  0.24018000000E+005,  0.22651520163E+007,  0.16500000000E+002,  0.00000000000E+000,  0.10000000000E+001
  0.24023000000E+005,  0.22519191728E+007,  0.16500000000E+002,  0.00000000000E+000,  0.10000000000E+001
  0.24028000000E+005,  0.22388725899E+007,  0.16500000000E+002,  0.00000000000E+000,  0.10000000000E+001
  0.24033000000E+005,  0.22260084860E+007,  0.16500000000E+002,  0.00000000000E+000,  0.10000000000E+001
  0.24038000000E+005,  0.22133231891E+007,  0.16500000000E+002,  0.00000000000E+000,  0.10000000000E+001
  0.24043000000E+005,  0.22008131333E+007,  0.16500000000E+002,  0.00000000000E+000,  0.10000000000E+001
  0.24048000000E+005,  0.21884748538E+007,  0.16500000000E+002,  0.00000000000E+000,  0.10000000000E+001
  0.24053000000E+005,  0.21763049836E+007,  0.16500000000E+002,  0.00000000000E+000,  0.10000000000E+001
  0.24058000000E+005,  0.21643002491E+007,  0.16500000000E+002,  0.00000000000E+000,  0.10000000000E+001
  0.24063000000E+005,  0.21524574667E+007,  0.16500000000E+002,  0.00000000000E+000,  0.10000000000E+001
  0.24068000000E+005,  0.21407735397E+007,  0.16500000000E+002,  0.00000000000E+000,  0.10000000000E+001
  0.24073000000E+005,  0.21292454545E+007,  0.16500000000E+002,  0.00000000000E+000,  0.10000000000E+001
  0.24078000000E+005,  0.21178702780E+007,  0.16500000000E+002,  0.00000000000E+000,  0.10000000000E+001
  0.24083000000E+005,  0.21066451542E+007,  0.16500000000E+002,  0.00000000000E+000,  0.10000000000E+001
  0.24088000000E+005,  0.20955673017E+007,  0.16500000000E+002,  0.00000000000E+000,  0.10000000000E+001
  0.24093000000E+005,  0.20846340112E+007,  0.16500000000E+002,  0.00000000000E+000,  0.10000000000E+001
  0.24098000000E+005,  0.20738426425E+007,  0.16500000000E+002,  0.00000000000E+000,  0.10000000000E+001
  0.24103000000E+005,  0.20631906222E+007,  0.16500000000E+002,  0.00000000000E+000,  0.10000000000E+001
  0.24108000000E+005,  0.20526754418E+007,  0.16500000000E+002,  0.00000000000E+000,  0.10000000000E+001
  0.24113000000E+005,  0.20422946549E+007,  0.16500000000E+002,  0.00000000000E+000,  0.10000000000E+001
  0.24118000000E+005,  0.20320458754E+007,  0.16500000000E+002,  0.00000000000E+000,  0.10000000000E+001
  0.24123000000E+005,  0.20219267754E+007,  0.16500000000E+002,  0.00000000000E+000,  0.10000000000E+001
  0.24128000000E+005,  0.20119350835E+007,  0.16500000000E+002,  0.00000000000E+000,  0.10000000000E+001
  0.24133000000E+005,  0.20020685826E+007,  0.16500000000E+002,  0.00000000000E+000,  0.10000000000E+001
  0.24138000000E+005,  0.19923251083E+007,  0.16500000000E+002,  0.00000000000E+000,  0.10000000000E+001
  0.24143000000E+005,  0.19827025471E+007,  0.16500000000E+002,  0.00000000000E+000,  0.10000000000E+001
  0.24148000000E+005,  0.19731988349E+007,  0.16500000000E+002,  0.00000000000E+000,  0.10000000000E+001
  0.24153000000E+005,  0.19638119557E+007,  0.16500000000E+002,  0.00000000000E+000,  0.10000000000E+001
  0.24158000000E+005,  0.19545399394E+007,  0.16500000000E+002,  0.00000000000E+000,  0.10000000000E+001
  0.24163000000E+005,  0.19453808609E+007,  0.16500000000E+002,  0.00000000000E+000,  0.10000000000E+001
  0.24168000000E+005,  0.19363328387E+007,  0.16500000000E+002,  0.00000000000E+000,  0.10000000000E+001
  0.24173000000E+005,  0.19273940335E+007,  0.16500000000E+002,  0.00000000000E+000,  0.10000000000E+001
  0.24178000000E+005,  0.19185626468E+007,  0.16500000000E+002,  0.00000000000E+000,  0.10000000000E+001
  0.24183000000E+005,  0.19098369198E+007,  0.16500000000E+002,  0.00000000000E+000,  0.10000000000E+001
  0.24188000000E+005,  0.19012151323E+007,  0.16500000000E+002,  0.00000000000E+000,  0.10000000000E+001
  0.24193000000E+005,  0.18926956014E+007,  0.16500000000E+002,  0.00000000000E+000,  0.10000000000E+001
  0.24198000000E+005,  0.18842766807E+007,  0.16500000000E+002,  0.00000000000E+000,  0.10000000000E+001
  0.24203000000E+005,  0.18759567588E+007,  0.16500000000E+002,  0.00000000000E+000,  0.10000000000E+001
  0.24208000000E+005,  0.18677342588E+007,  0.16500000000E+002,  0.00000000000E+000,  0.10000000000E+001
  0.24213000000E+005,  0.18596076369E+007,  0.16500000000E+002,  0.00000000000E+000,  0.10000000000E+001
  0.24218000000E+005,  0.18515753818E+007,  0.16500000000E+002,  0.00000000000E+000,  0.10000000000E+001
  0.24223000000E+005,  0.18436360136E+007,  0.16500000000E+002,  0.00000000000E+000,  0.10000000000E+001
  0.24228000000E+005,  0.18357880830E+007,  0.16500000000E+002,  0.00000000000E+000,  0.10000000000E+001
  0.24233000000E+005,  0.18280301704E+007,  0.16500000000E+002,  0.00000000000E+000,  0.10000000000E+001
  0.24238000000E+005,  0.18203608852E+007,  0.16500000000E+002,  0.00000000000E+000,  0.10000000000E+001
  0.24243000000E+005,  0.18127788651E+007,  0.16500000000E+002,  0.00000000000E+000,  0.10000000000E+001
  0.24248000000E+005,  0.18052827750E+007,  0.16500000000E+002,  0.00000000000E+000,  0.10000000000E+001
  0.24253000000E+005,  0.17978713066E+007,  0.16500000000E+002,  0.00000000000E+000,  0.10000000000E+001
  0.24258000000E+005,  0.17905431777E+007,  0.16500000000E+002,  0.00000000000E+000,  0.10000000000E+001
  0.24263000000E+005,  0.17832971311E+007,  0.16500000000E+002,  0.00000000000E+000,  0.10000000000E+001
  0.24268000000E+005,  0.17761319346E+007,  0.16500000000E+002,  0.00000000000E+000,  0.10000000000E+001
  0.24273000000E+005,  0.17690463799E+007,  0.16500000000E+002,  0.00000000000E+000,  0.10000000000E+001
  0.24278000000E+005,  0.17620392821E+007,  0.16500000000E+002,  0.00000000000E+000,  0.10000000000E+001
  0.24283000000E+005,  0.17551094791E+007,  0.16500000000E+002,  0.00000000000E+000,  0.10000000000E+001
  0.24288000000E+005,  0.17482558311E+007,  0.16500000000E+002,  0.00000000000E+000,  0.10000000000E+001
  0.24293000000E+005,  0.17414772200E+007,  0.16500000000E+002,  0.00000000000E+000,  0.10000000000E+001
  0.24298000000E+005,  0.17347725488E+007,  0.16500000000E+002,  0.00000000000E+000,  0.10000000000E+001
  0.24303000000E+005,  0.17281407413E+007,  0.16500000000E+002,  0.00000000000E+000,  0.10000000000E+001
  0.24308000000E+005,  0.17215807414E+007,  0.16500000000E+002,  0.00000000000E+000,  0.10000000000E+001
  0.24313000000E+005,  0.17150915123E+007,  0.16500000000E+002,  0.00000000000E+000,  0.10000000000E+001
  0.24318000000E+005,  0.17086720369E+007,  0.16500000000E+002,  0.00000000000E+000,  0.10000000000E+001
  0.24323000000E+005,  0.17023213166E+007,  0.16500000000E+002,  0.00000000000E+000,  0.10000000000E+001
  0.24328000000E+005,  0.16960383710E+007,  0.16500000000E+002,  0.00000000000E+000,  0.10000000000E+001
  0.24333000000E+005,  0.16898222375E+007,  0.16500000000E+002,  0.00000000000E+000,  0.10000000000E+001
  0.24338000000E+005,  0.16836719713E+007,  0.16500000000E+002,  0.00000000000E+000,  0.10000000000E+001
  0.24343000000E+005,  0.16775866442E+007,  0.16500000000E+002,  0.00000000000E+000,  0.10000000000E+001
  0.24348000000E+005,  0.16715653448E+007,  0.16500000000E+002,  0.00000000000E+000,  0.10000000000E+001
  0.24353000000E+005,  0.16656071781E+007,  0.16500000000E+002,  0.00000000000E+000,  0.10000000000E+001
  0.24358000000E+005,  0.16597112647E+007,  0.16500000000E+002,  0.00000000000E+000,  0.10000000000E+001
  0.24363000000E+005,  0.16538767410E+007,  0.16500000000E+002,  0.00000000000E+000,  0.10000000000E+001
  0.24368000000E+005,  0.16481027582E+007,  0.16500000000E+002,  0.00000000000E+000,  0.10000000000E+001
  0.24373000000E+005,  0.16423884828E+007,  0.16500000000E+002,  0.00000000000E+000,  0.10000000000E+001
  0.24378000000E+005,  0.16367330956E+007,  0.16500000000E+002,  0.00000000000E+000,  0.10000000000E+001
  0.24383000000E+005,  0.16311357913E+007,  0.16500000000E+002,  0.00000000000E+000,  0.10000000000E+001
  0.24388000000E+005,  0.16255957790E+007,  0.16500000000E+002,  0.00000000000E+000,  0.10000000000E+001
  0.24393000000E+005,  0.16201122809E+007,  0.16500000000E+002,  0.00000000000E+000,  0.10000000000E+001
  0.24398000000E+005,  0.16146845328E+007,  0.16500000000E+002,  0.00000000000E+000,  0.10000000000E+001
  0.24403000000E+005,  0.16093117834E+007,  0.16500000000E+002,  0.00000000000E+000,  0.10000000000E+001
  0.24408000000E+005,  0.16039932940E+007,  0.16500000000E+002,  0.00000000000E+000,  0.10000000000E+001
  0.24413000000E+005,  0.15987283384E+007,  0.16500000000E+002,  0.00000000000E+000,  0.10000000000E+001
  0.24418000000E+005,  0.15935162026E+007,  0.16500000000E+002,  0.00000000000E+000,  0.10000000000E+001
  0.24423000000E+005,  0.15883561847E+007,  0.16500000000E+002,  0.00000000000E+000,  0.10000000000E+001
  0.24428000000E+005,  0.15832475941E+007,  0.16500000000E+002,  0.00000000000E+000,  0.10000000000E+001
  0.24433000000E+005,  0.15781897518E+007,  0.16500000000E+002,  0.00000000000E+000,  0.10000000000E+001
  0.24438000000E+005,  0.15731819902E+007,  0.16500000000E+002,  0.00000000000E+000,  0.10000000000E+001
  0.24443000000E+005,  0.15682236523E+007,  0.16500000000E+002,  0.00000000000E+000,  0.10000000000E+001
  0.24448000000E+005,  0.15633140921E+007,  0.16500000000E+002,  0.00000000000E+000,  0.10000000000E+001
  0.24453000000E+005,  0.15584526741E+007,  0.16500000000E+002,  0.00000000000E+000,  0.10000000000E+001
  0.24458000000E+005,  0.15536387729E+007,  0.16500000000E+002,  0.00000000000E+000,  0.10000000000E+001
  0.24463000000E+005,  0.15488717733E+007,  0.16500000000E+002,  0.00000000000E+000,  0.10000000000E+001
  0.24468000000E+005,  0.15441510702E+007,  0.16500000000E+002,  0.00000000000E+000,  0.10000000000E+001
  0.24473000000E+005,  0.15394760680E+007,  0.16500000000E+002,  0.00000000000E+000,  0.10000000000E+001
  0.24478000000E+005,  0.15348461805E+007,  0.16500000000E+002,  0.00000000000E+000,  0.10000000000E+001
  0.24483000000E+005,  0.15302608310E+007,  0.16500000000E+002,  0.00000000000E+000,  0.10000000000E+001
  0.24488000000E+005,  0.15257194519E+007,  0.16500000000E+002,  0.00000000000E+000,  0.10000000000E+001
  0.24493000000E+005,  0.15212214846E+007,  0.16500000000E+002,  0.00000000000E+000,  0.10000000000E+001
  0.24498000000E+005,  0.15167663791E+007,  0.16500000000E+002,  0.00000000000E+000,  0.10000000000E+001
  0.24503000000E+005,  0.15123535943E+007,  0.16500000000E+002,  0.00000000000E+000,  0.10000000000E+001
  0.24508000000E+005,  0.15079825972E+007,  0.16500000000E+002,  0.00000000000E+000,  0.10000000000E+001
  0.24513000000E+005,  0.15036528634E+007,  0.16500000000E+002,  0.00000000000E+000,  0.10000000000E+001
  0.24518000000E+005,  0.14993638764E+007,  0.16500000000E+002,  0.00000000000E+000,  0.10000000000E+001
  0.24520000000E+005,  0.14976547270E+007,  0.16500000000E+002,  0.00000000000E+000,  0.10000000000E+001
