"           TIME(S)","              PRES","              TEMP","             SAT_G","             SAT_L"
  0.23301000000E+005,  0.41157011986E+006,  0.16500000000E+002,  0.00000000000E+000,  0.10000000000E+001
  0.23306000000E+005,  0.41157011990E+006,  0.16500000000E+002,  0.00000000000E+000,  0.10000000000E+001
  0.23331000000E+005,  0.41157012006E+006,  0.16500000000E+002,  0.00000000000E+000,  0.10000000000E+001
  0.23391000000E+005,  0.41157012045E+006,  0.16500000000E+002,  0.00000000000E+000,  0.10000000000E+001
  0.23451000000E+005,  0.41157012094E+006,  0.16500000000E+002,  0.00000000000E+000,  0.10000000000E+001
  0.23511000000E+005,  0.41157012155E+006,  0.16500000000E+002,  0.00000000000E+000,  0.10000000000E+001
  0.23571000000E+005,  0.41157012223E+006,  0.16500000000E+002,  0.00000000000E+000,  0.10000000000E+001
  0.23631000000E+005,  0.41157012295E+006,  0.16500000000E+002,  0.00000000000E+000,  0.10000000000E+001
  0.23691000000E+005,  0.41157012368E+006,  0.16500000000E+002,  0.00000000000E+000,  0.10000000000E+001
  0.23751000000E+005,  0.41157012439E+006,  0.16500000000E+002,  0.00000000000E+000,  0.10000000000E+001
  0.23811000000E+005,  0.41157012508E+006,  0.16500000000E+002,  0.00000000000E+000,  0.10000000000E+001
  0.23871000000E+005,  0.41157012574E+006,  0.16500000000E+002,  0.00000000000E+000,  0.10000000000E+001
  0.23931000000E+005,  0.41157012635E+006,  0.16500000000E+002,  0.00000000000E+000,  0.10000000000E+001
  0.23991000000E+005,  0.41157012692E+006,  0.16500000000E+002,  0.00000000000E+000,  0.10000000000E+001
  0.24051000000E+005,  0.41157012746E+006,  0.16500000000E+002,  0.00000000000E+000,  0.10000000000E+001
  0.24111000000E+005,  0.41157012795E+006,  0.16500000000E+002,  0.00000000000E+000,  0.10000000000E+001
  0.24171000000E+005,  0.41157012840E+006,  0.16500000000E+002,  0.00000000000E+000,  0.10000000000E+001
  0.24231000000E+005,  0.41157012883E+006,  0.16500000000E+002,  0.00000000000E+000,  0.10000000000E+001
  0.24291000000E+005,  0.41157012922E+006,  0.16500000000E+002,  0.00000000000E+000,  0.10000000000E+001
  0.24351000000E+005,  0.41157012959E+006,  0.16500000000E+002,  0.00000000000E+000,  0.10000000000E+001
  0.24411000000E+005,  0.41157012994E+006,  0.16500000000E+002,  0.00000000000E+000,  0.10000000000E+001
  0.24471000000E+005,  0.41157013027E+006,  0.16500000000E+002,  0.00000000000E+000,  0.10000000000E+001
  0.24531000000E+005,  0.41157013058E+006,  0.16500000000E+002,  0.00000000000E+000,  0.10000000000E+001
  0.24591000000E+005,  0.41157013087E+006,  0.16500000000E+002,  0.00000000000E+000,  0.10000000000E+001
  0.24651000000E+005,  0.41157013115E+006,  0.16500000000E+002,  0.00000000000E+000,  0.10000000000E+001
  0.24711000000E+005,  0.41157013143E+006,  0.16500000000E+002,  0.00000000000E+000,  0.10000000000E+001
  0.24771000000E+005,  0.41157013169E+006,  0.16500000000E+002,  0.00000000000E+000,  0.10000000000E+001
  0.24831000000E+005,  0.41157013194E+006,  0.16500000000E+002,  0.00000000000E+000,  0.10000000000E+001
  0.24891000000E+005,  0.41157013219E+006,  0.16500000000E+002,  0.00000000000E+000,  0.10000000000E+001
  0.24951000000E+005,  0.41157013244E+006,  0.16500000000E+002,  0.00000000000E+000,  0.10000000000E+001
  0.25011000000E+005,  0.41157013268E+006,  0.16500000000E+002,  0.00000000000E+000,  0.10000000000E+001
  0.25071000000E+005,  0.41157013291E+006,  0.16500000000E+002,  0.00000000000E+000,  0.10000000000E+001
  0.25131000000E+005,  0.41157013315E+006,  0.16500000000E+002,  0.00000000000E+000,  0.10000000000E+001
  0.25191000000E+005,  0.41157013338E+006,  0.16500000000E+002,  0.00000000000E+000,  0.10000000000E+001
  0.25251000000E+005,  0.41157013361E+006,  0.16500000000E+002,  0.00000000000E+000,  0.10000000000E+001
  0.25311000000E+005,  0.41157013384E+006,  0.16500000000E+002,  0.00000000000E+000,  0.10000000000E+001
  0.25371000000E+005,  0.41157013406E+006,  0.16500000000E+002,  0.00000000000E+000,  0.10000000000E+001
  0.25431000000E+005,  0.41157013429E+006,  0.16500000000E+002,  0.00000000000E+000,  0.10000000000E+001
  0.25491000000E+005,  0.41157013452E+006,  0.16500000000E+002,  0.00000000000E+000,  0.10000000000E+001
  0.25551000000E+005,  0.41157013475E+006,  0.16500000000E+002,  0.00000000000E+000,  0.10000000000E+001
  0.25611000000E+005,  0.41157013497E+006,  0.16500000000E+002,  0.00000000000E+000,  0.10000000000E+001
  0.25671000000E+005,  0.41157013520E+006,  0.16500000000E+002,  0.00000000000E+000,  0.10000000000E+001
  0.25731000000E+005,  0.41157013543E+006,  0.16500000000E+002,  0.00000000000E+000,  0.10000000000E+001
  0.25791000000E+005,  0.41157013566E+006,  0.16500000000E+002,  0.00000000000E+000,  0.10000000000E+001
  0.25851000000E+005,  0.41157013589E+006,  0.16500000000E+002,  0.00000000000E+000,  0.10000000000E+001
  0.25911000000E+005,  0.41157013612E+006,  0.16500000000E+002,  0.00000000000E+000,  0.10000000000E+001
  0.25971000000E+005,  0.41157013635E+006,  0.16500000000E+002,  0.00000000000E+000,  0.10000000000E+001
  0.26031000000E+005,  0.41157013658E+006,  0.16500000000E+002,  0.00000000000E+000,  0.10000000000E+001
  0.26091000000E+005,  0.41157013681E+006,  0.16500000000E+002,  0.00000000000E+000,  0.10000000000E+001
  0.26151000000E+005,  0.41157013704E+006,  0.16500000000E+002,  0.00000000000E+000,  0.10000000000E+001
  0.26211000000E+005,  0.41157013728E+006,  0.16500000000E+002,  0.00000000000E+000,  0.10000000000E+001
  0.26271000000E+005,  0.41157013751E+006,  0.16500000000E+002,  0.00000000000E+000,  0.10000000000E+001
  0.26331000000E+005,  0.41157013775E+006,  0.16500000000E+002,  0.00000000000E+000,  0.10000000000E+001
  0.26391000000E+005,  0.41157013799E+006,  0.16500000000E+002,  0.00000000000E+000,  0.10000000000E+001
  0.26451000000E+005,  0.41157013823E+006,  0.16500000000E+002,  0.00000000000E+000,  0.10000000000E+001
  0.26511000000E+005,  0.41157013847E+006,  0.16500000000E+002,  0.00000000000E+000,  0.10000000000E+001
  0.26571000000E+005,  0.41157013871E+006,  0.16500000000E+002,  0.00000000000E+000,  0.10000000000E+001
  0.26631000000E+005,  0.41157013895E+006,  0.16500000000E+002,  0.00000000000E+000,  0.10000000000E+001
  0.26691000000E+005,  0.41157013919E+006,  0.16500000000E+002,  0.00000000000E+000,  0.10000000000E+001
  0.26751000000E+005,  0.41157013944E+006,  0.16500000000E+002,  0.00000000000E+000,  0.10000000000E+001
  0.26811000000E+005,  0.41157013969E+006,  0.16500000000E+002,  0.00000000000E+000,  0.10000000000E+001
  0.26871000000E+005,  0.41157013994E+006,  0.16500000000E+002,  0.00000000000E+000,  0.10000000000E+001
  0.26931000000E+005,  0.41157014019E+006,  0.16500000000E+002,  0.00000000000E+000,  0.10000000000E+001
  0.26991000000E+005,  0.41157014044E+006,  0.16500000000E+002,  0.00000000000E+000,  0.10000000000E+001
  0.27051000000E+005,  0.41157014070E+006,  0.16500000000E+002,  0.00000000000E+000,  0.10000000000E+001
  0.27111000000E+005,  0.41157014096E+006,  0.16500000000E+002,  0.00000000000E+000,  0.10000000000E+001
  0.27171000000E+005,  0.41157014123E+006,  0.16500000000E+002,  0.00000000000E+000,  0.10000000000E+001
  0.27231000000E+005,  0.41157014150E+006,  0.16500000000E+002,  0.00000000000E+000,  0.10000000000E+001
  0.27291000000E+005,  0.41157014178E+006,  0.16500000000E+002,  0.00000000000E+000,  0.10000000000E+001
  0.27351000000E+005,  0.41157014206E+006,  0.16500000000E+002,  0.00000000000E+000,  0.10000000000E+001
  0.27411000000E+005,  0.41157014235E+006,  0.16500000000E+002,  0.00000000000E+000,  0.10000000000E+001
  0.27471000000E+005,  0.41157014266E+006,  0.16500000000E+002,  0.00000000000E+000,  0.10000000000E+001
  0.27531000000E+005,  0.41157014297E+006,  0.16500000000E+002,  0.00000000000E+000,  0.10000000000E+001
  0.27591000000E+005,  0.41157014329E+006,  0.16500000000E+002,  0.00000000000E+000,  0.10000000000E+001
  0.27651000000E+005,  0.41157014363E+006,  0.16500000000E+002,  0.00000000000E+000,  0.10000000000E+001
  0.27711000000E+005,  0.41157014398E+006,  0.16500000000E+002,  0.00000000000E+000,  0.10000000000E+001
  0.27771000000E+005,  0.41157014435E+006,  0.16500000000E+002,  0.00000000000E+000,  0.10000000000E+001
  0.27831000000E+005,  0.41157014475E+006,  0.16500000000E+002,  0.00000000000E+000,  0.10000000000E+001
  0.27891000000E+005,  0.41157014517E+006,  0.16500000000E+002,  0.00000000000E+000,  0.10000000000E+001
  0.27951000000E+005,  0.41157014561E+006,  0.16500000000E+002,  0.00000000000E+000,  0.10000000000E+001
  0.28011000000E+005,  0.41157014609E+006,  0.16500000000E+002,  0.00000000000E+000,  0.10000000000E+001
  0.28071000000E+005,  0.41157014660E+006,  0.16500000000E+002,  0.00000000000E+000,  0.10000000000E+001
  0.28131000000E+005,  0.41157014716E+006,  0.16500000000E+002,  0.00000000000E+000,  0.10000000000E+001
  0.28191000000E+005,  0.41157014775E+006,  0.16500000000E+002,  0.00000000000E+000,  0.10000000000E+001
  0.28251000000E+005,  0.41157014840E+006,  0.16500000000E+002,  0.00000000000E+000,  0.10000000000E+001
  0.28311000000E+005,  0.41157014911E+006,  0.16500000000E+002,  0.00000000000E+000,  0.10000000000E+001
  0.28371000000E+005,  0.41157014988E+006,  0.16500000000E+002,  0.00000000000E+000,  0.10000000000E+001
  0.28431000000E+005,  0.41157015073E+006,  0.16500000000E+002,  0.00000000000E+000,  0.10000000000E+001
  0.28491000000E+005,  0.41157015165E+006,  0.16500000000E+002,  0.00000000000E+000,  0.10000000000E+001
  0.28551000000E+005,  0.41157015266E+006,  0.16500000000E+002,  0.00000000000E+000,  0.10000000000E+001
  0.28611000000E+005,  0.41157015377E+006,  0.16500000000E+002,  0.00000000000E+000,  0.10000000000E+001
  0.28671000000E+005,  0.41157015499E+006,  0.16500000000E+002,  0.00000000000E+000,  0.10000000000E+001
  0.28731000000E+005,  0.41157015633E+006,  0.16500000000E+002,  0.00000000000E+000,  0.10000000000E+001
  0.28791000000E+005,  0.41157015780E+006,  0.16500000000E+002,  0.00000000000E+000,  0.10000000000E+001
  0.28851000000E+005,  0.41157015942E+006,  0.16500000000E+002,  0.00000000000E+000,  0.10000000000E+001
  0.28911000000E+005,  0.41157016120E+006,  0.16500000000E+002,  0.00000000000E+000,  0.10000000000E+001
  0.28971000000E+005,  0.41157016315E+006,  0.16500000000E+002,  0.00000000000E+000,  0.10000000000E+001
  0.29031000000E+005,  0.41157016529E+006,  0.16500000000E+002,  0.00000000000E+000,  0.10000000000E+001
  0.29091000000E+005,  0.41157016764E+006,  0.16500000000E+002,  0.00000000000E+000,  0.10000000000E+001
  0.29151000000E+005,  0.41157017022E+006,  0.16500000000E+002,  0.00000000000E+000,  0.10000000000E+001
  0.29211000000E+005,  0.41157017304E+006,  0.16500000000E+002,  0.00000000000E+000,  0.10000000000E+001
  0.29271000000E+005,  0.41157017613E+006,  0.16500000000E+002,  0.00000000000E+000,  0.10000000000E+001
  0.29331000000E+005,  0.41157017951E+006,  0.16500000000E+002,  0.00000000000E+000,  0.10000000000E+001
  0.29353750000E+005,  0.41157018083E+006,  0.16500000000E+002,  0.00000000000E+000,  0.10000000000E+001
