"           TIME(S)","              PRES","              TEMP","             SAT_G","             SAT_L"
  0.23620500000E+005,  0.85723397815E+006,  0.16500000000E+002,  0.00000000000E+000,  0.10000000000E+001
  0.23623000000E+005,  0.12367416702E+007,  0.16500000000E+002,  0.00000000000E+000,  0.10000000000E+001
  0.23628000000E+005,  0.18831729457E+007,  0.16500000000E+002,  0.00000000000E+000,  0.10000000000E+001
  0.23633000000E+005,  0.24689320004E+007,  0.16500000000E+002,  0.00000000000E+000,  0.10000000000E+001
  0.23638000000E+005,  0.30169495135E+007,  0.16500000000E+002,  0.00000000000E+000,  0.10000000000E+001
  0.23643000000E+005,  0.35048159396E+007,  0.16500000000E+002,  0.00000000000E+000,  0.10000000000E+001
  0.23648000000E+005,  0.33109303713E+007,  0.16500000000E+002,  0.00000000000E+000,  0.10000000000E+001
  0.23653000000E+005,  0.31971435664E+007,  0.16500000000E+002,  0.00000000000E+000,  0.10000000000E+001
  0.23658000000E+005,  0.31181622907E+007,  0.16500000000E+002,  0.00000000000E+000,  0.10000000000E+001
  0.23663000000E+005,  0.30585645353E+007,  0.16500000000E+002,  0.00000000000E+000,  0.10000000000E+001
  0.23668000000E+005,  0.30109055018E+007,  0.16500000000E+002,  0.00000000000E+000,  0.10000000000E+001
  0.23673000000E+005,  0.29711460648E+007,  0.16500000000E+002,  0.00000000000E+000,  0.10000000000E+001
  0.23678000000E+005,  0.29368907777E+007,  0.16500000000E+002,  0.00000000000E+000,  0.10000000000E+001
  0.23683000000E+005,  0.29066163806E+007,  0.16500000000E+002,  0.00000000000E+000,  0.10000000000E+001
  0.23688000000E+005,  0.28793051373E+007,  0.16500000000E+002,  0.00000000000E+000,  0.10000000000E+001
  0.23693000000E+005,  0.28542537058E+007,  0.16500000000E+002,  0.00000000000E+000,  0.10000000000E+001
  0.23698000000E+005,  0.28309641851E+007,  0.16500000000E+002,  0.00000000000E+000,  0.10000000000E+001
  0.23703000000E+005,  0.28090773998E+007,  0.16500000000E+002,  0.00000000000E+000,  0.10000000000E+001
  0.23708000000E+005,  0.27883299535E+007,  0.16500000000E+002,  0.00000000000E+000,  0.10000000000E+001
  0.23713000000E+005,  0.27685256668E+007,  0.16500000000E+002,  0.00000000000E+000,  0.10000000000E+001
  0.23718000000E+005,  0.27495161735E+007,  0.16500000000E+002,  0.00000000000E+000,  0.10000000000E+001
  0.23723000000E+005,  0.27311875412E+007,  0.16500000000E+002,  0.00000000000E+000,  0.10000000000E+001
  0.23728000000E+005,  0.27134509398E+007,  0.16500000000E+002,  0.00000000000E+000,  0.10000000000E+001
  0.23733000000E+005,  0.26962360662E+007,  0.16500000000E+002,  0.00000000000E+000,  0.10000000000E+001
  0.23738000000E+005,  0.26794864656E+007,  0.16500000000E+002,  0.00000000000E+000,  0.10000000000E+001
  0.23743000000E+005,  0.26631561697E+007,  0.16500000000E+002,  0.00000000000E+000,  0.10000000000E+001
  0.23748000000E+005,  0.26472072544E+007,  0.16500000000E+002,  0.00000000000E+000,  0.10000000000E+001
  0.23753000000E+005,  0.26316080476E+007,  0.16500000000E+002,  0.00000000000E+000,  0.10000000000E+001
  0.23758000000E+005,  0.26163317982E+007,  0.16500000000E+002,  0.00000000000E+000,  0.10000000000E+001
  0.23763000000E+005,  0.26013556756E+007,  0.16500000000E+002,  0.00000000000E+000,  0.10000000000E+001
  0.23768000000E+005,  0.25866600097E+007,  0.16500000000E+002,  0.00000000000E+000,  0.10000000000E+001
  0.23773000000E+005,  0.25722277056E+007,  0.16500000000E+002,  0.00000000000E+000,  0.10000000000E+001
  0.23778000000E+005,  0.25580437884E+007,  0.16500000000E+002,  0.00000000000E+000,  0.10000000000E+001
  0.23783000000E+005,  0.25440950448E+007,  0.16500000000E+002,  0.00000000000E+000,  0.10000000000E+001
  0.23788000000E+005,  0.25303697378E+007,  0.16500000000E+002,  0.00000000000E+000,  0.10000000000E+001
  0.23793000000E+005,  0.25168573774E+007,  0.16500000000E+002,  0.00000000000E+000,  0.10000000000E+001
  0.23798000000E+005,  0.25035485347E+007,  0.16500000000E+002,  0.00000000000E+000,  0.10000000000E+001
  0.23803000000E+005,  0.24904346899E+007,  0.16500000000E+002,  0.00000000000E+000,  0.10000000000E+001
  0.23808000000E+005,  0.24775081061E+007,  0.16500000000E+002,  0.00000000000E+000,  0.10000000000E+001
  0.23813000000E+005,  0.24647617257E+007,  0.16500000000E+002,  0.00000000000E+000,  0.10000000000E+001
  0.23818000000E+005,  0.24521890825E+007,  0.16500000000E+002,  0.00000000000E+000,  0.10000000000E+001
  0.23823000000E+005,  0.24397842283E+007,  0.16500000000E+002,  0.00000000000E+000,  0.10000000000E+001
  0.23828000000E+005,  0.24275416710E+007,  0.16500000000E+002,  0.00000000000E+000,  0.10000000000E+001
  0.23833000000E+005,  0.24154563213E+007,  0.16500000000E+002,  0.00000000000E+000,  0.10000000000E+001
  0.23838000000E+005,  0.24035234475E+007,  0.16500000000E+002,  0.00000000000E+000,  0.10000000000E+001
  0.23843000000E+005,  0.23917386367E+007,  0.16500000000E+002,  0.00000000000E+000,  0.10000000000E+001
  0.23848000000E+005,  0.23800977608E+007,  0.16500000000E+002,  0.00000000000E+000,  0.10000000000E+001
  0.23853000000E+005,  0.23685969482E+007,  0.16500000000E+002,  0.00000000000E+000,  0.10000000000E+001
  0.23858000000E+005,  0.23572325577E+007,  0.16500000000E+002,  0.00000000000E+000,  0.10000000000E+001
  0.23863000000E+005,  0.23460011569E+007,  0.16500000000E+002,  0.00000000000E+000,  0.10000000000E+001
  0.23868000000E+005,  0.23348995027E+007,  0.16500000000E+002,  0.00000000000E+000,  0.10000000000E+001
  0.23873000000E+005,  0.23239245242E+007,  0.16500000000E+002,  0.00000000000E+000,  0.10000000000E+001
  0.23878000000E+005,  0.23130733080E+007,  0.16500000000E+002,  0.00000000000E+000,  0.10000000000E+001
  0.23883000000E+005,  0.23023430846E+007,  0.16500000000E+002,  0.00000000000E+000,  0.10000000000E+001
  0.23888000000E+005,  0.22917312166E+007,  0.16500000000E+002,  0.00000000000E+000,  0.10000000000E+001
  0.23893000000E+005,  0.22812351886E+007,  0.16500000000E+002,  0.00000000000E+000,  0.10000000000E+001
  0.23898000000E+005,  0.22708525973E+007,  0.16500000000E+002,  0.00000000000E+000,  0.10000000000E+001
  0.23903000000E+005,  0.22605811434E+007,  0.16500000000E+002,  0.00000000000E+000,  0.10000000000E+001
  0.23908000000E+005,  0.22504186242E+007,  0.16500000000E+002,  0.00000000000E+000,  0.10000000000E+001
  0.23913000000E+005,  0.22403629263E+007,  0.16500000000E+002,  0.00000000000E+000,  0.10000000000E+001
  0.23918000000E+005,  0.22304120200E+007,  0.16500000000E+002,  0.00000000000E+000,  0.10000000000E+001
  0.23923000000E+005,  0.22205639533E+007,  0.16500000000E+002,  0.00000000000E+000,  0.10000000000E+001
  0.23928000000E+005,  0.22108168472E+007,  0.16500000000E+002,  0.00000000000E+000,  0.10000000000E+001
  0.23933000000E+005,  0.22011688907E+007,  0.16500000000E+002,  0.00000000000E+000,  0.10000000000E+001
  0.23938000000E+005,  0.21916183370E+007,  0.16500000000E+002,  0.00000000000E+000,  0.10000000000E+001
  0.23943000000E+005,  0.21821634997E+007,  0.16500000000E+002,  0.00000000000E+000,  0.10000000000E+001
  0.23948000000E+005,  0.21728027486E+007,  0.16500000000E+002,  0.00000000000E+000,  0.10000000000E+001
  0.23953000000E+005,  0.21635345073E+007,  0.16500000000E+002,  0.00000000000E+000,  0.10000000000E+001
  0.23958000000E+005,  0.21543572499E+007,  0.16500000000E+002,  0.00000000000E+000,  0.10000000000E+001
  0.23963000000E+005,  0.21452694980E+007,  0.16500000000E+002,  0.00000000000E+000,  0.10000000000E+001
  0.23968000000E+005,  0.21362698187E+007,  0.16500000000E+002,  0.00000000000E+000,  0.10000000000E+001
  0.23973000000E+005,  0.21273568217E+007,  0.16500000000E+002,  0.00000000000E+000,  0.10000000000E+001
  0.23978000000E+005,  0.21185291576E+007,  0.16500000000E+002,  0.00000000000E+000,  0.10000000000E+001
  0.23983000000E+005,  0.21097855155E+007,  0.16500000000E+002,  0.00000000000E+000,  0.10000000000E+001
  0.23988000000E+005,  0.21011246214E+007,  0.16500000000E+002,  0.00000000000E+000,  0.10000000000E+001
  0.23993000000E+005,  0.20925452364E+007,  0.16500000000E+002,  0.00000000000E+000,  0.10000000000E+001
  0.23998000000E+005,  0.20840461550E+007,  0.16500000000E+002,  0.00000000000E+000,  0.10000000000E+001
  0.24003000000E+005,  0.20756262035E+007,  0.16500000000E+002,  0.00000000000E+000,  0.10000000000E+001
  0.24008000000E+005,  0.20672842388E+007,  0.16500000000E+002,  0.00000000000E+000,  0.10000000000E+001
  0.24013000000E+005,  0.20590191468E+007,  0.16500000000E+002,  0.00000000000E+000,  0.10000000000E+001
  0.24018000000E+005,  0.20508298414E+007,  0.16500000000E+002,  0.00000000000E+000,  0.10000000000E+001
  0.24023000000E+005,  0.20427152633E+007,  0.16500000000E+002,  0.00000000000E+000,  0.10000000000E+001
  0.24028000000E+005,  0.20346743785E+007,  0.16500000000E+002,  0.00000000000E+000,  0.10000000000E+001
  0.24033000000E+005,  0.20267061779E+007,  0.16500000000E+002,  0.00000000000E+000,  0.10000000000E+001
  0.24038000000E+005,  0.20188096758E+007,  0.16500000000E+002,  0.00000000000E+000,  0.10000000000E+001
  0.24043000000E+005,  0.20109839092E+007,  0.16500000000E+002,  0.00000000000E+000,  0.10000000000E+001
  0.24048000000E+005,  0.20032279369E+007,  0.16500000000E+002,  0.00000000000E+000,  0.10000000000E+001
  0.24053000000E+005,  0.19955408387E+007,  0.16500000000E+002,  0.00000000000E+000,  0.10000000000E+001
  0.24058000000E+005,  0.19879217146E+007,  0.16500000000E+002,  0.00000000000E+000,  0.10000000000E+001
  0.24063000000E+005,  0.19803696839E+007,  0.16500000000E+002,  0.00000000000E+000,  0.10000000000E+001
  0.24068000000E+005,  0.19728838847E+007,  0.16500000000E+002,  0.00000000000E+000,  0.10000000000E+001
  0.24073000000E+005,  0.19654634734E+007,  0.16500000000E+002,  0.00000000000E+000,  0.10000000000E+001
  0.24078000000E+005,  0.19581076236E+007,  0.16500000000E+002,  0.00000000000E+000,  0.10000000000E+001
  0.24083000000E+005,  0.19508155259E+007,  0.16500000000E+002,  0.00000000000E+000,  0.10000000000E+001
  0.24088000000E+005,  0.19435863871E+007,  0.16500000000E+002,  0.00000000000E+000,  0.10000000000E+001
  0.24093000000E+005,  0.19364194298E+007,  0.16500000000E+002,  0.00000000000E+000,  0.10000000000E+001
  0.24098000000E+005,  0.19293138918E+007,  0.16500000000E+002,  0.00000000000E+000,  0.10000000000E+001
  0.24103000000E+005,  0.19222690257E+007,  0.16500000000E+002,  0.00000000000E+000,  0.10000000000E+001
  0.24108000000E+005,  0.19152840984E+007,  0.16500000000E+002,  0.00000000000E+000,  0.10000000000E+001
  0.24113000000E+005,  0.19083583904E+007,  0.16500000000E+002,  0.00000000000E+000,  0.10000000000E+001
  0.24118000000E+005,  0.19014911959E+007,  0.16500000000E+002,  0.00000000000E+000,  0.10000000000E+001
  0.24123000000E+005,  0.18946818219E+007,  0.16500000000E+002,  0.00000000000E+000,  0.10000000000E+001
  0.24128000000E+005,  0.18879295882E+007,  0.16500000000E+002,  0.00000000000E+000,  0.10000000000E+001
  0.24133000000E+005,  0.18812338266E+007,  0.16500000000E+002,  0.00000000000E+000,  0.10000000000E+001
  0.24138000000E+005,  0.18745938810E+007,  0.16500000000E+002,  0.00000000000E+000,  0.10000000000E+001
  0.24143000000E+005,  0.18680091067E+007,  0.16500000000E+002,  0.00000000000E+000,  0.10000000000E+001
  0.24148000000E+005,  0.18614788702E+007,  0.16500000000E+002,  0.00000000000E+000,  0.10000000000E+001
  0.24153000000E+005,  0.18550025491E+007,  0.16500000000E+002,  0.00000000000E+000,  0.10000000000E+001
  0.24158000000E+005,  0.18485795313E+007,  0.16500000000E+002,  0.00000000000E+000,  0.10000000000E+001
  0.24163000000E+005,  0.18422092153E+007,  0.16500000000E+002,  0.00000000000E+000,  0.10000000000E+001
  0.24168000000E+005,  0.18358910095E+007,  0.16500000000E+002,  0.00000000000E+000,  0.10000000000E+001
  0.24173000000E+005,  0.18296243321E+007,  0.16500000000E+002,  0.00000000000E+000,  0.10000000000E+001
  0.24178000000E+005,  0.18234086107E+007,  0.16500000000E+002,  0.00000000000E+000,  0.10000000000E+001
  0.24183000000E+005,  0.18172432825E+007,  0.16500000000E+002,  0.00000000000E+000,  0.10000000000E+001
  0.24188000000E+005,  0.18111277934E+007,  0.16500000000E+002,  0.00000000000E+000,  0.10000000000E+001
  0.24193000000E+005,  0.18050615982E+007,  0.16500000000E+002,  0.00000000000E+000,  0.10000000000E+001
  0.24198000000E+005,  0.17990441604E+007,  0.16500000000E+002,  0.00000000000E+000,  0.10000000000E+001
  0.24203000000E+005,  0.17930749518E+007,  0.16500000000E+002,  0.00000000000E+000,  0.10000000000E+001
  0.24208000000E+005,  0.17871534524E+007,  0.16500000000E+002,  0.00000000000E+000,  0.10000000000E+001
  0.24213000000E+005,  0.17812791503E+007,  0.16500000000E+002,  0.00000000000E+000,  0.10000000000E+001
  0.24218000000E+005,  0.17754515410E+007,  0.16500000000E+002,  0.00000000000E+000,  0.10000000000E+001
  0.24223000000E+005,  0.17696701282E+007,  0.16500000000E+002,  0.00000000000E+000,  0.10000000000E+001
  0.24228000000E+005,  0.17639344225E+007,  0.16500000000E+002,  0.00000000000E+000,  0.10000000000E+001
  0.24233000000E+005,  0.17582439421E+007,  0.16500000000E+002,  0.00000000000E+000,  0.10000000000E+001
  0.24238000000E+005,  0.17525982122E+007,  0.16500000000E+002,  0.00000000000E+000,  0.10000000000E+001
  0.24243000000E+005,  0.17469967650E+007,  0.16500000000E+002,  0.00000000000E+000,  0.10000000000E+001
  0.24248000000E+005,  0.17414391393E+007,  0.16500000000E+002,  0.00000000000E+000,  0.10000000000E+001
  0.24253000000E+005,  0.17359248809E+007,  0.16500000000E+002,  0.00000000000E+000,  0.10000000000E+001
  0.24258000000E+005,  0.17304535417E+007,  0.16500000000E+002,  0.00000000000E+000,  0.10000000000E+001
  0.24263000000E+005,  0.17250246803E+007,  0.16500000000E+002,  0.00000000000E+000,  0.10000000000E+001
  0.24268000000E+005,  0.17196378614E+007,  0.16500000000E+002,  0.00000000000E+000,  0.10000000000E+001
  0.24273000000E+005,  0.17142926557E+007,  0.16500000000E+002,  0.00000000000E+000,  0.10000000000E+001
  0.24278000000E+005,  0.17089886400E+007,  0.16500000000E+002,  0.00000000000E+000,  0.10000000000E+001
  0.24283000000E+005,  0.17037253969E+007,  0.16500000000E+002,  0.00000000000E+000,  0.10000000000E+001
  0.24288000000E+005,  0.16985025148E+007,  0.16500000000E+002,  0.00000000000E+000,  0.10000000000E+001
  0.24293000000E+005,  0.16933195876E+007,  0.16500000000E+002,  0.00000000000E+000,  0.10000000000E+001
  0.24298000000E+005,  0.16881762148E+007,  0.16500000000E+002,  0.00000000000E+000,  0.10000000000E+001
  0.24303000000E+005,  0.16830720013E+007,  0.16500000000E+002,  0.00000000000E+000,  0.10000000000E+001
  0.24308000000E+005,  0.16780065573E+007,  0.16500000000E+002,  0.00000000000E+000,  0.10000000000E+001
  0.24313000000E+005,  0.16729794980E+007,  0.16500000000E+002,  0.00000000000E+000,  0.10000000000E+001
  0.24318000000E+005,  0.16679904440E+007,  0.16500000000E+002,  0.00000000000E+000,  0.10000000000E+001
  0.24323000000E+005,  0.16630390206E+007,  0.16500000000E+002,  0.00000000000E+000,  0.10000000000E+001
  0.24328000000E+005,  0.16581248583E+007,  0.16500000000E+002,  0.00000000000E+000,  0.10000000000E+001
  0.24333000000E+005,  0.16532475922E+007,  0.16500000000E+002,  0.00000000000E+000,  0.10000000000E+001
  0.24338000000E+005,  0.16484068621E+007,  0.16500000000E+002,  0.00000000000E+000,  0.10000000000E+001
  0.24343000000E+005,  0.16436023126E+007,  0.16500000000E+002,  0.00000000000E+000,  0.10000000000E+001
  0.24348000000E+005,  0.16388335927E+007,  0.16500000000E+002,  0.00000000000E+000,  0.10000000000E+001
  0.24353000000E+005,  0.16341003560E+007,  0.16500000000E+002,  0.00000000000E+000,  0.10000000000E+001
  0.24358000000E+005,  0.16294022603E+007,  0.16500000000E+002,  0.00000000000E+000,  0.10000000000E+001
  0.24363000000E+005,  0.16247389679E+007,  0.16500000000E+002,  0.00000000000E+000,  0.10000000000E+001
  0.24368000000E+005,  0.16201101453E+007,  0.16500000000E+002,  0.00000000000E+000,  0.10000000000E+001
  0.24373000000E+005,  0.16155154631E+007,  0.16500000000E+002,  0.00000000000E+000,  0.10000000000E+001
  0.24378000000E+005,  0.16109545961E+007,  0.16500000000E+002,  0.00000000000E+000,  0.10000000000E+001
  0.24383000000E+005,  0.16064272229E+007,  0.16500000000E+002,  0.00000000000E+000,  0.10000000000E+001
  0.24388000000E+005,  0.16019330263E+007,  0.16500000000E+002,  0.00000000000E+000,  0.10000000000E+001
  0.24393000000E+005,  0.15974716928E+007,  0.16500000000E+002,  0.00000000000E+000,  0.10000000000E+001
  0.24398000000E+005,  0.15930429129E+007,  0.16500000000E+002,  0.00000000000E+000,  0.10000000000E+001
  0.24403000000E+005,  0.15886463807E+007,  0.16500000000E+002,  0.00000000000E+000,  0.10000000000E+001
  0.24408000000E+005,  0.15842817941E+007,  0.16500000000E+002,  0.00000000000E+000,  0.10000000000E+001
  0.24413000000E+005,  0.15799488546E+007,  0.16500000000E+002,  0.00000000000E+000,  0.10000000000E+001
  0.24418000000E+005,  0.15756472671E+007,  0.16500000000E+002,  0.00000000000E+000,  0.10000000000E+001
  0.24423000000E+005,  0.15713767405E+007,  0.16500000000E+002,  0.00000000000E+000,  0.10000000000E+001
  0.24428000000E+005,  0.15671369866E+007,  0.16500000000E+002,  0.00000000000E+000,  0.10000000000E+001
  0.24433000000E+005,  0.15629277209E+007,  0.16500000000E+002,  0.00000000000E+000,  0.10000000000E+001
  0.24438000000E+005,  0.15587486623E+007,  0.16500000000E+002,  0.00000000000E+000,  0.10000000000E+001
  0.24443000000E+005,  0.15545995328E+007,  0.16500000000E+002,  0.00000000000E+000,  0.10000000000E+001
  0.24448000000E+005,  0.15504800579E+007,  0.16500000000E+002,  0.00000000000E+000,  0.10000000000E+001
  0.24453000000E+005,  0.15463899660E+007,  0.16500000000E+002,  0.00000000000E+000,  0.10000000000E+001
  0.24458000000E+005,  0.15423289889E+007,  0.16500000000E+002,  0.00000000000E+000,  0.10000000000E+001
  0.24463000000E+005,  0.15382968613E+007,  0.16500000000E+002,  0.00000000000E+000,  0.10000000000E+001
  0.24468000000E+005,  0.15342933213E+007,  0.16500000000E+002,  0.00000000000E+000,  0.10000000000E+001
  0.24473000000E+005,  0.15303181095E+007,  0.16500000000E+002,  0.00000000000E+000,  0.10000000000E+001
  0.24478000000E+005,  0.15263709699E+007,  0.16500000000E+002,  0.00000000000E+000,  0.10000000000E+001
  0.24483000000E+005,  0.15224516492E+007,  0.16500000000E+002,  0.00000000000E+000,  0.10000000000E+001
  0.24488000000E+005,  0.15185598970E+007,  0.16500000000E+002,  0.00000000000E+000,  0.10000000000E+001
  0.24493000000E+005,  0.15146954658E+007,  0.16500000000E+002,  0.00000000000E+000,  0.10000000000E+001
  0.24498000000E+005,  0.15108581108E+007,  0.16500000000E+002,  0.00000000000E+000,  0.10000000000E+001
  0.24503000000E+005,  0.15070475901E+007,  0.16500000000E+002,  0.00000000000E+000,  0.10000000000E+001
  0.24508000000E+005,  0.15032636642E+007,  0.16500000000E+002,  0.00000000000E+000,  0.10000000000E+001
  0.24513000000E+005,  0.14995060967E+007,  0.16500000000E+002,  0.00000000000E+000,  0.10000000000E+001
  0.24518000000E+005,  0.14957746535E+007,  0.16500000000E+002,  0.00000000000E+000,  0.10000000000E+001
  0.24523000000E+005,  0.14920691031E+007,  0.16500000000E+002,  0.00000000000E+000,  0.10000000000E+001
  0.24528000000E+005,  0.14883892169E+007,  0.16500000000E+002,  0.00000000000E+000,  0.10000000000E+001
  0.24533000000E+005,  0.14847347684E+007,  0.16500000000E+002,  0.00000000000E+000,  0.10000000000E+001
  0.24538000000E+005,  0.14811055339E+007,  0.16500000000E+002,  0.00000000000E+000,  0.10000000000E+001
  0.24543000000E+005,  0.14775012918E+007,  0.16500000000E+002,  0.00000000000E+000,  0.10000000000E+001
  0.24548000000E+005,  0.14739218234E+007,  0.16500000000E+002,  0.00000000000E+000,  0.10000000000E+001
  0.24553000000E+005,  0.14703669120E+007,  0.16500000000E+002,  0.00000000000E+000,  0.10000000000E+001
  0.24558000000E+005,  0.14668363433E+007,  0.16500000000E+002,  0.00000000000E+000,  0.10000000000E+001
