"           TIME(S)","              PRES","              TEMP","             SAT_G","             SAT_L"
  0.50000000000E+001,  0.22152706214E+006,  0.16500000000E+002,  0.00000000000E+000,  0.10000000000E+001
  0.30000000000E+002,  0.34858119252E+006,  0.16500000000E+002,  0.00000000000E+000,  0.10000000000E+001
  0.90000000000E+002,  0.43196645560E+006,  0.16500000000E+002,  0.00000000000E+000,  0.10000000000E+001
  0.15000000000E+003,  0.47172392416E+006,  0.16500000000E+002,  0.00000000000E+000,  0.10000000000E+001
  0.21000000000E+003,  0.49709277609E+006,  0.16500000000E+002,  0.00000000000E+000,  0.10000000000E+001
  0.27000000000E+003,  0.51583427960E+006,  0.16500000000E+002,  0.00000000000E+000,  0.10000000000E+001
  0.33000000000E+003,  0.53079275090E+006,  0.16500000000E+002,  0.00000000000E+000,  0.10000000000E+001
  0.39000000000E+003,  0.54328159776E+006,  0.16500000000E+002,  0.00000000000E+000,  0.10000000000E+001
  0.45000000000E+003,  0.55401638126E+006,  0.16500000000E+002,  0.00000000000E+000,  0.10000000000E+001
  0.51000000000E+003,  0.56343449620E+006,  0.16500000000E+002,  0.00000000000E+000,  0.10000000000E+001
  0.57000000000E+003,  0.57182536382E+006,  0.16500000000E+002,  0.00000000000E+000,  0.10000000000E+001
  0.63000000000E+003,  0.57939147800E+006,  0.16500000000E+002,  0.00000000000E+000,  0.10000000000E+001
  0.69000000000E+003,  0.58628043096E+006,  0.16500000000E+002,  0.00000000000E+000,  0.10000000000E+001
  0.75000000000E+003,  0.59260324383E+006,  0.16500000000E+002,  0.00000000000E+000,  0.10000000000E+001
  0.81000000000E+003,  0.59844556952E+006,  0.16500000000E+002,  0.00000000000E+000,  0.10000000000E+001
  0.87000000000E+003,  0.60387489344E+006,  0.16500000000E+002,  0.00000000000E+000,  0.10000000000E+001
  0.93000000000E+003,  0.60894534777E+006,  0.16500000000E+002,  0.00000000000E+000,  0.10000000000E+001
  0.99000000000E+003,  0.61370102878E+006,  0.16500000000E+002,  0.00000000000E+000,  0.10000000000E+001
  0.10500000000E+004,  0.61817834652E+006,  0.16500000000E+002,  0.00000000000E+000,  0.10000000000E+001
  0.11100000000E+004,  0.62240772402E+006,  0.16500000000E+002,  0.00000000000E+000,  0.10000000000E+001
  0.11700000000E+004,  0.62641485164E+006,  0.16500000000E+002,  0.00000000000E+000,  0.10000000000E+001
  0.12300000000E+004,  0.63022162679E+006,  0.16500000000E+002,  0.00000000000E+000,  0.10000000000E+001
  0.12900000000E+004,  0.63384687142E+006,  0.16500000000E+002,  0.00000000000E+000,  0.10000000000E+001
  0.13500000000E+004,  0.63730688607E+006,  0.16500000000E+002,  0.00000000000E+000,  0.10000000000E+001
  0.14100000000E+004,  0.64061588293E+006,  0.16500000000E+002,  0.00000000000E+000,  0.10000000000E+001
  0.14700000000E+004,  0.64378633004E+006,  0.16500000000E+002,  0.00000000000E+000,  0.10000000000E+001
  0.15300000000E+004,  0.64682922558E+006,  0.16500000000E+002,  0.00000000000E+000,  0.10000000000E+001
  0.15900000000E+004,  0.64975432053E+006,  0.16500000000E+002,  0.00000000000E+000,  0.10000000000E+001
  0.16500000000E+004,  0.65257030046E+006,  0.16500000000E+002,  0.00000000000E+000,  0.10000000000E+001
  0.17100000000E+004,  0.65528493436E+006,  0.16500000000E+002,  0.00000000000E+000,  0.10000000000E+001
  0.17700000000E+004,  0.65790519896E+006,  0.16500000000E+002,  0.00000000000E+000,  0.10000000000E+001
  0.18300000000E+004,  0.66043738222E+006,  0.16500000000E+002,  0.00000000000E+000,  0.10000000000E+001
  0.18900000000E+004,  0.66288717036E+006,  0.16500000000E+002,  0.00000000000E+000,  0.10000000000E+001
  0.19500000000E+004,  0.66525972183E+006,  0.16500000000E+002,  0.00000000000E+000,  0.10000000000E+001
  0.20100000000E+004,  0.66755972986E+006,  0.16500000000E+002,  0.00000000000E+000,  0.10000000000E+001
  0.20700000000E+004,  0.66979147632E+006,  0.16500000000E+002,  0.00000000000E+000,  0.10000000000E+001
  0.21300000000E+004,  0.67195887789E+006,  0.16500000000E+002,  0.00000000000E+000,  0.10000000000E+001
  0.21900000000E+004,  0.67406552618E+006,  0.16500000000E+002,  0.00000000000E+000,  0.10000000000E+001
  0.22500000000E+004,  0.67611472196E+006,  0.16500000000E+002,  0.00000000000E+000,  0.10000000000E+001
  0.23100000000E+004,  0.67810950590E+006,  0.16500000000E+002,  0.00000000000E+000,  0.10000000000E+001
  0.23700000000E+004,  0.68005268449E+006,  0.16500000000E+002,  0.00000000000E+000,  0.10000000000E+001
  0.24300000000E+004,  0.68194685355E+006,  0.16500000000E+002,  0.00000000000E+000,  0.10000000000E+001
  0.24900000000E+004,  0.68379441834E+006,  0.16500000000E+002,  0.00000000000E+000,  0.10000000000E+001
  0.25500000000E+004,  0.68559761183E+006,  0.16500000000E+002,  0.00000000000E+000,  0.10000000000E+001
  0.26100000000E+004,  0.68735851046E+006,  0.16500000000E+002,  0.00000000000E+000,  0.10000000000E+001
  0.26700000000E+004,  0.68907904830E+006,  0.16500000000E+002,  0.00000000000E+000,  0.10000000000E+001
  0.27300000000E+004,  0.69076102998E+006,  0.16500000000E+002,  0.00000000000E+000,  0.10000000000E+001
  0.27900000000E+004,  0.69240614126E+006,  0.16500000000E+002,  0.00000000000E+000,  0.10000000000E+001
  0.28500000000E+004,  0.69401596039E+006,  0.16500000000E+002,  0.00000000000E+000,  0.10000000000E+001
  0.29100000000E+004,  0.69559196531E+006,  0.16500000000E+002,  0.00000000000E+000,  0.10000000000E+001
  0.29700000000E+004,  0.69713554341E+006,  0.16500000000E+002,  0.00000000000E+000,  0.10000000000E+001
  0.30300000000E+004,  0.69864799805E+006,  0.16500000000E+002,  0.00000000000E+000,  0.10000000000E+001
  0.30900000000E+004,  0.70013055489E+006,  0.16500000000E+002,  0.00000000000E+000,  0.10000000000E+001
  0.31500000000E+004,  0.70158437001E+006,  0.16500000000E+002,  0.00000000000E+000,  0.10000000000E+001
  0.32100000000E+004,  0.70301053138E+006,  0.16500000000E+002,  0.00000000000E+000,  0.10000000000E+001
  0.32700000000E+004,  0.70441006720E+006,  0.16500000000E+002,  0.00000000000E+000,  0.10000000000E+001
  0.33300000000E+004,  0.70578394903E+006,  0.16500000000E+002,  0.00000000000E+000,  0.10000000000E+001
  0.33900000000E+004,  0.70713309596E+006,  0.16500000000E+002,  0.00000000000E+000,  0.10000000000E+001
  0.34500000000E+004,  0.70845837838E+006,  0.16500000000E+002,  0.00000000000E+000,  0.10000000000E+001
  0.35100000000E+004,  0.70976062132E+006,  0.16500000000E+002,  0.00000000000E+000,  0.10000000000E+001
  0.35700000000E+004,  0.71104060761E+006,  0.16500000000E+002,  0.00000000000E+000,  0.10000000000E+001
  0.36300000000E+004,  0.71229908068E+006,  0.16500000000E+002,  0.00000000000E+000,  0.10000000000E+001
  0.36900000000E+004,  0.71353674719E+006,  0.16500000000E+002,  0.00000000000E+000,  0.10000000000E+001
  0.37500000000E+004,  0.71475427939E+006,  0.16500000000E+002,  0.00000000000E+000,  0.10000000000E+001
  0.38100000000E+004,  0.71595231737E+006,  0.16500000000E+002,  0.00000000000E+000,  0.10000000000E+001
  0.38700000000E+004,  0.71713147105E+006,  0.16500000000E+002,  0.00000000000E+000,  0.10000000000E+001
  0.39300000000E+004,  0.71829232208E+006,  0.16500000000E+002,  0.00000000000E+000,  0.10000000000E+001
  0.39900000000E+004,  0.71943542557E+006,  0.16500000000E+002,  0.00000000000E+000,  0.10000000000E+001
  0.40500000000E+004,  0.72056131168E+006,  0.16500000000E+002,  0.00000000000E+000,  0.10000000000E+001
  0.41100000000E+004,  0.72167048710E+006,  0.16500000000E+002,  0.00000000000E+000,  0.10000000000E+001
  0.41700000000E+004,  0.72276343642E+006,  0.16500000000E+002,  0.00000000000E+000,  0.10000000000E+001
  0.42300000000E+004,  0.72384062340E+006,  0.16500000000E+002,  0.00000000000E+000,  0.10000000000E+001
  0.42900000000E+004,  0.72490249218E+006,  0.16500000000E+002,  0.00000000000E+000,  0.10000000000E+001
  0.43500000000E+004,  0.72594946835E+006,  0.16500000000E+002,  0.00000000000E+000,  0.10000000000E+001
  0.44100000000E+004,  0.72698196001E+006,  0.16500000000E+002,  0.00000000000E+000,  0.10000000000E+001
  0.44700000000E+004,  0.72800035867E+006,  0.16500000000E+002,  0.00000000000E+000,  0.10000000000E+001
  0.45300000000E+004,  0.72900504016E+006,  0.16500000000E+002,  0.00000000000E+000,  0.10000000000E+001
  0.45900000000E+004,  0.72999636550E+006,  0.16500000000E+002,  0.00000000000E+000,  0.10000000000E+001
  0.46500000000E+004,  0.73097468162E+006,  0.16500000000E+002,  0.00000000000E+000,  0.10000000000E+001
  0.47100000000E+004,  0.73194032216E+006,  0.16500000000E+002,  0.00000000000E+000,  0.10000000000E+001
  0.47700000000E+004,  0.73289360802E+006,  0.16500000000E+002,  0.00000000000E+000,  0.10000000000E+001
  0.48300000000E+004,  0.73383484814E+006,  0.16500000000E+002,  0.00000000000E+000,  0.10000000000E+001
  0.48900000000E+004,  0.73476434001E+006,  0.16500000000E+002,  0.00000000000E+000,  0.10000000000E+001
  0.49500000000E+004,  0.73568237025E+006,  0.16500000000E+002,  0.00000000000E+000,  0.10000000000E+001
  0.50100000000E+004,  0.73658921515E+006,  0.16500000000E+002,  0.00000000000E+000,  0.10000000000E+001
  0.50700000000E+004,  0.73748514114E+006,  0.16500000000E+002,  0.00000000000E+000,  0.10000000000E+001
  0.51300000000E+004,  0.73837040529E+006,  0.16500000000E+002,  0.00000000000E+000,  0.10000000000E+001
  0.51900000000E+004,  0.73924525569E+006,  0.16500000000E+002,  0.00000000000E+000,  0.10000000000E+001
  0.52500000000E+004,  0.74010993196E+006,  0.16500000000E+002,  0.00000000000E+000,  0.10000000000E+001
  0.53100000000E+004,  0.74096466493E+006,  0.16500000000E+002,  0.00000000000E+000,  0.10000000000E+001
  0.53700000000E+004,  0.74180967975E+006,  0.16500000000E+002,  0.00000000000E+000,  0.10000000000E+001
  0.54300000000E+004,  0.74264519141E+006,  0.16500000000E+002,  0.00000000000E+000,  0.10000000000E+001
  0.54900000000E+004,  0.74347140926E+006,  0.16500000000E+002,  0.00000000000E+000,  0.10000000000E+001
  0.55500000000E+004,  0.74428853573E+006,  0.16500000000E+002,  0.00000000000E+000,  0.10000000000E+001
  0.56100000000E+004,  0.74509676635E+006,  0.16500000000E+002,  0.00000000000E+000,  0.10000000000E+001
  0.56700000000E+004,  0.74589629139E+006,  0.16500000000E+002,  0.00000000000E+000,  0.10000000000E+001
  0.57300000000E+004,  0.74668729393E+006,  0.16500000000E+002,  0.00000000000E+000,  0.10000000000E+001
  0.57900000000E+004,  0.74746995200E+006,  0.16500000000E+002,  0.00000000000E+000,  0.10000000000E+001
  0.58500000000E+004,  0.74824443803E+006,  0.16500000000E+002,  0.00000000000E+000,  0.10000000000E+001
  0.59100000000E+004,  0.74901091920E+006,  0.16500000000E+002,  0.00000000000E+000,  0.10000000000E+001
  0.59700000000E+004,  0.74976955746E+006,  0.16500000000E+002,  0.00000000000E+000,  0.10000000000E+001
  0.60300000000E+004,  0.75058670837E+006,  0.16500000000E+002,  0.00000000000E+000,  0.10000000000E+001
  0.60900000000E+004,  0.75141249477E+006,  0.16500000000E+002,  0.00000000000E+000,  0.10000000000E+001
  0.61500000000E+004,  0.75217271331E+006,  0.16500000000E+002,  0.00000000000E+000,  0.10000000000E+001
  0.62100000000E+004,  0.75291485087E+006,  0.16500000000E+002,  0.00000000000E+000,  0.10000000000E+001
  0.62700000000E+004,  0.75364591884E+006,  0.16500000000E+002,  0.00000000000E+000,  0.10000000000E+001
  0.63300000000E+004,  0.75436797935E+006,  0.16500000000E+002,  0.00000000000E+000,  0.10000000000E+001
  0.63900000000E+004,  0.75508193858E+006,  0.16500000000E+002,  0.00000000000E+000,  0.10000000000E+001
  0.64500000000E+004,  0.75578831491E+006,  0.16500000000E+002,  0.00000000000E+000,  0.10000000000E+001
  0.65100000000E+004,  0.75648746106E+006,  0.16500000000E+002,  0.00000000000E+000,  0.10000000000E+001
  0.65700000000E+004,  0.75717963591E+006,  0.16500000000E+002,  0.00000000000E+000,  0.10000000000E+001
  0.66300000000E+004,  0.75786508415E+006,  0.16500000000E+002,  0.00000000000E+000,  0.10000000000E+001
  0.66900000000E+004,  0.75854397779E+006,  0.16500000000E+002,  0.00000000000E+000,  0.10000000000E+001
  0.67500000000E+004,  0.75921647134E+006,  0.16500000000E+002,  0.00000000000E+000,  0.10000000000E+001
  0.68100000000E+004,  0.75988273200E+006,  0.16500000000E+002,  0.00000000000E+000,  0.10000000000E+001
  0.68700000000E+004,  0.76054289336E+006,  0.16500000000E+002,  0.00000000000E+000,  0.10000000000E+001
  0.69300000000E+004,  0.76119708869E+006,  0.16500000000E+002,  0.00000000000E+000,  0.10000000000E+001
  0.69900000000E+004,  0.76184542421E+006,  0.16500000000E+002,  0.00000000000E+000,  0.10000000000E+001
  0.70500000000E+004,  0.76248803996E+006,  0.16500000000E+002,  0.00000000000E+000,  0.10000000000E+001
  0.71100000000E+004,  0.76312503191E+006,  0.16500000000E+002,  0.00000000000E+000,  0.10000000000E+001
  0.71700000000E+004,  0.76375651249E+006,  0.16500000000E+002,  0.00000000000E+000,  0.10000000000E+001
  0.72300000000E+004,  0.76438256618E+006,  0.16500000000E+002,  0.00000000000E+000,  0.10000000000E+001
  0.72900000000E+004,  0.76500331026E+006,  0.16500000000E+002,  0.00000000000E+000,  0.10000000000E+001
  0.73500000000E+004,  0.76561882390E+006,  0.16500000000E+002,  0.00000000000E+000,  0.10000000000E+001
  0.74100000000E+004,  0.76622920825E+006,  0.16500000000E+002,  0.00000000000E+000,  0.10000000000E+001
  0.74700000000E+004,  0.76683454839E+006,  0.16500000000E+002,  0.00000000000E+000,  0.10000000000E+001
  0.75300000000E+004,  0.76743492974E+006,  0.16500000000E+002,  0.00000000000E+000,  0.10000000000E+001
  0.75900000000E+004,  0.76803043692E+006,  0.16500000000E+002,  0.00000000000E+000,  0.10000000000E+001
  0.76500000000E+004,  0.76862114488E+006,  0.16500000000E+002,  0.00000000000E+000,  0.10000000000E+001
  0.77100000000E+004,  0.76920713859E+006,  0.16500000000E+002,  0.00000000000E+000,  0.10000000000E+001
  0.77700000000E+004,  0.76978849141E+006,  0.16500000000E+002,  0.00000000000E+000,  0.10000000000E+001
  0.78300000000E+004,  0.77036527767E+006,  0.16500000000E+002,  0.00000000000E+000,  0.10000000000E+001
  0.78900000000E+004,  0.77093756942E+006,  0.16500000000E+002,  0.00000000000E+000,  0.10000000000E+001
  0.79500000000E+004,  0.77150543290E+006,  0.16500000000E+002,  0.00000000000E+000,  0.10000000000E+001
  0.80100000000E+004,  0.77206895057E+006,  0.16500000000E+002,  0.00000000000E+000,  0.10000000000E+001
  0.80700000000E+004,  0.77262817703E+006,  0.16500000000E+002,  0.00000000000E+000,  0.10000000000E+001
  0.81300000000E+004,  0.77318317986E+006,  0.16500000000E+002,  0.00000000000E+000,  0.10000000000E+001
  0.81900000000E+004,  0.77373402748E+006,  0.16500000000E+002,  0.00000000000E+000,  0.10000000000E+001
  0.82500000000E+004,  0.77428077428E+006,  0.16500000000E+002,  0.00000000000E+000,  0.10000000000E+001
  0.83100000000E+004,  0.77482348704E+006,  0.16500000000E+002,  0.00000000000E+000,  0.10000000000E+001
  0.83700000000E+004,  0.77536222720E+006,  0.16500000000E+002,  0.00000000000E+000,  0.10000000000E+001
  0.84300000000E+004,  0.77589704401E+006,  0.16500000000E+002,  0.00000000000E+000,  0.10000000000E+001
  0.84900000000E+004,  0.77642800183E+006,  0.16500000000E+002,  0.00000000000E+000,  0.10000000000E+001
  0.85500000000E+004,  0.77695515445E+006,  0.16500000000E+002,  0.00000000000E+000,  0.10000000000E+001
  0.86100000000E+004,  0.77747855597E+006,  0.16500000000E+002,  0.00000000000E+000,  0.10000000000E+001
  0.86700000000E+004,  0.77799826197E+006,  0.16500000000E+002,  0.00000000000E+000,  0.10000000000E+001
  0.87300000000E+004,  0.77851431707E+006,  0.16500000000E+002,  0.00000000000E+000,  0.10000000000E+001
  0.87900000000E+004,  0.77902677999E+006,  0.16500000000E+002,  0.00000000000E+000,  0.10000000000E+001
  0.88500000000E+004,  0.77953569630E+006,  0.16500000000E+002,  0.00000000000E+000,  0.10000000000E+001
  0.89100000000E+004,  0.78004111533E+006,  0.16500000000E+002,  0.00000000000E+000,  0.10000000000E+001
  0.89700000000E+004,  0.78054308687E+006,  0.16500000000E+002,  0.00000000000E+000,  0.10000000000E+001
  0.90300000000E+004,  0.78104165455E+006,  0.16500000000E+002,  0.00000000000E+000,  0.10000000000E+001
  0.90900000000E+004,  0.78153686705E+006,  0.16500000000E+002,  0.00000000000E+000,  0.10000000000E+001
  0.91500000000E+004,  0.78202876694E+006,  0.16500000000E+002,  0.00000000000E+000,  0.10000000000E+001
  0.92100000000E+004,  0.78251739867E+006,  0.16500000000E+002,  0.00000000000E+000,  0.10000000000E+001
  0.92700000000E+004,  0.78300280526E+006,  0.16500000000E+002,  0.00000000000E+000,  0.10000000000E+001
  0.93300000000E+004,  0.78348502780E+006,  0.16500000000E+002,  0.00000000000E+000,  0.10000000000E+001
  0.93900000000E+004,  0.78396411042E+006,  0.16500000000E+002,  0.00000000000E+000,  0.10000000000E+001
  0.94500000000E+004,  0.78444008976E+006,  0.16500000000E+002,  0.00000000000E+000,  0.10000000000E+001
  0.95100000000E+004,  0.78491300839E+006,  0.16500000000E+002,  0.00000000000E+000,  0.10000000000E+001
  0.95700000000E+004,  0.78538290693E+006,  0.16500000000E+002,  0.00000000000E+000,  0.10000000000E+001
  0.96300000000E+004,  0.78584981646E+006,  0.16500000000E+002,  0.00000000000E+000,  0.10000000000E+001
  0.96900000000E+004,  0.78631377969E+006,  0.16500000000E+002,  0.00000000000E+000,  0.10000000000E+001
  0.97500000000E+004,  0.78677483137E+006,  0.16500000000E+002,  0.00000000000E+000,  0.10000000000E+001
  0.98100000000E+004,  0.78723300920E+006,  0.16500000000E+002,  0.00000000000E+000,  0.10000000000E+001
  0.98700000000E+004,  0.78768834750E+006,  0.16500000000E+002,  0.00000000000E+000,  0.10000000000E+001
  0.99300000000E+004,  0.78814088031E+006,  0.16500000000E+002,  0.00000000000E+000,  0.10000000000E+001
  0.99900000000E+004,  0.78859064182E+006,  0.16500000000E+002,  0.00000000000E+000,  0.10000000000E+001
  0.10050000000E+005,  0.78903766561E+006,  0.16500000000E+002,  0.00000000000E+000,  0.10000000000E+001
  0.10110000000E+005,  0.78948198358E+006,  0.16500000000E+002,  0.00000000000E+000,  0.10000000000E+001
  0.10170000000E+005,  0.78992362787E+006,  0.16500000000E+002,  0.00000000000E+000,  0.10000000000E+001
  0.10230000000E+005,  0.79036263044E+006,  0.16500000000E+002,  0.00000000000E+000,  0.10000000000E+001
  0.10290000000E+005,  0.79079902334E+006,  0.16500000000E+002,  0.00000000000E+000,  0.10000000000E+001
  0.10350000000E+005,  0.79123283359E+006,  0.16500000000E+002,  0.00000000000E+000,  0.10000000000E+001
  0.10410000000E+005,  0.79166409449E+006,  0.16500000000E+002,  0.00000000000E+000,  0.10000000000E+001
  0.10470000000E+005,  0.79209283419E+006,  0.16500000000E+002,  0.00000000000E+000,  0.10000000000E+001
  0.10530000000E+005,  0.79251907989E+006,  0.16500000000E+002,  0.00000000000E+000,  0.10000000000E+001
  0.10590000000E+005,  0.79294286108E+006,  0.16500000000E+002,  0.00000000000E+000,  0.10000000000E+001
  0.10650000000E+005,  0.79336420476E+006,  0.16500000000E+002,  0.00000000000E+000,  0.10000000000E+001
  0.10710000000E+005,  0.79378313847E+006,  0.16500000000E+002,  0.00000000000E+000,  0.10000000000E+001
  0.10770000000E+005,  0.79419968913E+006,  0.16500000000E+002,  0.00000000000E+000,  0.10000000000E+001
  0.10830000000E+005,  0.79461388279E+006,  0.16500000000E+002,  0.00000000000E+000,  0.10000000000E+001
  0.10890000000E+005,  0.79502574520E+006,  0.16500000000E+002,  0.00000000000E+000,  0.10000000000E+001
  0.10950000000E+005,  0.79543530172E+006,  0.16500000000E+002,  0.00000000000E+000,  0.10000000000E+001
  0.11010000000E+005,  0.79584257704E+006,  0.16500000000E+002,  0.00000000000E+000,  0.10000000000E+001
  0.11070000000E+005,  0.79624759624E+006,  0.16500000000E+002,  0.00000000000E+000,  0.10000000000E+001
  0.11130000000E+005,  0.79665038284E+006,  0.16500000000E+002,  0.00000000000E+000,  0.10000000000E+001
  0.11190000000E+005,  0.79705096017E+006,  0.16500000000E+002,  0.00000000000E+000,  0.10000000000E+001
  0.11250000000E+005,  0.79744935199E+006,  0.16500000000E+002,  0.00000000000E+000,  0.10000000000E+001
