"           TIME(S)","              PRES","              TEMP","             SAT_G","             SAT_L"
  0.94860000000E+005,  0.97407862786E+006,  0.16500000000E+002,  0.00000000000E+000,  0.10000000000E+001
  0.94870000000E+005,  0.97407862789E+006,  0.16500000000E+002,  0.00000000000E+000,  0.10000000000E+001
  0.94880000000E+005,  0.97407862792E+006,  0.16500000000E+002,  0.00000000000E+000,  0.10000000000E+001
  0.94890000000E+005,  0.97407862795E+006,  0.16500000000E+002,  0.00000000000E+000,  0.10000000000E+001
  0.94900000000E+005,  0.97407862797E+006,  0.16500000000E+002,  0.00000000000E+000,  0.10000000000E+001
  0.94910000000E+005,  0.97407862800E+006,  0.16500000000E+002,  0.00000000000E+000,  0.10000000000E+001
  0.94920000000E+005,  0.97407862803E+006,  0.16500000000E+002,  0.00000000000E+000,  0.10000000000E+001
  0.94930000000E+005,  0.97407862806E+006,  0.16500000000E+002,  0.00000000000E+000,  0.10000000000E+001
  0.94940000000E+005,  0.97407862809E+006,  0.16500000000E+002,  0.00000000000E+000,  0.10000000000E+001
  0.94950000000E+005,  0.97407862812E+006,  0.16500000000E+002,  0.00000000000E+000,  0.10000000000E+001
  0.94960000000E+005,  0.97407862815E+006,  0.16500000000E+002,  0.00000000000E+000,  0.10000000000E+001
  0.94970000000E+005,  0.97407862818E+006,  0.16500000000E+002,  0.00000000000E+000,  0.10000000000E+001
  0.94980000000E+005,  0.97407862821E+006,  0.16500000000E+002,  0.00000000000E+000,  0.10000000000E+001
  0.94990000000E+005,  0.97407862824E+006,  0.16500000000E+002,  0.00000000000E+000,  0.10000000000E+001
  0.95000000000E+005,  0.97407862827E+006,  0.16500000000E+002,  0.00000000000E+000,  0.10000000000E+001
  0.95010000000E+005,  0.97407862830E+006,  0.16500000000E+002,  0.00000000000E+000,  0.10000000000E+001
  0.95020000000E+005,  0.97407862833E+006,  0.16500000000E+002,  0.00000000000E+000,  0.10000000000E+001
  0.95030000000E+005,  0.97407862835E+006,  0.16500000000E+002,  0.00000000000E+000,  0.10000000000E+001
  0.95040000000E+005,  0.97407862838E+006,  0.16500000000E+002,  0.00000000000E+000,  0.10000000000E+001
  0.95050000000E+005,  0.97407862841E+006,  0.16500000000E+002,  0.00000000000E+000,  0.10000000000E+001
  0.95060000000E+005,  0.97407862844E+006,  0.16500000000E+002,  0.00000000000E+000,  0.10000000000E+001
  0.95070000000E+005,  0.97407862847E+006,  0.16500000000E+002,  0.00000000000E+000,  0.10000000000E+001
  0.95080000000E+005,  0.97407862850E+006,  0.16500000000E+002,  0.00000000000E+000,  0.10000000000E+001
  0.95090000000E+005,  0.97407862852E+006,  0.16500000000E+002,  0.00000000000E+000,  0.10000000000E+001
  0.95100000000E+005,  0.97407862855E+006,  0.16500000000E+002,  0.00000000000E+000,  0.10000000000E+001
  0.95110000000E+005,  0.97407862858E+006,  0.16500000000E+002,  0.00000000000E+000,  0.10000000000E+001
  0.95120000000E+005,  0.97407862861E+006,  0.16500000000E+002,  0.00000000000E+000,  0.10000000000E+001
  0.95128100000E+005,  0.97407862863E+006,  0.16500000000E+002,  0.00000000000E+000,  0.10000000000E+001
  0.95138100000E+005,  0.97407862866E+006,  0.16500000000E+002,  0.00000000000E+000,  0.10000000000E+001
  0.95148100000E+005,  0.97407862868E+006,  0.16500000000E+002,  0.00000000000E+000,  0.10000000000E+001
  0.95158100000E+005,  0.97407862871E+006,  0.16500000000E+002,  0.00000000000E+000,  0.10000000000E+001
  0.95168100000E+005,  0.97407862873E+006,  0.16500000000E+002,  0.00000000000E+000,  0.10000000000E+001
  0.95178100000E+005,  0.97407862876E+006,  0.16500000000E+002,  0.00000000000E+000,  0.10000000000E+001
  0.95188100000E+005,  0.97407862878E+006,  0.16500000000E+002,  0.00000000000E+000,  0.10000000000E+001
  0.95198100000E+005,  0.97407862881E+006,  0.16500000000E+002,  0.00000000000E+000,  0.10000000000E+001
  0.95208100000E+005,  0.97407862883E+006,  0.16500000000E+002,  0.00000000000E+000,  0.10000000000E+001
  0.95218100000E+005,  0.97407862885E+006,  0.16500000000E+002,  0.00000000000E+000,  0.10000000000E+001
  0.95228100000E+005,  0.97407862888E+006,  0.16500000000E+002,  0.00000000000E+000,  0.10000000000E+001
  0.95238100000E+005,  0.97407862890E+006,  0.16500000000E+002,  0.00000000000E+000,  0.10000000000E+001
  0.95248100000E+005,  0.97407862892E+006,  0.16500000000E+002,  0.00000000000E+000,  0.10000000000E+001
  0.95258100000E+005,  0.97407862894E+006,  0.16500000000E+002,  0.00000000000E+000,  0.10000000000E+001
  0.95268100000E+005,  0.97407862896E+006,  0.16500000000E+002,  0.00000000000E+000,  0.10000000000E+001
  0.95278100000E+005,  0.97407862898E+006,  0.16500000000E+002,  0.00000000000E+000,  0.10000000000E+001
  0.95288100000E+005,  0.97407862900E+006,  0.16500000000E+002,  0.00000000000E+000,  0.10000000000E+001
  0.95298100000E+005,  0.97407862902E+006,  0.16500000000E+002,  0.00000000000E+000,  0.10000000000E+001
  0.95308100000E+005,  0.97407862904E+006,  0.16500000000E+002,  0.00000000000E+000,  0.10000000000E+001
  0.95318100000E+005,  0.97407862906E+006,  0.16500000000E+002,  0.00000000000E+000,  0.10000000000E+001
  0.95328100000E+005,  0.97407862908E+006,  0.16500000000E+002,  0.00000000000E+000,  0.10000000000E+001
  0.95338100000E+005,  0.97407862910E+006,  0.16500000000E+002,  0.00000000000E+000,  0.10000000000E+001
  0.95348100000E+005,  0.97407862911E+006,  0.16500000000E+002,  0.00000000000E+000,  0.10000000000E+001
  0.95358100000E+005,  0.97407862913E+006,  0.16500000000E+002,  0.00000000000E+000,  0.10000000000E+001
  0.95368100000E+005,  0.97407862914E+006,  0.16500000000E+002,  0.00000000000E+000,  0.10000000000E+001
  0.95378100000E+005,  0.97407862916E+006,  0.16500000000E+002,  0.00000000000E+000,  0.10000000000E+001
  0.95388100000E+005,  0.97407862917E+006,  0.16500000000E+002,  0.00000000000E+000,  0.10000000000E+001
  0.95398100000E+005,  0.97407862918E+006,  0.16500000000E+002,  0.00000000000E+000,  0.10000000000E+001
  0.95398200000E+005,  0.97407862918E+006,  0.16500000000E+002,  0.00000000000E+000,  0.10000000000E+001
  0.95408200000E+005,  0.97407862920E+006,  0.16500000000E+002,  0.00000000000E+000,  0.10000000000E+001
  0.95418200000E+005,  0.97407862921E+006,  0.16500000000E+002,  0.00000000000E+000,  0.10000000000E+001
  0.95428200000E+005,  0.97407862922E+006,  0.16500000000E+002,  0.00000000000E+000,  0.10000000000E+001
  0.95438200000E+005,  0.97407862923E+006,  0.16500000000E+002,  0.00000000000E+000,  0.10000000000E+001
  0.95448200000E+005,  0.97407862924E+006,  0.16500000000E+002,  0.00000000000E+000,  0.10000000000E+001
  0.95458200000E+005,  0.97407862925E+006,  0.16500000000E+002,  0.00000000000E+000,  0.10000000000E+001
  0.95468200000E+005,  0.97407862926E+006,  0.16500000000E+002,  0.00000000000E+000,  0.10000000000E+001
  0.95478200000E+005,  0.97407862926E+006,  0.16500000000E+002,  0.00000000000E+000,  0.10000000000E+001
  0.95488200000E+005,  0.97407862927E+006,  0.16500000000E+002,  0.00000000000E+000,  0.10000000000E+001
  0.95498200000E+005,  0.97407862927E+006,  0.16500000000E+002,  0.00000000000E+000,  0.10000000000E+001
  0.95508200000E+005,  0.97407862928E+006,  0.16500000000E+002,  0.00000000000E+000,  0.10000000000E+001
  0.95518200000E+005,  0.97407862928E+006,  0.16500000000E+002,  0.00000000000E+000,  0.10000000000E+001
  0.95528200000E+005,  0.97407862928E+006,  0.16500000000E+002,  0.00000000000E+000,  0.10000000000E+001
  0.95538200000E+005,  0.97407862929E+006,  0.16500000000E+002,  0.00000000000E+000,  0.10000000000E+001
  0.95548200000E+005,  0.97407862929E+006,  0.16500000000E+002,  0.00000000000E+000,  0.10000000000E+001
  0.95558200000E+005,  0.97407862929E+006,  0.16500000000E+002,  0.00000000000E+000,  0.10000000000E+001
  0.95568200000E+005,  0.97407862928E+006,  0.16500000000E+002,  0.00000000000E+000,  0.10000000000E+001
  0.95578200000E+005,  0.97407862928E+006,  0.16500000000E+002,  0.00000000000E+000,  0.10000000000E+001
  0.95588200000E+005,  0.97407862928E+006,  0.16500000000E+002,  0.00000000000E+000,  0.10000000000E+001
  0.95598200000E+005,  0.97407862927E+006,  0.16500000000E+002,  0.00000000000E+000,  0.10000000000E+001
  0.95608200000E+005,  0.97407862927E+006,  0.16500000000E+002,  0.00000000000E+000,  0.10000000000E+001
  0.95618200000E+005,  0.97407862926E+006,  0.16500000000E+002,  0.00000000000E+000,  0.10000000000E+001
  0.95628200000E+005,  0.97407862925E+006,  0.16500000000E+002,  0.00000000000E+000,  0.10000000000E+001
  0.95638200000E+005,  0.97407862924E+006,  0.16500000000E+002,  0.00000000000E+000,  0.10000000000E+001
  0.95648200000E+005,  0.97407862923E+006,  0.16500000000E+002,  0.00000000000E+000,  0.10000000000E+001
  0.95658200000E+005,  0.97407862922E+006,  0.16500000000E+002,  0.00000000000E+000,  0.10000000000E+001
  0.95668200000E+005,  0.97407862921E+006,  0.16500000000E+002,  0.00000000000E+000,  0.10000000000E+001
  0.95668300000E+005,  0.97407862921E+006,  0.16500000000E+002,  0.00000000000E+000,  0.10000000000E+001
  0.95678300000E+005,  0.97407862920E+006,  0.16500000000E+002,  0.00000000000E+000,  0.10000000000E+001
  0.95688300000E+005,  0.97407862918E+006,  0.16500000000E+002,  0.00000000000E+000,  0.10000000000E+001
  0.95698300000E+005,  0.97407862916E+006,  0.16500000000E+002,  0.00000000000E+000,  0.10000000000E+001
  0.95708300000E+005,  0.97407862915E+006,  0.16500000000E+002,  0.00000000000E+000,  0.10000000000E+001
  0.95718300000E+005,  0.97407862913E+006,  0.16500000000E+002,  0.00000000000E+000,  0.10000000000E+001
  0.95728300000E+005,  0.97407862911E+006,  0.16500000000E+002,  0.00000000000E+000,  0.10000000000E+001
  0.95738300000E+005,  0.97407862908E+006,  0.16500000000E+002,  0.00000000000E+000,  0.10000000000E+001
  0.95748300000E+005,  0.97407862906E+006,  0.16500000000E+002,  0.00000000000E+000,  0.10000000000E+001
  0.95758300000E+005,  0.97407862903E+006,  0.16500000000E+002,  0.00000000000E+000,  0.10000000000E+001
  0.95768300000E+005,  0.97407862901E+006,  0.16500000000E+002,  0.00000000000E+000,  0.10000000000E+001
  0.95778300000E+005,  0.97407862898E+006,  0.16500000000E+002,  0.00000000000E+000,  0.10000000000E+001
  0.95788300000E+005,  0.97407862895E+006,  0.16500000000E+002,  0.00000000000E+000,  0.10000000000E+001
  0.95798300000E+005,  0.97407862892E+006,  0.16500000000E+002,  0.00000000000E+000,  0.10000000000E+001
  0.95808300000E+005,  0.97407862889E+006,  0.16500000000E+002,  0.00000000000E+000,  0.10000000000E+001
  0.95818300000E+005,  0.97407862885E+006,  0.16500000000E+002,  0.00000000000E+000,  0.10000000000E+001
  0.95828300000E+005,  0.97407862881E+006,  0.16500000000E+002,  0.00000000000E+000,  0.10000000000E+001
  0.95838300000E+005,  0.97407862878E+006,  0.16500000000E+002,  0.00000000000E+000,  0.10000000000E+001
  0.95848300000E+005,  0.97407862874E+006,  0.16500000000E+002,  0.00000000000E+000,  0.10000000000E+001
  0.95858300000E+005,  0.97407862870E+006,  0.16500000000E+002,  0.00000000000E+000,  0.10000000000E+001
  0.95868300000E+005,  0.97407862865E+006,  0.16500000000E+002,  0.00000000000E+000,  0.10000000000E+001
  0.95878300000E+005,  0.97407862861E+006,  0.16500000000E+002,  0.00000000000E+000,  0.10000000000E+001
  0.95888300000E+005,  0.97407862856E+006,  0.16500000000E+002,  0.00000000000E+000,  0.10000000000E+001
  0.95898300000E+005,  0.97407862851E+006,  0.16500000000E+002,  0.00000000000E+000,  0.10000000000E+001
  0.95908300000E+005,  0.97407862846E+006,  0.16500000000E+002,  0.00000000000E+000,  0.10000000000E+001
  0.95918300000E+005,  0.97407862841E+006,  0.16500000000E+002,  0.00000000000E+000,  0.10000000000E+001
  0.95928300000E+005,  0.97407862835E+006,  0.16500000000E+002,  0.00000000000E+000,  0.10000000000E+001
  0.95938300000E+005,  0.97407862830E+006,  0.16500000000E+002,  0.00000000000E+000,  0.10000000000E+001
  0.95938400000E+005,  0.97407862830E+006,  0.16500000000E+002,  0.00000000000E+000,  0.10000000000E+001
  0.95948400000E+005,  0.97407862824E+006,  0.16500000000E+002,  0.00000000000E+000,  0.10000000000E+001
  0.95958400000E+005,  0.97407862818E+006,  0.16500000000E+002,  0.00000000000E+000,  0.10000000000E+001
  0.95968400000E+005,  0.97407862811E+006,  0.16500000000E+002,  0.00000000000E+000,  0.10000000000E+001
  0.95978400000E+005,  0.97407862805E+006,  0.16500000000E+002,  0.00000000000E+000,  0.10000000000E+001
  0.95988400000E+005,  0.97407862798E+006,  0.16500000000E+002,  0.00000000000E+000,  0.10000000000E+001
  0.95998400000E+005,  0.97407862791E+006,  0.16500000000E+002,  0.00000000000E+000,  0.10000000000E+001
  0.96008400000E+005,  0.97407862784E+006,  0.16500000000E+002,  0.00000000000E+000,  0.10000000000E+001
  0.96018400000E+005,  0.97407862777E+006,  0.16500000000E+002,  0.00000000000E+000,  0.10000000000E+001
  0.96028400000E+005,  0.97407862769E+006,  0.16500000000E+002,  0.00000000000E+000,  0.10000000000E+001
  0.96038400000E+005,  0.97407862761E+006,  0.16500000000E+002,  0.00000000000E+000,  0.10000000000E+001
  0.96048400000E+005,  0.97407862753E+006,  0.16500000000E+002,  0.00000000000E+000,  0.10000000000E+001
  0.96058400000E+005,  0.97407862745E+006,  0.16500000000E+002,  0.00000000000E+000,  0.10000000000E+001
  0.96068400000E+005,  0.97407862736E+006,  0.16500000000E+002,  0.00000000000E+000,  0.10000000000E+001
  0.96078400000E+005,  0.97407862728E+006,  0.16500000000E+002,  0.00000000000E+000,  0.10000000000E+001
  0.96088400000E+005,  0.97407862719E+006,  0.16500000000E+002,  0.00000000000E+000,  0.10000000000E+001
  0.96098400000E+005,  0.97407862709E+006,  0.16500000000E+002,  0.00000000000E+000,  0.10000000000E+001
  0.96108400000E+005,  0.97407862700E+006,  0.16500000000E+002,  0.00000000000E+000,  0.10000000000E+001
  0.96118400000E+005,  0.97407862690E+006,  0.16500000000E+002,  0.00000000000E+000,  0.10000000000E+001
  0.96128400000E+005,  0.97407862680E+006,  0.16500000000E+002,  0.00000000000E+000,  0.10000000000E+001
  0.96138400000E+005,  0.97407862669E+006,  0.16500000000E+002,  0.00000000000E+000,  0.10000000000E+001
  0.96148400000E+005,  0.97407862659E+006,  0.16500000000E+002,  0.00000000000E+000,  0.10000000000E+001
  0.96158400000E+005,  0.97407862648E+006,  0.16500000000E+002,  0.00000000000E+000,  0.10000000000E+001
  0.96168400000E+005,  0.97407862637E+006,  0.16500000000E+002,  0.00000000000E+000,  0.10000000000E+001
  0.96178400000E+005,  0.97407862625E+006,  0.16500000000E+002,  0.00000000000E+000,  0.10000000000E+001
  0.96188400000E+005,  0.97407862614E+006,  0.16500000000E+002,  0.00000000000E+000,  0.10000000000E+001
  0.96198400000E+005,  0.97407862601E+006,  0.16500000000E+002,  0.00000000000E+000,  0.10000000000E+001
  0.96208400000E+005,  0.97407862589E+006,  0.16500000000E+002,  0.00000000000E+000,  0.10000000000E+001
  0.96208500000E+005,  0.97407862589E+006,  0.16500000000E+002,  0.00000000000E+000,  0.10000000000E+001
  0.96218500000E+005,  0.97407862576E+006,  0.16500000000E+002,  0.00000000000E+000,  0.10000000000E+001
  0.96228500000E+005,  0.97407862564E+006,  0.16500000000E+002,  0.00000000000E+000,  0.10000000000E+001
  0.96238500000E+005,  0.97407862550E+006,  0.16500000000E+002,  0.00000000000E+000,  0.10000000000E+001
  0.96248500000E+005,  0.97407862537E+006,  0.16500000000E+002,  0.00000000000E+000,  0.10000000000E+001
  0.96258500000E+005,  0.97407862523E+006,  0.16500000000E+002,  0.00000000000E+000,  0.10000000000E+001
  0.96268500000E+005,  0.97407862509E+006,  0.16500000000E+002,  0.00000000000E+000,  0.10000000000E+001
  0.96278500000E+005,  0.97407862494E+006,  0.16500000000E+002,  0.00000000000E+000,  0.10000000000E+001
  0.96288500000E+005,  0.97407862480E+006,  0.16500000000E+002,  0.00000000000E+000,  0.10000000000E+001
  0.96298500000E+005,  0.97407862465E+006,  0.16500000000E+002,  0.00000000000E+000,  0.10000000000E+001
  0.96308500000E+005,  0.97407862449E+006,  0.16500000000E+002,  0.00000000000E+000,  0.10000000000E+001
  0.96318500000E+005,  0.97407862433E+006,  0.16500000000E+002,  0.00000000000E+000,  0.10000000000E+001
  0.96328500000E+005,  0.97407862417E+006,  0.16500000000E+002,  0.00000000000E+000,  0.10000000000E+001
  0.96338500000E+005,  0.97407862401E+006,  0.16500000000E+002,  0.00000000000E+000,  0.10000000000E+001
  0.96348500000E+005,  0.97407862384E+006,  0.16500000000E+002,  0.00000000000E+000,  0.10000000000E+001
  0.96358500000E+005,  0.97407862367E+006,  0.16500000000E+002,  0.00000000000E+000,  0.10000000000E+001
  0.96368500000E+005,  0.97407862350E+006,  0.16500000000E+002,  0.00000000000E+000,  0.10000000000E+001
  0.96378500000E+005,  0.97407862332E+006,  0.16500000000E+002,  0.00000000000E+000,  0.10000000000E+001
  0.96388500000E+005,  0.97407862314E+006,  0.16500000000E+002,  0.00000000000E+000,  0.10000000000E+001
  0.96398500000E+005,  0.97407862295E+006,  0.16500000000E+002,  0.00000000000E+000,  0.10000000000E+001
  0.96408500000E+005,  0.97407862276E+006,  0.16500000000E+002,  0.00000000000E+000,  0.10000000000E+001
  0.96418500000E+005,  0.97407862257E+006,  0.16500000000E+002,  0.00000000000E+000,  0.10000000000E+001
  0.96428500000E+005,  0.97407862238E+006,  0.16500000000E+002,  0.00000000000E+000,  0.10000000000E+001
  0.96438500000E+005,  0.97407862218E+006,  0.16500000000E+002,  0.00000000000E+000,  0.10000000000E+001
  0.96448500000E+005,  0.97407862197E+006,  0.16500000000E+002,  0.00000000000E+000,  0.10000000000E+001
  0.96458500000E+005,  0.97407862176E+006,  0.16500000000E+002,  0.00000000000E+000,  0.10000000000E+001
  0.96468500000E+005,  0.97407862155E+006,  0.16500000000E+002,  0.00000000000E+000,  0.10000000000E+001
  0.96478500000E+005,  0.97407862134E+006,  0.16500000000E+002,  0.00000000000E+000,  0.10000000000E+001
  0.96478600000E+005,  0.97407862134E+006,  0.16500000000E+002,  0.00000000000E+000,  0.10000000000E+001
  0.96488600000E+005,  0.97407862112E+006,  0.16500000000E+002,  0.00000000000E+000,  0.10000000000E+001
  0.96498600000E+005,  0.97407862090E+006,  0.16500000000E+002,  0.00000000000E+000,  0.10000000000E+001
  0.96508600000E+005,  0.97407862067E+006,  0.16500000000E+002,  0.00000000000E+000,  0.10000000000E+001
  0.96518600000E+005,  0.97407862044E+006,  0.16500000000E+002,  0.00000000000E+000,  0.10000000000E+001
  0.96528600000E+005,  0.97407862020E+006,  0.16500000000E+002,  0.00000000000E+000,  0.10000000000E+001
  0.96538600000E+005,  0.97407861996E+006,  0.16500000000E+002,  0.00000000000E+000,  0.10000000000E+001
  0.96548600000E+005,  0.97407861972E+006,  0.16500000000E+002,  0.00000000000E+000,  0.10000000000E+001
  0.96558600000E+005,  0.97407861948E+006,  0.16500000000E+002,  0.00000000000E+000,  0.10000000000E+001
  0.96568600000E+005,  0.97407861922E+006,  0.16500000000E+002,  0.00000000000E+000,  0.10000000000E+001
  0.96578600000E+005,  0.97407861897E+006,  0.16500000000E+002,  0.00000000000E+000,  0.10000000000E+001
  0.96588600000E+005,  0.97407861871E+006,  0.16500000000E+002,  0.00000000000E+000,  0.10000000000E+001
  0.96598600000E+005,  0.97407861845E+006,  0.16500000000E+002,  0.00000000000E+000,  0.10000000000E+001
  0.96608600000E+005,  0.97407861818E+006,  0.16500000000E+002,  0.00000000000E+000,  0.10000000000E+001
  0.96618600000E+005,  0.97407861791E+006,  0.16500000000E+002,  0.00000000000E+000,  0.10000000000E+001
  0.96628600000E+005,  0.97407861763E+006,  0.16500000000E+002,  0.00000000000E+000,  0.10000000000E+001
  0.96638600000E+005,  0.97407861735E+006,  0.16500000000E+002,  0.00000000000E+000,  0.10000000000E+001
  0.96648600000E+005,  0.97407861706E+006,  0.16500000000E+002,  0.00000000000E+000,  0.10000000000E+001
  0.96658600000E+005,  0.97407861677E+006,  0.16500000000E+002,  0.00000000000E+000,  0.10000000000E+001
  0.96668600000E+005,  0.97407861648E+006,  0.16500000000E+002,  0.00000000000E+000,  0.10000000000E+001
  0.96678600000E+005,  0.97407861618E+006,  0.16500000000E+002,  0.00000000000E+000,  0.10000000000E+001
  0.96688600000E+005,  0.97407861587E+006,  0.16500000000E+002,  0.00000000000E+000,  0.10000000000E+001
