"           TIME(S)","              PRES","              TEMP","             SAT_G","             SAT_L"
  0.23301000000E+005,  0.41157011986E+006,  0.16500000000E+002,  0.00000000000E+000,  0.10000000000E+001
  0.23306000000E+005,  0.41157011990E+006,  0.16500000000E+002,  0.00000000000E+000,  0.10000000000E+001
  0.23331000000E+005,  0.41157012006E+006,  0.16500000000E+002,  0.00000000000E+000,  0.10000000000E+001
  0.23391000000E+005,  0.41157012045E+006,  0.16500000000E+002,  0.00000000000E+000,  0.10000000000E+001
  0.23451000000E+005,  0.41157012094E+006,  0.16500000000E+002,  0.00000000000E+000,  0.10000000000E+001
  0.23511000000E+005,  0.41157012155E+006,  0.16500000000E+002,  0.00000000000E+000,  0.10000000000E+001
  0.23571000000E+005,  0.41157012222E+006,  0.16500000000E+002,  0.00000000000E+000,  0.10000000000E+001
  0.23631000000E+005,  0.41157012294E+006,  0.16500000000E+002,  0.00000000000E+000,  0.10000000000E+001
  0.23691000000E+005,  0.41157012367E+006,  0.16500000000E+002,  0.00000000000E+000,  0.10000000000E+001
  0.23751000000E+005,  0.41157012439E+006,  0.16500000000E+002,  0.00000000000E+000,  0.10000000000E+001
  0.23811000000E+005,  0.41157012508E+006,  0.16500000000E+002,  0.00000000000E+000,  0.10000000000E+001
  0.23871000000E+005,  0.41157012574E+006,  0.16500000000E+002,  0.00000000000E+000,  0.10000000000E+001
  0.23931000000E+005,  0.41157012635E+006,  0.16500000000E+002,  0.00000000000E+000,  0.10000000000E+001
  0.23991000000E+005,  0.41157012692E+006,  0.16500000000E+002,  0.00000000000E+000,  0.10000000000E+001
  0.24051000000E+005,  0.41157012745E+006,  0.16500000000E+002,  0.00000000000E+000,  0.10000000000E+001
  0.24111000000E+005,  0.41157012795E+006,  0.16500000000E+002,  0.00000000000E+000,  0.10000000000E+001
  0.24171000000E+005,  0.41157012840E+006,  0.16500000000E+002,  0.00000000000E+000,  0.10000000000E+001
  0.24231000000E+005,  0.41157012883E+006,  0.16500000000E+002,  0.00000000000E+000,  0.10000000000E+001
  0.24291000000E+005,  0.41157012922E+006,  0.16500000000E+002,  0.00000000000E+000,  0.10000000000E+001
  0.24351000000E+005,  0.41157012959E+006,  0.16500000000E+002,  0.00000000000E+000,  0.10000000000E+001
  0.24411000000E+005,  0.41157012994E+006,  0.16500000000E+002,  0.00000000000E+000,  0.10000000000E+001
  0.24471000000E+005,  0.41157013027E+006,  0.16500000000E+002,  0.00000000000E+000,  0.10000000000E+001
  0.24531000000E+005,  0.41157013057E+006,  0.16500000000E+002,  0.00000000000E+000,  0.10000000000E+001
  0.24591000000E+005,  0.41157013087E+006,  0.16500000000E+002,  0.00000000000E+000,  0.10000000000E+001
  0.24651000000E+005,  0.41157013115E+006,  0.16500000000E+002,  0.00000000000E+000,  0.10000000000E+001
  0.24711000000E+005,  0.41157013143E+006,  0.16500000000E+002,  0.00000000000E+000,  0.10000000000E+001
  0.24771000000E+005,  0.41157013169E+006,  0.16500000000E+002,  0.00000000000E+000,  0.10000000000E+001
  0.24831000000E+005,  0.41157013194E+006,  0.16500000000E+002,  0.00000000000E+000,  0.10000000000E+001
  0.24891000000E+005,  0.41157013219E+006,  0.16500000000E+002,  0.00000000000E+000,  0.10000000000E+001
  0.24951000000E+005,  0.41157013244E+006,  0.16500000000E+002,  0.00000000000E+000,  0.10000000000E+001
  0.25011000000E+005,  0.41157013268E+006,  0.16500000000E+002,  0.00000000000E+000,  0.10000000000E+001
  0.25071000000E+005,  0.41157013291E+006,  0.16500000000E+002,  0.00000000000E+000,  0.10000000000E+001
  0.25131000000E+005,  0.41157013315E+006,  0.16500000000E+002,  0.00000000000E+000,  0.10000000000E+001
  0.25191000000E+005,  0.41157013338E+006,  0.16500000000E+002,  0.00000000000E+000,  0.10000000000E+001
  0.25251000000E+005,  0.41157013361E+006,  0.16500000000E+002,  0.00000000000E+000,  0.10000000000E+001
  0.25311000000E+005,  0.41157013384E+006,  0.16500000000E+002,  0.00000000000E+000,  0.10000000000E+001
  0.25371000000E+005,  0.41157013406E+006,  0.16500000000E+002,  0.00000000000E+000,  0.10000000000E+001
  0.25431000000E+005,  0.41157013429E+006,  0.16500000000E+002,  0.00000000000E+000,  0.10000000000E+001
  0.25491000000E+005,  0.41157013452E+006,  0.16500000000E+002,  0.00000000000E+000,  0.10000000000E+001
  0.25551000000E+005,  0.41157013475E+006,  0.16500000000E+002,  0.00000000000E+000,  0.10000000000E+001
  0.25611000000E+005,  0.41157013497E+006,  0.16500000000E+002,  0.00000000000E+000,  0.10000000000E+001
  0.25671000000E+005,  0.41157013520E+006,  0.16500000000E+002,  0.00000000000E+000,  0.10000000000E+001
  0.25731000000E+005,  0.41157013543E+006,  0.16500000000E+002,  0.00000000000E+000,  0.10000000000E+001
  0.25791000000E+005,  0.41157013566E+006,  0.16500000000E+002,  0.00000000000E+000,  0.10000000000E+001
  0.25851000000E+005,  0.41157013589E+006,  0.16500000000E+002,  0.00000000000E+000,  0.10000000000E+001
  0.25911000000E+005,  0.41157013612E+006,  0.16500000000E+002,  0.00000000000E+000,  0.10000000000E+001
  0.25971000000E+005,  0.41157013635E+006,  0.16500000000E+002,  0.00000000000E+000,  0.10000000000E+001
  0.26031000000E+005,  0.41157013658E+006,  0.16500000000E+002,  0.00000000000E+000,  0.10000000000E+001
  0.26091000000E+005,  0.41157013681E+006,  0.16500000000E+002,  0.00000000000E+000,  0.10000000000E+001
  0.26151000000E+005,  0.41157013705E+006,  0.16500000000E+002,  0.00000000000E+000,  0.10000000000E+001
  0.26211000000E+005,  0.41157013728E+006,  0.16500000000E+002,  0.00000000000E+000,  0.10000000000E+001
  0.26271000000E+005,  0.41157013752E+006,  0.16500000000E+002,  0.00000000000E+000,  0.10000000000E+001
  0.26331000000E+005,  0.41157013776E+006,  0.16500000000E+002,  0.00000000000E+000,  0.10000000000E+001
  0.26391000000E+005,  0.41157013800E+006,  0.16500000000E+002,  0.00000000000E+000,  0.10000000000E+001
  0.26451000000E+005,  0.41157013824E+006,  0.16500000000E+002,  0.00000000000E+000,  0.10000000000E+001
  0.26511000000E+005,  0.41157013848E+006,  0.16500000000E+002,  0.00000000000E+000,  0.10000000000E+001
  0.26571000000E+005,  0.41157013873E+006,  0.16500000000E+002,  0.00000000000E+000,  0.10000000000E+001
  0.26631000000E+005,  0.41157013897E+006,  0.16500000000E+002,  0.00000000000E+000,  0.10000000000E+001
  0.26691000000E+005,  0.41157013923E+006,  0.16500000000E+002,  0.00000000000E+000,  0.10000000000E+001
  0.26751000000E+005,  0.41157013948E+006,  0.16500000000E+002,  0.00000000000E+000,  0.10000000000E+001
  0.26811000000E+005,  0.41157013974E+006,  0.16500000000E+002,  0.00000000000E+000,  0.10000000000E+001
  0.26871000000E+005,  0.41157014000E+006,  0.16500000000E+002,  0.00000000000E+000,  0.10000000000E+001
  0.26931000000E+005,  0.41157014027E+006,  0.16500000000E+002,  0.00000000000E+000,  0.10000000000E+001
  0.26991000000E+005,  0.41157014055E+006,  0.16500000000E+002,  0.00000000000E+000,  0.10000000000E+001
  0.27051000000E+005,  0.41157014083E+006,  0.16500000000E+002,  0.00000000000E+000,  0.10000000000E+001
  0.27111000000E+005,  0.41157014112E+006,  0.16500000000E+002,  0.00000000000E+000,  0.10000000000E+001
  0.27171000000E+005,  0.41157014142E+006,  0.16500000000E+002,  0.00000000000E+000,  0.10000000000E+001
  0.27231000000E+005,  0.41157014174E+006,  0.16500000000E+002,  0.00000000000E+000,  0.10000000000E+001
  0.27291000000E+005,  0.41157014207E+006,  0.16500000000E+002,  0.00000000000E+000,  0.10000000000E+001
  0.27351000000E+005,  0.41157014241E+006,  0.16500000000E+002,  0.00000000000E+000,  0.10000000000E+001
  0.27411000000E+005,  0.41157014277E+006,  0.16500000000E+002,  0.00000000000E+000,  0.10000000000E+001
  0.27471000000E+005,  0.41157014316E+006,  0.16500000000E+002,  0.00000000000E+000,  0.10000000000E+001
  0.27531000000E+005,  0.41157014357E+006,  0.16500000000E+002,  0.00000000000E+000,  0.10000000000E+001
  0.27591000000E+005,  0.41157014401E+006,  0.16500000000E+002,  0.00000000000E+000,  0.10000000000E+001
  0.27651000000E+005,  0.41157014449E+006,  0.16500000000E+002,  0.00000000000E+000,  0.10000000000E+001
  0.27711000000E+005,  0.41157014500E+006,  0.16500000000E+002,  0.00000000000E+000,  0.10000000000E+001
  0.27771000000E+005,  0.41157014555E+006,  0.16500000000E+002,  0.00000000000E+000,  0.10000000000E+001
  0.27831000000E+005,  0.41157014616E+006,  0.16500000000E+002,  0.00000000000E+000,  0.10000000000E+001
  0.27891000000E+005,  0.41157014682E+006,  0.16500000000E+002,  0.00000000000E+000,  0.10000000000E+001
  0.27951000000E+005,  0.41157014754E+006,  0.16500000000E+002,  0.00000000000E+000,  0.10000000000E+001
  0.28011000000E+005,  0.41157014834E+006,  0.16500000000E+002,  0.00000000000E+000,  0.10000000000E+001
  0.28071000000E+005,  0.41157014921E+006,  0.16500000000E+002,  0.00000000000E+000,  0.10000000000E+001
  0.28131000000E+005,  0.41157015017E+006,  0.16500000000E+002,  0.00000000000E+000,  0.10000000000E+001
  0.28191000000E+005,  0.41157015124E+006,  0.16500000000E+002,  0.00000000000E+000,  0.10000000000E+001
  0.28251000000E+005,  0.41157015241E+006,  0.16500000000E+002,  0.00000000000E+000,  0.10000000000E+001
  0.28311000000E+005,  0.41157015370E+006,  0.16500000000E+002,  0.00000000000E+000,  0.10000000000E+001
  0.28371000000E+005,  0.41157015514E+006,  0.16500000000E+002,  0.00000000000E+000,  0.10000000000E+001
  0.28431000000E+005,  0.41157015672E+006,  0.16500000000E+002,  0.00000000000E+000,  0.10000000000E+001
  0.28491000000E+005,  0.41157015847E+006,  0.16500000000E+002,  0.00000000000E+000,  0.10000000000E+001
  0.28551000000E+005,  0.41157016041E+006,  0.16500000000E+002,  0.00000000000E+000,  0.10000000000E+001
  0.28611000000E+005,  0.41157016254E+006,  0.16500000000E+002,  0.00000000000E+000,  0.10000000000E+001
  0.28671000000E+005,  0.41157016490E+006,  0.16500000000E+002,  0.00000000000E+000,  0.10000000000E+001
  0.28731000000E+005,  0.41157016749E+006,  0.16500000000E+002,  0.00000000000E+000,  0.10000000000E+001
  0.28791000000E+005,  0.41157017035E+006,  0.16500000000E+002,  0.00000000000E+000,  0.10000000000E+001
  0.28851000000E+005,  0.41157017350E+006,  0.16500000000E+002,  0.00000000000E+000,  0.10000000000E+001
  0.28911000000E+005,  0.41157017696E+006,  0.16500000000E+002,  0.00000000000E+000,  0.10000000000E+001
  0.28971000000E+005,  0.41157018076E+006,  0.16500000000E+002,  0.00000000000E+000,  0.10000000000E+001
  0.29031000000E+005,  0.41157018493E+006,  0.16500000000E+002,  0.00000000000E+000,  0.10000000000E+001
  0.29091000000E+005,  0.41157018949E+006,  0.16500000000E+002,  0.00000000000E+000,  0.10000000000E+001
  0.29151000000E+005,  0.41157019448E+006,  0.16500000000E+002,  0.00000000000E+000,  0.10000000000E+001
  0.29211000000E+005,  0.41157019993E+006,  0.16500000000E+002,  0.00000000000E+000,  0.10000000000E+001
  0.29271000000E+005,  0.41157020588E+006,  0.16500000000E+002,  0.00000000000E+000,  0.10000000000E+001
  0.29331000000E+005,  0.41157021236E+006,  0.16500000000E+002,  0.00000000000E+000,  0.10000000000E+001
  0.29353750000E+005,  0.41157021489E+006,  0.16500000000E+002,  0.00000000000E+000,  0.10000000000E+001
