"           TIME(S)","              PRES","              TEMP","             SAT_G","             SAT_L"
  0.94860000000E+005,  0.97407862786E+006,  0.16500000000E+002,  0.00000000000E+000,  0.10000000000E+001
  0.94870000000E+005,  0.97407862789E+006,  0.16500000000E+002,  0.00000000000E+000,  0.10000000000E+001
  0.94880000000E+005,  0.97407862792E+006,  0.16500000000E+002,  0.00000000000E+000,  0.10000000000E+001
  0.94890000000E+005,  0.97407862795E+006,  0.16500000000E+002,  0.00000000000E+000,  0.10000000000E+001
  0.94900000000E+005,  0.97407862797E+006,  0.16500000000E+002,  0.00000000000E+000,  0.10000000000E+001
  0.94910000000E+005,  0.97407862800E+006,  0.16500000000E+002,  0.00000000000E+000,  0.10000000000E+001
  0.94920000000E+005,  0.97407862803E+006,  0.16500000000E+002,  0.00000000000E+000,  0.10000000000E+001
  0.94930000000E+005,  0.97407862806E+006,  0.16500000000E+002,  0.00000000000E+000,  0.10000000000E+001
  0.94940000000E+005,  0.97407862809E+006,  0.16500000000E+002,  0.00000000000E+000,  0.10000000000E+001
  0.94950000000E+005,  0.97407862812E+006,  0.16500000000E+002,  0.00000000000E+000,  0.10000000000E+001
  0.94960000000E+005,  0.97407862815E+006,  0.16500000000E+002,  0.00000000000E+000,  0.10000000000E+001
  0.94970000000E+005,  0.97407862818E+006,  0.16500000000E+002,  0.00000000000E+000,  0.10000000000E+001
  0.94980000000E+005,  0.97407862821E+006,  0.16500000000E+002,  0.00000000000E+000,  0.10000000000E+001
  0.94990000000E+005,  0.97407862824E+006,  0.16500000000E+002,  0.00000000000E+000,  0.10000000000E+001
  0.95000000000E+005,  0.97407862827E+006,  0.16500000000E+002,  0.00000000000E+000,  0.10000000000E+001
  0.95010000000E+005,  0.97407862830E+006,  0.16500000000E+002,  0.00000000000E+000,  0.10000000000E+001
  0.95020000000E+005,  0.97407862833E+006,  0.16500000000E+002,  0.00000000000E+000,  0.10000000000E+001
  0.95030000000E+005,  0.97407862835E+006,  0.16500000000E+002,  0.00000000000E+000,  0.10000000000E+001
  0.95040000000E+005,  0.97407862838E+006,  0.16500000000E+002,  0.00000000000E+000,  0.10000000000E+001
  0.95050000000E+005,  0.97407862841E+006,  0.16500000000E+002,  0.00000000000E+000,  0.10000000000E+001
  0.95060000000E+005,  0.97407862844E+006,  0.16500000000E+002,  0.00000000000E+000,  0.10000000000E+001
  0.95070000000E+005,  0.97407862847E+006,  0.16500000000E+002,  0.00000000000E+000,  0.10000000000E+001
  0.95080000000E+005,  0.97407862850E+006,  0.16500000000E+002,  0.00000000000E+000,  0.10000000000E+001
  0.95090000000E+005,  0.97407862852E+006,  0.16500000000E+002,  0.00000000000E+000,  0.10000000000E+001
  0.95100000000E+005,  0.97407862855E+006,  0.16500000000E+002,  0.00000000000E+000,  0.10000000000E+001
  0.95110000000E+005,  0.97407862858E+006,  0.16500000000E+002,  0.00000000000E+000,  0.10000000000E+001
  0.95120000000E+005,  0.97407862861E+006,  0.16500000000E+002,  0.00000000000E+000,  0.10000000000E+001
  0.95128100000E+005,  0.97407862863E+006,  0.16500000000E+002,  0.00000000000E+000,  0.10000000000E+001
  0.95138100000E+005,  0.97407862865E+006,  0.16500000000E+002,  0.00000000000E+000,  0.10000000000E+001
  0.95148100000E+005,  0.97407862868E+006,  0.16500000000E+002,  0.00000000000E+000,  0.10000000000E+001
  0.95158100000E+005,  0.97407862871E+006,  0.16500000000E+002,  0.00000000000E+000,  0.10000000000E+001
  0.95168100000E+005,  0.97407862873E+006,  0.16500000000E+002,  0.00000000000E+000,  0.10000000000E+001
  0.95178100000E+005,  0.97407862876E+006,  0.16500000000E+002,  0.00000000000E+000,  0.10000000000E+001
  0.95188100000E+005,  0.97407862878E+006,  0.16500000000E+002,  0.00000000000E+000,  0.10000000000E+001
  0.95198100000E+005,  0.97407862881E+006,  0.16500000000E+002,  0.00000000000E+000,  0.10000000000E+001
  0.95208100000E+005,  0.97407862883E+006,  0.16500000000E+002,  0.00000000000E+000,  0.10000000000E+001
  0.95218100000E+005,  0.97407862886E+006,  0.16500000000E+002,  0.00000000000E+000,  0.10000000000E+001
  0.95228100000E+005,  0.97407862888E+006,  0.16500000000E+002,  0.00000000000E+000,  0.10000000000E+001
  0.95238100000E+005,  0.97407862890E+006,  0.16500000000E+002,  0.00000000000E+000,  0.10000000000E+001
  0.95239350000E+005,  0.97407862890E+006,  0.16500000000E+002,  0.00000000000E+000,  0.10000000000E+001
  0.95240131250E+005,  0.97407862891E+006,  0.16500000000E+002,  0.00000000000E+000,  0.10000000000E+001
  0.95244037500E+005,  0.97407862891E+006,  0.16500000000E+002,  0.00000000000E+000,  0.10000000000E+001
  0.95244193750E+005,  0.97407862891E+006,  0.16500000000E+002,  0.00000000000E+000,  0.10000000000E+001
  0.95244291406E+005,  0.97407862891E+006,  0.16500000000E+002,  0.00000000000E+000,  0.10000000000E+001
  0.95244352441E+005,  0.97407862891E+006,  0.16500000000E+002,  0.00000000000E+000,  0.10000000000E+001
  0.95244657617E+005,  0.97407862891E+006,  0.16500000000E+002,  0.00000000000E+000,  0.10000000000E+001
  0.95244681459E+005,  0.97407862891E+006,  0.16500000000E+002,  0.00000000000E+000,  0.10000000000E+001
  0.95244696360E+005,  0.97407862891E+006,  0.16500000000E+002,  0.00000000000E+000,  0.10000000000E+001
  0.95244705673E+005,  0.97407862891E+006,  0.16500000000E+002,  0.00000000000E+000,  0.10000000000E+001
  0.95244752240E+005,  0.97407862892E+006,  0.16500000000E+002,  0.00000000000E+000,  0.10000000000E+001
  0.95244755878E+005,  0.97407862892E+006,  0.16500000000E+002,  0.00000000000E+000,  0.10000000000E+001
  0.95244758151E+005,  0.97407862892E+006,  0.16500000000E+002,  0.00000000000E+000,  0.10000000000E+001
  0.95244759572E+005,  0.97407862892E+006,  0.16500000000E+002,  0.00000000000E+000,  0.10000000000E+001
  0.95244766678E+005,  0.97407862892E+006,  0.16500000000E+002,  0.00000000000E+000,  0.10000000000E+001
  0.95244767233E+005,  0.97407862892E+006,  0.16500000000E+002,  0.00000000000E+000,  0.10000000000E+001
  0.95244767580E+005,  0.97407862892E+006,  0.16500000000E+002,  0.00000000000E+000,  0.10000000000E+001
  0.95244767797E+005,  0.97407862892E+006,  0.16500000000E+002,  0.00000000000E+000,  0.10000000000E+001
  0.95244768881E+005,  0.97407862892E+006,  0.16500000000E+002,  0.00000000000E+000,  0.10000000000E+001
  0.95244768966E+005,  0.97407862892E+006,  0.16500000000E+002,  0.00000000000E+000,  0.10000000000E+001
  0.95244769019E+005,  0.97407862892E+006,  0.16500000000E+002,  0.00000000000E+000,  0.10000000000E+001
  0.95244769283E+005,  0.97407862892E+006,  0.16500000000E+002,  0.00000000000E+000,  0.10000000000E+001
  0.95244769304E+005,  0.97407862892E+006,  0.16500000000E+002,  0.00000000000E+000,  0.10000000000E+001
  0.95244769317E+005,  0.97407862892E+006,  0.16500000000E+002,  0.00000000000E+000,  0.10000000000E+001
  0.95244769381E+005,  0.97407862892E+006,  0.16500000000E+002,  0.00000000000E+000,  0.10000000000E+001
  0.95244769422E+005,  0.97407862892E+006,  0.16500000000E+002,  0.00000000000E+000,  0.10000000000E+001
