"           TIME(S)","              PRES","              TEMP","             SAT_G","             SAT_L"
  0.50000000000E+001,  0.14055505221E+006,  0.16500000000E+002,  0.00000000000E+000,  0.10000000000E+001
  0.30000000000E+002,  0.16149450052E+006,  0.16500000000E+002,  0.00000000000E+000,  0.10000000000E+001
  0.90000000000E+002,  0.17566810762E+006,  0.16500000000E+002,  0.00000000000E+000,  0.10000000000E+001
  0.15000000000E+003,  0.18298572404E+006,  0.16500000000E+002,  0.00000000000E+000,  0.10000000000E+001
  0.21000000000E+003,  0.18777902500E+006,  0.16500000000E+002,  0.00000000000E+000,  0.10000000000E+001
  0.27000000000E+003,  0.19131234382E+006,  0.16500000000E+002,  0.00000000000E+000,  0.10000000000E+001
  0.33000000000E+003,  0.19410029956E+006,  0.16500000000E+002,  0.00000000000E+000,  0.10000000000E+001
  0.39000000000E+003,  0.19639787918E+006,  0.16500000000E+002,  0.00000000000E+000,  0.10000000000E+001
  0.45000000000E+003,  0.19834894547E+006,  0.16500000000E+002,  0.00000000000E+000,  0.10000000000E+001
  0.51000000000E+003,  0.20004241958E+006,  0.16500000000E+002,  0.00000000000E+000,  0.10000000000E+001
  0.57000000000E+003,  0.20153706198E+006,  0.16500000000E+002,  0.00000000000E+000,  0.10000000000E+001
  0.63000000000E+003,  0.20287371832E+006,  0.16500000000E+002,  0.00000000000E+000,  0.10000000000E+001
  0.69000000000E+003,  0.20408192437E+006,  0.16500000000E+002,  0.00000000000E+000,  0.10000000000E+001
  0.75000000000E+003,  0.20518372320E+006,  0.16500000000E+002,  0.00000000000E+000,  0.10000000000E+001
  0.81000000000E+003,  0.20619599690E+006,  0.16500000000E+002,  0.00000000000E+000,  0.10000000000E+001
  0.87000000000E+003,  0.20713195666E+006,  0.16500000000E+002,  0.00000000000E+000,  0.10000000000E+001
  0.93000000000E+003,  0.20800213130E+006,  0.16500000000E+002,  0.00000000000E+000,  0.10000000000E+001
  0.99000000000E+003,  0.20881504416E+006,  0.16500000000E+002,  0.00000000000E+000,  0.10000000000E+001
  0.10500000000E+004,  0.20957768918E+006,  0.16500000000E+002,  0.00000000000E+000,  0.10000000000E+001
  0.11100000000E+004,  0.21029587363E+006,  0.16500000000E+002,  0.00000000000E+000,  0.10000000000E+001
  0.11700000000E+004,  0.21097447010E+006,  0.16500000000E+002,  0.00000000000E+000,  0.10000000000E+001
  0.12300000000E+004,  0.21161760505E+006,  0.16500000000E+002,  0.00000000000E+000,  0.10000000000E+001
  0.12900000000E+004,  0.21222880217E+006,  0.16500000000E+002,  0.00000000000E+000,  0.10000000000E+001
  0.13500000000E+004,  0.21281109302E+006,  0.16500000000E+002,  0.00000000000E+000,  0.10000000000E+001
  0.14100000000E+004,  0.21336710350E+006,  0.16500000000E+002,  0.00000000000E+000,  0.10000000000E+001
  0.14700000000E+004,  0.21389912226E+006,  0.16500000000E+002,  0.00000000000E+000,  0.10000000000E+001
  0.15300000000E+004,  0.21440915437E+006,  0.16500000000E+002,  0.00000000000E+000,  0.10000000000E+001
  0.15900000000E+004,  0.21489896795E+006,  0.16500000000E+002,  0.00000000000E+000,  0.10000000000E+001
  0.16500000000E+004,  0.21537012088E+006,  0.16500000000E+002,  0.00000000000E+000,  0.10000000000E+001
  0.17100000000E+004,  0.21582399928E+006,  0.16500000000E+002,  0.00000000000E+000,  0.10000000000E+001
  0.17700000000E+004,  0.21626182730E+006,  0.16500000000E+002,  0.00000000000E+000,  0.10000000000E+001
  0.18300000000E+004,  0.21668470309E+006,  0.16500000000E+002,  0.00000000000E+000,  0.10000000000E+001
  0.18900000000E+004,  0.21709359230E+006,  0.16500000000E+002,  0.00000000000E+000,  0.10000000000E+001
  0.19500000000E+004,  0.21748936123E+006,  0.16500000000E+002,  0.00000000000E+000,  0.10000000000E+001
  0.20100000000E+004,  0.21787279155E+006,  0.16500000000E+002,  0.00000000000E+000,  0.10000000000E+001
  0.20700000000E+004,  0.21824457779E+006,  0.16500000000E+002,  0.00000000000E+000,  0.10000000000E+001
  0.21300000000E+004,  0.21860534685E+006,  0.16500000000E+002,  0.00000000000E+000,  0.10000000000E+001
  0.21900000000E+004,  0.21895566933E+006,  0.16500000000E+002,  0.00000000000E+000,  0.10000000000E+001
  0.22500000000E+004,  0.21929605836E+006,  0.16500000000E+002,  0.00000000000E+000,  0.10000000000E+001
  0.23100000000E+004,  0.21962698405E+006,  0.16500000000E+002,  0.00000000000E+000,  0.10000000000E+001
  0.23700000000E+004,  0.21994888169E+006,  0.16500000000E+002,  0.00000000000E+000,  0.10000000000E+001
  0.24300000000E+004,  0.22026214499E+006,  0.16500000000E+002,  0.00000000000E+000,  0.10000000000E+001
  0.24900000000E+004,  0.22056714363E+006,  0.16500000000E+002,  0.00000000000E+000,  0.10000000000E+001
  0.25500000000E+004,  0.22086421466E+006,  0.16500000000E+002,  0.00000000000E+000,  0.10000000000E+001
  0.26100000000E+004,  0.22115367805E+006,  0.16500000000E+002,  0.00000000000E+000,  0.10000000000E+001
  0.26700000000E+004,  0.22143582878E+006,  0.16500000000E+002,  0.00000000000E+000,  0.10000000000E+001
  0.27300000000E+004,  0.22171094223E+006,  0.16500000000E+002,  0.00000000000E+000,  0.10000000000E+001
  0.27900000000E+004,  0.22197928183E+006,  0.16500000000E+002,  0.00000000000E+000,  0.10000000000E+001
  0.28500000000E+004,  0.22224108833E+006,  0.16500000000E+002,  0.00000000000E+000,  0.10000000000E+001
  0.29100000000E+004,  0.22249659624E+006,  0.16500000000E+002,  0.00000000000E+000,  0.10000000000E+001
  0.29700000000E+004,  0.22274602390E+006,  0.16500000000E+002,  0.00000000000E+000,  0.10000000000E+001
  0.30300000000E+004,  0.22298957788E+006,  0.16500000000E+002,  0.00000000000E+000,  0.10000000000E+001
  0.30900000000E+004,  0.22322745354E+006,  0.16500000000E+002,  0.00000000000E+000,  0.10000000000E+001
  0.31500000000E+004,  0.22345984097E+006,  0.16500000000E+002,  0.00000000000E+000,  0.10000000000E+001
  0.32100000000E+004,  0.22368691415E+006,  0.16500000000E+002,  0.00000000000E+000,  0.10000000000E+001
  0.32700000000E+004,  0.22390884780E+006,  0.16500000000E+002,  0.00000000000E+000,  0.10000000000E+001
  0.33300000000E+004,  0.22412580089E+006,  0.16500000000E+002,  0.00000000000E+000,  0.10000000000E+001
  0.33900000000E+004,  0.22433792841E+006,  0.16500000000E+002,  0.00000000000E+000,  0.10000000000E+001
  0.34500000000E+004,  0.22454537865E+006,  0.16500000000E+002,  0.00000000000E+000,  0.10000000000E+001
  0.35100000000E+004,  0.22474829336E+006,  0.16500000000E+002,  0.00000000000E+000,  0.10000000000E+001
  0.35700000000E+004,  0.22494680833E+006,  0.16500000000E+002,  0.00000000000E+000,  0.10000000000E+001
  0.36300000000E+004,  0.22514105371E+006,  0.16500000000E+002,  0.00000000000E+000,  0.10000000000E+001
  0.36900000000E+004,  0.22533115437E+006,  0.16500000000E+002,  0.00000000000E+000,  0.10000000000E+001
  0.37500000000E+004,  0.22551723019E+006,  0.16500000000E+002,  0.00000000000E+000,  0.10000000000E+001
  0.38100000000E+004,  0.22569939632E+006,  0.16500000000E+002,  0.00000000000E+000,  0.10000000000E+001
  0.38700000000E+004,  0.22587776351E+006,  0.16500000000E+002,  0.00000000000E+000,  0.10000000000E+001
  0.39300000000E+004,  0.22605243825E+006,  0.16500000000E+002,  0.00000000000E+000,  0.10000000000E+001
  0.39900000000E+004,  0.22622352308E+006,  0.16500000000E+002,  0.00000000000E+000,  0.10000000000E+001
  0.40500000000E+004,  0.22639111674E+006,  0.16500000000E+002,  0.00000000000E+000,  0.10000000000E+001
  0.41100000000E+004,  0.22655531441E+006,  0.16500000000E+002,  0.00000000000E+000,  0.10000000000E+001
  0.41700000000E+004,  0.22671620788E+006,  0.16500000000E+002,  0.00000000000E+000,  0.10000000000E+001
  0.42300000000E+004,  0.22687388573E+006,  0.16500000000E+002,  0.00000000000E+000,  0.10000000000E+001
  0.42900000000E+004,  0.22702843348E+006,  0.16500000000E+002,  0.00000000000E+000,  0.10000000000E+001
  0.43500000000E+004,  0.22717993373E+006,  0.16500000000E+002,  0.00000000000E+000,  0.10000000000E+001
  0.44100000000E+004,  0.22732846632E+006,  0.16500000000E+002,  0.00000000000E+000,  0.10000000000E+001
  0.44700000000E+004,  0.22747410844E+006,  0.16500000000E+002,  0.00000000000E+000,  0.10000000000E+001
  0.45300000000E+004,  0.22761693475E+006,  0.16500000000E+002,  0.00000000000E+000,  0.10000000000E+001
  0.45900000000E+004,  0.22775701749E+006,  0.16500000000E+002,  0.00000000000E+000,  0.10000000000E+001
  0.46500000000E+004,  0.22789442658E+006,  0.16500000000E+002,  0.00000000000E+000,  0.10000000000E+001
  0.47100000000E+004,  0.22802922974E+006,  0.16500000000E+002,  0.00000000000E+000,  0.10000000000E+001
  0.47700000000E+004,  0.22816149255E+006,  0.16500000000E+002,  0.00000000000E+000,  0.10000000000E+001
  0.48300000000E+004,  0.22829127854E+006,  0.16500000000E+002,  0.00000000000E+000,  0.10000000000E+001
  0.48900000000E+004,  0.22841864927E+006,  0.16500000000E+002,  0.00000000000E+000,  0.10000000000E+001
  0.49500000000E+004,  0.22854366442E+006,  0.16500000000E+002,  0.00000000000E+000,  0.10000000000E+001
  0.50100000000E+004,  0.22866638184E+006,  0.16500000000E+002,  0.00000000000E+000,  0.10000000000E+001
  0.50700000000E+004,  0.22878685761E+006,  0.16500000000E+002,  0.00000000000E+000,  0.10000000000E+001
  0.51300000000E+004,  0.22890514614E+006,  0.16500000000E+002,  0.00000000000E+000,  0.10000000000E+001
  0.51900000000E+004,  0.22902130014E+006,  0.16500000000E+002,  0.00000000000E+000,  0.10000000000E+001
  0.52500000000E+004,  0.22913537080E+006,  0.16500000000E+002,  0.00000000000E+000,  0.10000000000E+001
  0.53100000000E+004,  0.22924740782E+006,  0.16500000000E+002,  0.00000000000E+000,  0.10000000000E+001
  0.53700000000E+004,  0.22935745940E+006,  0.16500000000E+002,  0.00000000000E+000,  0.10000000000E+001
  0.54300000000E+004,  0.22946557229E+006,  0.16500000000E+002,  0.00000000000E+000,  0.10000000000E+001
  0.54900000000E+004,  0.22957179189E+006,  0.16500000000E+002,  0.00000000000E+000,  0.10000000000E+001
  0.55500000000E+004,  0.22967616233E+006,  0.16500000000E+002,  0.00000000000E+000,  0.10000000000E+001
  0.56100000000E+004,  0.22977872640E+006,  0.16500000000E+002,  0.00000000000E+000,  0.10000000000E+001
  0.56700000000E+004,  0.22987952567E+006,  0.16500000000E+002,  0.00000000000E+000,  0.10000000000E+001
  0.57300000000E+004,  0.22997860050E+006,  0.16500000000E+002,  0.00000000000E+000,  0.10000000000E+001
  0.57900000000E+004,  0.23007599008E+006,  0.16500000000E+002,  0.00000000000E+000,  0.10000000000E+001
  0.58500000000E+004,  0.23017173249E+006,  0.16500000000E+002,  0.00000000000E+000,  0.10000000000E+001
  0.59100000000E+004,  0.23026586470E+006,  0.16500000000E+002,  0.00000000000E+000,  0.10000000000E+001
  0.59700000000E+004,  0.23035842266E+006,  0.16500000000E+002,  0.00000000000E+000,  0.10000000000E+001
  0.60300000000E+004,  0.23046419490E+006,  0.16500000000E+002,  0.00000000000E+000,  0.10000000000E+001
  0.60900000000E+004,  0.23057126903E+006,  0.16500000000E+002,  0.00000000000E+000,  0.10000000000E+001
  0.61500000000E+004,  0.23066359847E+006,  0.16500000000E+002,  0.00000000000E+000,  0.10000000000E+001
  0.62100000000E+004,  0.23075268448E+006,  0.16500000000E+002,  0.00000000000E+000,  0.10000000000E+001
  0.62700000000E+004,  0.23083963868E+006,  0.16500000000E+002,  0.00000000000E+000,  0.10000000000E+001
  0.63300000000E+004,  0.23092481881E+006,  0.16500000000E+002,  0.00000000000E+000,  0.10000000000E+001
  0.63900000000E+004,  0.23100839911E+006,  0.16500000000E+002,  0.00000000000E+000,  0.10000000000E+001
  0.64500000000E+004,  0.23109048529E+006,  0.16500000000E+002,  0.00000000000E+000,  0.10000000000E+001
  0.65100000000E+004,  0.23117115132E+006,  0.16500000000E+002,  0.00000000000E+000,  0.10000000000E+001
  0.65700000000E+004,  0.23125045411E+006,  0.16500000000E+002,  0.00000000000E+000,  0.10000000000E+001
  0.66300000000E+004,  0.23132844050E+006,  0.16500000000E+002,  0.00000000000E+000,  0.10000000000E+001
  0.66900000000E+004,  0.23140515080E+006,  0.16500000000E+002,  0.00000000000E+000,  0.10000000000E+001
  0.67500000000E+004,  0.23148062082E+006,  0.16500000000E+002,  0.00000000000E+000,  0.10000000000E+001
  0.68100000000E+004,  0.23155488314E+006,  0.16500000000E+002,  0.00000000000E+000,  0.10000000000E+001
  0.68700000000E+004,  0.23162796787E+006,  0.16500000000E+002,  0.00000000000E+000,  0.10000000000E+001
  0.69300000000E+004,  0.23169990316E+006,  0.16500000000E+002,  0.00000000000E+000,  0.10000000000E+001
  0.69900000000E+004,  0.23177071557E+006,  0.16500000000E+002,  0.00000000000E+000,  0.10000000000E+001
  0.70500000000E+004,  0.23184043032E+006,  0.16500000000E+002,  0.00000000000E+000,  0.10000000000E+001
  0.71100000000E+004,  0.23190907148E+006,  0.16500000000E+002,  0.00000000000E+000,  0.10000000000E+001
  0.71700000000E+004,  0.23197666211E+006,  0.16500000000E+002,  0.00000000000E+000,  0.10000000000E+001
  0.72300000000E+004,  0.23204322438E+006,  0.16500000000E+002,  0.00000000000E+000,  0.10000000000E+001
  0.72900000000E+004,  0.23210877963E+006,  0.16500000000E+002,  0.00000000000E+000,  0.10000000000E+001
  0.73500000000E+004,  0.23217334849E+006,  0.16500000000E+002,  0.00000000000E+000,  0.10000000000E+001
  0.74100000000E+004,  0.23223695088E+006,  0.16500000000E+002,  0.00000000000E+000,  0.10000000000E+001
  0.74700000000E+004,  0.23229960610E+006,  0.16500000000E+002,  0.00000000000E+000,  0.10000000000E+001
  0.75300000000E+004,  0.23236133283E+006,  0.16500000000E+002,  0.00000000000E+000,  0.10000000000E+001
  0.75900000000E+004,  0.23242214923E+006,  0.16500000000E+002,  0.00000000000E+000,  0.10000000000E+001
  0.76500000000E+004,  0.23248207275E+006,  0.16500000000E+002,  0.00000000000E+000,  0.10000000000E+001
  0.77100000000E+004,  0.23254112064E+006,  0.16500000000E+002,  0.00000000000E+000,  0.10000000000E+001
  0.77700000000E+004,  0.23259930955E+006,  0.16500000000E+002,  0.00000000000E+000,  0.10000000000E+001
  0.78300000000E+004,  0.23265665568E+006,  0.16500000000E+002,  0.00000000000E+000,  0.10000000000E+001
  0.78900000000E+004,  0.23271317478E+006,  0.16500000000E+002,  0.00000000000E+000,  0.10000000000E+001
  0.79500000000E+004,  0.23276888221E+006,  0.16500000000E+002,  0.00000000000E+000,  0.10000000000E+001
  0.80100000000E+004,  0.23282379289E+006,  0.16500000000E+002,  0.00000000000E+000,  0.10000000000E+001
  0.80700000000E+004,  0.23287792138E+006,  0.16500000000E+002,  0.00000000000E+000,  0.10000000000E+001
  0.81300000000E+004,  0.23293128184E+006,  0.16500000000E+002,  0.00000000000E+000,  0.10000000000E+001
  0.81900000000E+004,  0.23298388807E+006,  0.16500000000E+002,  0.00000000000E+000,  0.10000000000E+001
  0.82500000000E+004,  0.23303575358E+006,  0.16500000000E+002,  0.00000000000E+000,  0.10000000000E+001
  0.83100000000E+004,  0.23308689154E+006,  0.16500000000E+002,  0.00000000000E+000,  0.10000000000E+001
  0.83700000000E+004,  0.23313731482E+006,  0.16500000000E+002,  0.00000000000E+000,  0.10000000000E+001
  0.84300000000E+004,  0.23318703596E+006,  0.16500000000E+002,  0.00000000000E+000,  0.10000000000E+001
  0.84900000000E+004,  0.23323606719E+006,  0.16500000000E+002,  0.00000000000E+000,  0.10000000000E+001
  0.85500000000E+004,  0.23328442049E+006,  0.16500000000E+002,  0.00000000000E+000,  0.10000000000E+001
  0.86100000000E+004,  0.23333210751E+006,  0.16500000000E+002,  0.00000000000E+000,  0.10000000000E+001
  0.86700000000E+004,  0.23337913968E+006,  0.16500000000E+002,  0.00000000000E+000,  0.10000000000E+001
  0.87300000000E+004,  0.23342552813E+006,  0.16500000000E+002,  0.00000000000E+000,  0.10000000000E+001
  0.87900000000E+004,  0.23347128376E+006,  0.16500000000E+002,  0.00000000000E+000,  0.10000000000E+001
  0.88500000000E+004,  0.23351641721E+006,  0.16500000000E+002,  0.00000000000E+000,  0.10000000000E+001
  0.89100000000E+004,  0.23356093889E+006,  0.16500000000E+002,  0.00000000000E+000,  0.10000000000E+001
  0.89700000000E+004,  0.23360485897E+006,  0.16500000000E+002,  0.00000000000E+000,  0.10000000000E+001
  0.90300000000E+004,  0.23364818741E+006,  0.16500000000E+002,  0.00000000000E+000,  0.10000000000E+001
  0.90900000000E+004,  0.23369093394E+006,  0.16500000000E+002,  0.00000000000E+000,  0.10000000000E+001
  0.91500000000E+004,  0.23373310809E+006,  0.16500000000E+002,  0.00000000000E+000,  0.10000000000E+001
  0.92100000000E+004,  0.23377471917E+006,  0.16500000000E+002,  0.00000000000E+000,  0.10000000000E+001
  0.92700000000E+004,  0.23381577630E+006,  0.16500000000E+002,  0.00000000000E+000,  0.10000000000E+001
  0.93300000000E+004,  0.23385628842E+006,  0.16500000000E+002,  0.00000000000E+000,  0.10000000000E+001
  0.93900000000E+004,  0.23389626425E+006,  0.16500000000E+002,  0.00000000000E+000,  0.10000000000E+001
  0.94500000000E+004,  0.23393571231E+006,  0.16500000000E+002,  0.00000000000E+000,  0.10000000000E+001
  0.95100000000E+004,  0.23397464098E+006,  0.16500000000E+002,  0.00000000000E+000,  0.10000000000E+001
  0.95700000000E+004,  0.23401305838E+006,  0.16500000000E+002,  0.00000000000E+000,  0.10000000000E+001
  0.96300000000E+004,  0.23405097261E+006,  0.16500000000E+002,  0.00000000000E+000,  0.10000000000E+001
  0.96900000000E+004,  0.23408839157E+006,  0.16500000000E+002,  0.00000000000E+000,  0.10000000000E+001
  0.97500000000E+004,  0.23412532298E+006,  0.16500000000E+002,  0.00000000000E+000,  0.10000000000E+001
  0.98100000000E+004,  0.23416177442E+006,  0.16500000000E+002,  0.00000000000E+000,  0.10000000000E+001
  0.98700000000E+004,  0.23419775329E+006,  0.16500000000E+002,  0.00000000000E+000,  0.10000000000E+001
  0.99300000000E+004,  0.23423326686E+006,  0.16500000000E+002,  0.00000000000E+000,  0.10000000000E+001
  0.99900000000E+004,  0.23426832220E+006,  0.16500000000E+002,  0.00000000000E+000,  0.10000000000E+001
  0.10050000000E+005,  0.23430292631E+006,  0.16500000000E+002,  0.00000000000E+000,  0.10000000000E+001
  0.10110000000E+005,  0.23433708607E+006,  0.16500000000E+002,  0.00000000000E+000,  0.10000000000E+001
  0.10170000000E+005,  0.23437080817E+006,  0.16500000000E+002,  0.00000000000E+000,  0.10000000000E+001
  0.10230000000E+005,  0.23440409921E+006,  0.16500000000E+002,  0.00000000000E+000,  0.10000000000E+001
  0.10290000000E+005,  0.23443696563E+006,  0.16500000000E+002,  0.00000000000E+000,  0.10000000000E+001
  0.10350000000E+005,  0.23446941377E+006,  0.16500000000E+002,  0.00000000000E+000,  0.10000000000E+001
  0.10410000000E+005,  0.23450135584E+006,  0.16500000000E+002,  0.00000000000E+000,  0.10000000000E+001
  0.10470000000E+005,  0.23453294957E+006,  0.16500000000E+002,  0.00000000000E+000,  0.10000000000E+001
  0.10530000000E+005,  0.23456415898E+006,  0.16500000000E+002,  0.00000000000E+000,  0.10000000000E+001
  0.10590000000E+005,  0.23459498114E+006,  0.16500000000E+002,  0.00000000000E+000,  0.10000000000E+001
  0.10650000000E+005,  0.23462541870E+006,  0.16500000000E+002,  0.00000000000E+000,  0.10000000000E+001
  0.10710000000E+005,  0.23465547593E+006,  0.16500000000E+002,  0.00000000000E+000,  0.10000000000E+001
  0.10770000000E+005,  0.23468515761E+006,  0.16500000000E+002,  0.00000000000E+000,  0.10000000000E+001
  0.10830000000E+005,  0.23471446881E+006,  0.16500000000E+002,  0.00000000000E+000,  0.10000000000E+001
  0.10890000000E+005,  0.23474341459E+006,  0.16500000000E+002,  0.00000000000E+000,  0.10000000000E+001
  0.10950000000E+005,  0.23477199999E+006,  0.16500000000E+002,  0.00000000000E+000,  0.10000000000E+001
  0.11010000000E+005,  0.23480023006E+006,  0.16500000000E+002,  0.00000000000E+000,  0.10000000000E+001
  0.11070000000E+005,  0.23482810975E+006,  0.16500000000E+002,  0.00000000000E+000,  0.10000000000E+001
  0.11130000000E+005,  0.23485564399E+006,  0.16500000000E+002,  0.00000000000E+000,  0.10000000000E+001
  0.11190000000E+005,  0.23488283762E+006,  0.16500000000E+002,  0.00000000000E+000,  0.10000000000E+001
  0.11250000000E+005,  0.23490969575E+006,  0.16500000000E+002,  0.00000000000E+000,  0.10000000000E+001
