"           TIME(S)","              PRES","              TEMP","             SAT_G","             SAT_L"
  0.94880000000E+005,  0.78395343318E+006,  0.16500000000E+002,  0.00000000000E+000,  0.10000000000E+001
  0.94890000000E+005,  0.78395348277E+006,  0.16500000000E+002,  0.00000000000E+000,  0.10000000000E+001
<<<<<<< HEAD
  0.94920000000E+005,  0.78395362187E+006,  0.16500000000E+002,  0.00000000000E+000,  0.10000000000E+001
  0.94950000000E+005,  0.78395395750E+006,  0.16500000000E+002,  0.00000000000E+000,  0.10000000000E+001
  0.94980000000E+005,  0.78395511974E+006,  0.16500000000E+002,  0.00000000000E+000,  0.10000000000E+001
  0.95010000000E+005,  0.78395845479E+006,  0.16500000000E+002,  0.00000000000E+000,  0.10000000000E+001
  0.95040000000E+005,  0.78396626360E+006,  0.16500000000E+002,  0.00000000000E+000,  0.10000000000E+001
  0.95070000000E+005,  0.78398184084E+006,  0.16500000000E+002,  0.00000000000E+000,  0.10000000000E+001
  0.95100000000E+005,  0.78400931183E+006,  0.16500000000E+002,  0.00000000000E+000,  0.10000000000E+001
  0.95130000000E+005,  0.78405332928E+006,  0.16500000000E+002,  0.00000000000E+000,  0.10000000000E+001
  0.95160000000E+005,  0.78411871701E+006,  0.16500000000E+002,  0.00000000000E+000,  0.10000000000E+001
  0.95190000000E+005,  0.78421013603E+006,  0.16500000000E+002,  0.00000000000E+000,  0.10000000000E+001
  0.95220000000E+005,  0.78433181893E+006,  0.16500000000E+002,  0.00000000000E+000,  0.10000000000E+001
  0.95250000000E+005,  0.78448738955E+006,  0.16500000000E+002,  0.00000000000E+000,  0.10000000000E+001
  0.95280000000E+005,  0.78467976489E+006,  0.16500000000E+002,  0.00000000000E+000,  0.10000000000E+001
  0.95310000000E+005,  0.78491112532E+006,  0.16500000000E+002,  0.00000000000E+000,  0.10000000000E+001
  0.95340000000E+005,  0.78518293530E+006,  0.16500000000E+002,  0.00000000000E+000,  0.10000000000E+001
  0.95370000000E+005,  0.78549599803E+006,  0.16500000000E+002,  0.00000000000E+000,  0.10000000000E+001
  0.95400000000E+005,  0.78585052955E+006,  0.16500000000E+002,  0.00000000000E+000,  0.10000000000E+001
  0.95430000000E+005,  0.78624624180E+006,  0.16500000000E+002,  0.00000000000E+000,  0.10000000000E+001
  0.95460000000E+005,  0.78668242670E+006,  0.16500000000E+002,  0.00000000000E+000,  0.10000000000E+001
  0.95490000000E+005,  0.78715803651E+006,  0.16500000000E+002,  0.00000000000E+000,  0.10000000000E+001
  0.95520000000E+005,  0.78767175741E+006,  0.16500000000E+002,  0.00000000000E+000,  0.10000000000E+001
  0.95550000000E+005,  0.78822207474E+006,  0.16500000000E+002,  0.00000000000E+000,  0.10000000000E+001
  0.95580000000E+005,  0.78880732954E+006,  0.16500000000E+002,  0.00000000000E+000,  0.10000000000E+001
  0.95610000000E+005,  0.78942576634E+006,  0.16500000000E+002,  0.00000000000E+000,  0.10000000000E+001
  0.95640000000E+005,  0.79007557310E+006,  0.16500000000E+002,  0.00000000000E+000,  0.10000000000E+001
  0.95670000000E+005,  0.79075491378E+006,  0.16500000000E+002,  0.00000000000E+000,  0.10000000000E+001
  0.95700000000E+005,  0.79146195451E+006,  0.16500000000E+002,  0.00000000000E+000,  0.10000000000E+001
  0.95730000000E+005,  0.79219488431E+006,  0.16500000000E+002,  0.00000000000E+000,  0.10000000000E+001
  0.95760000000E+005,  0.79295193096E+006,  0.16500000000E+002,  0.00000000000E+000,  0.10000000000E+001
  0.95790000000E+005,  0.79373137311E+006,  0.16500000000E+002,  0.00000000000E+000,  0.10000000000E+001
  0.95820000000E+005,  0.79453154899E+006,  0.16500000000E+002,  0.00000000000E+000,  0.10000000000E+001
  0.95850000000E+005,  0.79535086246E+006,  0.16500000000E+002,  0.00000000000E+000,  0.10000000000E+001
  0.95880000000E+005,  0.79618778695E+006,  0.16500000000E+002,  0.00000000000E+000,  0.10000000000E+001
  0.95910000000E+005,  0.79704086762E+006,  0.16500000000E+002,  0.00000000000E+000,  0.10000000000E+001
  0.95940000000E+005,  0.79790872215E+006,  0.16500000000E+002,  0.00000000000E+000,  0.10000000000E+001
  0.95970000000E+005,  0.79879004045E+006,  0.16500000000E+002,  0.00000000000E+000,  0.10000000000E+001
  0.96000000000E+005,  0.79968358361E+006,  0.16500000000E+002,  0.00000000000E+000,  0.10000000000E+001
  0.96030000000E+005,  0.80058818027E+006,  0.16500000000E+002,  0.00000000000E+000,  0.10000000000E+001
  0.96060000000E+005,  0.80150271977E+006,  0.16500000000E+002,  0.00000000000E+000,  0.10000000000E+001
  0.96090000000E+005,  0.80242614376E+006,  0.16500000000E+002,  0.00000000000E+000,  0.10000000000E+001
  0.96120000000E+005,  0.80335743939E+006,  0.16500000000E+002,  0.00000000000E+000,  0.10000000000E+001
  0.96150000000E+005,  0.80429563597E+006,  0.16500000000E+002,  0.00000000000E+000,  0.10000000000E+001
  0.96180000000E+005,  0.80523980513E+006,  0.16500000000E+002,  0.00000000000E+000,  0.10000000000E+001
  0.96210000000E+005,  0.80618906331E+006,  0.16500000000E+002,  0.00000000000E+000,  0.10000000000E+001
  0.96240000000E+005,  0.80714257499E+006,  0.16500000000E+002,  0.00000000000E+000,  0.10000000000E+001
  0.96270000000E+005,  0.80809955550E+006,  0.16500000000E+002,  0.00000000000E+000,  0.10000000000E+001
  0.96300000000E+005,  0.80905927260E+006,  0.16500000000E+002,  0.00000000000E+000,  0.10000000000E+001
  0.96330000000E+005,  0.81002104683E+006,  0.16500000000E+002,  0.00000000000E+000,  0.10000000000E+001
  0.96360000000E+005,  0.81098425050E+006,  0.16500000000E+002,  0.00000000000E+000,  0.10000000000E+001
  0.96390000000E+005,  0.81194830577E+006,  0.16500000000E+002,  0.00000000000E+000,  0.10000000000E+001
  0.96420000000E+005,  0.81291268193E+006,  0.16500000000E+002,  0.00000000000E+000,  0.10000000000E+001
  0.96450000000E+005,  0.81387689241E+006,  0.16500000000E+002,  0.00000000000E+000,  0.10000000000E+001
  0.96480000000E+005,  0.81484049143E+006,  0.16500000000E+002,  0.00000000000E+000,  0.10000000000E+001
  0.96510000000E+005,  0.81580307078E+006,  0.16500000000E+002,  0.00000000000E+000,  0.10000000000E+001
  0.96540000000E+005,  0.81676425655E+006,  0.16500000000E+002,  0.00000000000E+000,  0.10000000000E+001
  0.96570000000E+005,  0.81772370621E+006,  0.16500000000E+002,  0.00000000000E+000,  0.10000000000E+001
  0.96600000000E+005,  0.81868110578E+006,  0.16500000000E+002,  0.00000000000E+000,  0.10000000000E+001
  0.96630000000E+005,  0.81963616726E+006,  0.16500000000E+002,  0.00000000000E+000,  0.10000000000E+001
  0.96660000000E+005,  0.82058862632E+006,  0.16500000000E+002,  0.00000000000E+000,  0.10000000000E+001
  0.96690000000E+005,  0.82153824020E+006,  0.16500000000E+002,  0.00000000000E+000,  0.10000000000E+001
  0.96720000000E+005,  0.82248478586E+006,  0.16500000000E+002,  0.00000000000E+000,  0.10000000000E+001
  0.96750000000E+005,  0.82342805826E+006,  0.16500000000E+002,  0.00000000000E+000,  0.10000000000E+001
  0.96780000000E+005,  0.82436786891E+006,  0.16500000000E+002,  0.00000000000E+000,  0.10000000000E+001
  0.96810000000E+005,  0.82530404446E+006,  0.16500000000E+002,  0.00000000000E+000,  0.10000000000E+001
  0.96840000000E+005,  0.82623642558E+006,  0.16500000000E+002,  0.00000000000E+000,  0.10000000000E+001
  0.96870000000E+005,  0.82716486580E+006,  0.16500000000E+002,  0.00000000000E+000,  0.10000000000E+001
  0.96900000000E+005,  0.82808923060E+006,  0.16500000000E+002,  0.00000000000E+000,  0.10000000000E+001
  0.96930000000E+005,  0.82900939650E+006,  0.16500000000E+002,  0.00000000000E+000,  0.10000000000E+001
  0.96960000000E+005,  0.82992525032E+006,  0.16500000000E+002,  0.00000000000E+000,  0.10000000000E+001
  0.96990000000E+005,  0.83083668838E+006,  0.16500000000E+002,  0.00000000000E+000,  0.10000000000E+001
  0.97020000000E+005,  0.83174361595E+006,  0.16500000000E+002,  0.00000000000E+000,  0.10000000000E+001
  0.97050000000E+005,  0.83264594659E+006,  0.16500000000E+002,  0.00000000000E+000,  0.10000000000E+001
  0.97080000000E+005,  0.83354360165E+006,  0.16500000000E+002,  0.00000000000E+000,  0.10000000000E+001
  0.97110000000E+005,  0.83443650973E+006,  0.16500000000E+002,  0.00000000000E+000,  0.10000000000E+001
  0.97140000000E+005,  0.83532460625E+006,  0.16500000000E+002,  0.00000000000E+000,  0.10000000000E+001
  0.97170000000E+005,  0.83620783304E+006,  0.16500000000E+002,  0.00000000000E+000,  0.10000000000E+001
  0.97200000000E+005,  0.83708613791E+006,  0.16500000000E+002,  0.00000000000E+000,  0.10000000000E+001
  0.97230000000E+005,  0.83795947430E+006,  0.16500000000E+002,  0.00000000000E+000,  0.10000000000E+001
  0.97260000000E+005,  0.83882780097E+006,  0.16500000000E+002,  0.00000000000E+000,  0.10000000000E+001
  0.97290000000E+005,  0.83969108164E+006,  0.16500000000E+002,  0.00000000000E+000,  0.10000000000E+001
  0.97320000000E+005,  0.84054928473E+006,  0.16500000000E+002,  0.00000000000E+000,  0.10000000000E+001
  0.97350000000E+005,  0.84140238310E+006,  0.16500000000E+002,  0.00000000000E+000,  0.10000000000E+001
  0.97380000000E+005,  0.84225035371E+006,  0.16500000000E+002,  0.00000000000E+000,  0.10000000000E+001
  0.97410000000E+005,  0.84309317747E+006,  0.16500000000E+002,  0.00000000000E+000,  0.10000000000E+001
  0.97440000000E+005,  0.84393083895E+006,  0.16500000000E+002,  0.00000000000E+000,  0.10000000000E+001
  0.97470000000E+005,  0.84476332621E+006,  0.16500000000E+002,  0.00000000000E+000,  0.10000000000E+001
  0.97500000000E+005,  0.84559063058E+006,  0.16500000000E+002,  0.00000000000E+000,  0.10000000000E+001
  0.97530000000E+005,  0.84641274642E+006,  0.16500000000E+002,  0.00000000000E+000,  0.10000000000E+001
  0.97560000000E+005,  0.84722967104E+006,  0.16500000000E+002,  0.00000000000E+000,  0.10000000000E+001
  0.97590000000E+005,  0.84804140444E+006,  0.16500000000E+002,  0.00000000000E+000,  0.10000000000E+001
  0.97620000000E+005,  0.84884794921E+006,  0.16500000000E+002,  0.00000000000E+000,  0.10000000000E+001
  0.97650000000E+005,  0.84964931030E+006,  0.16500000000E+002,  0.00000000000E+000,  0.10000000000E+001
  0.97680000000E+005,  0.85044549497E+006,  0.16500000000E+002,  0.00000000000E+000,  0.10000000000E+001
  0.97710000000E+005,  0.85123651261E+006,  0.16500000000E+002,  0.00000000000E+000,  0.10000000000E+001
  0.97740000000E+005,  0.85202237457E+006,  0.16500000000E+002,  0.00000000000E+000,  0.10000000000E+001
  0.97770000000E+005,  0.85280309414E+006,  0.16500000000E+002,  0.00000000000E+000,  0.10000000000E+001
  0.97800000000E+005,  0.85357868631E+006,  0.16500000000E+002,  0.00000000000E+000,  0.10000000000E+001
  0.97830000000E+005,  0.85434916774E+006,  0.16500000000E+002,  0.00000000000E+000,  0.10000000000E+001
  0.97860000000E+005,  0.85511455664E+006,  0.16500000000E+002,  0.00000000000E+000,  0.10000000000E+001
  0.97890000000E+005,  0.85587487266E+006,  0.16500000000E+002,  0.00000000000E+000,  0.10000000000E+001
  0.97920000000E+005,  0.85663013681E+006,  0.16500000000E+002,  0.00000000000E+000,  0.10000000000E+001
  0.97950000000E+005,  0.85738037135E+006,  0.16500000000E+002,  0.00000000000E+000,  0.10000000000E+001
  0.97980000000E+005,  0.85812559971E+006,  0.16500000000E+002,  0.00000000000E+000,  0.10000000000E+001
  0.98010000000E+005,  0.85886584644E+006,  0.16500000000E+002,  0.00000000000E+000,  0.10000000000E+001
  0.98040000000E+005,  0.85960113707E+006,  0.16500000000E+002,  0.00000000000E+000,  0.10000000000E+001
  0.98070000000E+005,  0.86033149812E+006,  0.16500000000E+002,  0.00000000000E+000,  0.10000000000E+001
  0.98100000000E+005,  0.86105695698E+006,  0.16500000000E+002,  0.00000000000E+000,  0.10000000000E+001
  0.98130000000E+005,  0.86177754179E+006,  0.16500000000E+002,  0.00000000000E+000,  0.10000000000E+001
  0.98160000000E+005,  0.86249328152E+006,  0.16500000000E+002,  0.00000000000E+000,  0.10000000000E+001
  0.98190000000E+005,  0.86320420578E+006,  0.16500000000E+002,  0.00000000000E+000,  0.10000000000E+001
  0.98220000000E+005,  0.86391034483E+006,  0.16500000000E+002,  0.00000000000E+000,  0.10000000000E+001
  0.98250000000E+005,  0.86461172952E+006,  0.16500000000E+002,  0.00000000000E+000,  0.10000000000E+001
  0.98280000000E+005,  0.86530839121E+006,  0.16500000000E+002,  0.00000000000E+000,  0.10000000000E+001
  0.98310000000E+005,  0.86600036175E+006,  0.16500000000E+002,  0.00000000000E+000,  0.10000000000E+001
  0.98340000000E+005,  0.86668767344E+006,  0.16500000000E+002,  0.00000000000E+000,  0.10000000000E+001
  0.98370000000E+005,  0.86737035895E+006,  0.16500000000E+002,  0.00000000000E+000,  0.10000000000E+001
  0.98400000000E+005,  0.86804845131E+006,  0.16500000000E+002,  0.00000000000E+000,  0.10000000000E+001
  0.98430000000E+005,  0.86872198389E+006,  0.16500000000E+002,  0.00000000000E+000,  0.10000000000E+001
  0.98460000000E+005,  0.86939099029E+006,  0.16500000000E+002,  0.00000000000E+000,  0.10000000000E+001
  0.98490000000E+005,  0.87005550440E+006,  0.16500000000E+002,  0.00000000000E+000,  0.10000000000E+001
  0.98520000000E+005,  0.87071556029E+006,  0.16500000000E+002,  0.00000000000E+000,  0.10000000000E+001
  0.98533000000E+005,  0.87100074961E+006,  0.16500000000E+002,  0.00000000000E+000,  0.10000000000E+001
=======
  0.94920000000E+005,  0.78395362234E+006,  0.16500000000E+002,  0.00000000000E+000,  0.10000000000E+001
  0.94923750000E+005,  0.78395363954E+006,  0.16500000000E+002,  0.00000000000E+000,  0.10000000000E+001
  0.94942500000E+005,  0.78395374837E+006,  0.16500000000E+002,  0.00000000000E+000,  0.10000000000E+001
  0.94942968750E+005,  0.78395375110E+006,  0.16500000000E+002,  0.00000000000E+000,  0.10000000000E+001
  0.94943261719E+005,  0.78395375282E+006,  0.16500000000E+002,  0.00000000000E+000,  0.10000000000E+001
  0.94944726562E+005,  0.78395376156E+006,  0.16500000000E+002,  0.00000000000E+000,  0.10000000000E+001
  0.94944841003E+005,  0.78395376224E+006,  0.16500000000E+002,  0.00000000000E+000,  0.10000000000E+001
  0.94944912529E+005,  0.78395376267E+006,  0.16500000000E+002,  0.00000000000E+000,  0.10000000000E+001
  0.94944957232E+005,  0.78395376294E+006,  0.16500000000E+002,  0.00000000000E+000,  0.10000000000E+001
  0.94944985172E+005,  0.78395376311E+006,  0.16500000000E+002,  0.00000000000E+000,  0.10000000000E+001
  0.94945002634E+005,  0.78395376321E+006,  0.16500000000E+002,  0.00000000000E+000,  0.10000000000E+001
  0.94945013548E+005,  0.78395376328E+006,  0.16500000000E+002,  0.00000000000E+000,  0.10000000000E+001
  0.94945020370E+005,  0.78395376332E+006,  0.16500000000E+002,  0.00000000000E+000,  0.10000000000E+001
  0.94945024633E+005,  0.78395376334E+006,  0.16500000000E+002,  0.00000000000E+000,  0.10000000000E+001
  0.94945045949E+005,  0.78395376347E+006,  0.16500000000E+002,  0.00000000000E+000,  0.10000000000E+001
  0.94945047614E+005,  0.78395376348E+006,  0.16500000000E+002,  0.00000000000E+000,  0.10000000000E+001
  0.94945048655E+005,  0.78395376349E+006,  0.16500000000E+002,  0.00000000000E+000,  0.10000000000E+001
  0.94945049306E+005,  0.78395376349E+006,  0.16500000000E+002,  0.00000000000E+000,  0.10000000000E+001
  0.94945049712E+005,  0.78395376349E+006,  0.16500000000E+002,  0.00000000000E+000,  0.10000000000E+001
  0.94945049967E+005,  0.78395376349E+006,  0.16500000000E+002,  0.00000000000E+000,  0.10000000000E+001
  0.94945050125E+005,  0.78395376350E+006,  0.16500000000E+002,  0.00000000000E+000,  0.10000000000E+001
  0.94945050225E+005,  0.78395376350E+006,  0.16500000000E+002,  0.00000000000E+000,  0.10000000000E+001
  0.94945050287E+005,  0.78395376350E+006,  0.16500000000E+002,  0.00000000000E+000,  0.10000000000E+001
  0.94945050325E+005,  0.78395376350E+006,  0.16500000000E+002,  0.00000000000E+000,  0.10000000000E+001
  0.94945050350E+005,  0.78395376350E+006,  0.16500000000E+002,  0.00000000000E+000,  0.10000000000E+001
  0.94945050365E+005,  0.78395376350E+006,  0.16500000000E+002,  0.00000000000E+000,  0.10000000000E+001
  0.94945050441E+005,  0.78395376350E+006,  0.16500000000E+002,  0.00000000000E+000,  0.10000000000E+001
  0.94945050446E+005,  0.78395376350E+006,  0.16500000000E+002,  0.00000000000E+000,  0.10000000000E+001
  0.94945050450E+005,  0.78395376350E+006,  0.16500000000E+002,  0.00000000000E+000,  0.10000000000E+001
  0.94945050452E+005,  0.78395376350E+006,  0.16500000000E+002,  0.00000000000E+000,  0.10000000000E+001
  0.94945050454E+005,  0.78395376350E+006,  0.16500000000E+002,  0.00000000000E+000,  0.10000000000E+001
  0.94945050454E+005,  0.78395376350E+006,  0.16500000000E+002,  0.00000000000E+000,  0.10000000000E+001
  0.94945050454E+005,  0.78395376350E+006,  0.16500000000E+002,  0.00000000000E+000,  0.10000000000E+001
  0.94945050454E+005,  0.78395376350E+006,  0.16500000000E+002,  0.00000000000E+000,  0.10000000000E+001
  0.94945050454E+005,  0.78395376350E+006,  0.16500000000E+002,  0.00000000000E+000,  0.10000000000E+001
  0.94945050454E+005,  0.78395376350E+006,  0.16500000000E+002,  0.00000000000E+000,  0.10000000000E+001
  0.94945050455E+005,  0.78395376350E+006,  0.16500000000E+002,  0.00000000000E+000,  0.10000000000E+001
  0.94945050455E+005,  0.78395376350E+006,  0.16500000000E+002,  0.00000000000E+000,  0.10000000000E+001
  0.94945050455E+005,  0.78395376350E+006,  0.16500000000E+002,  0.00000000000E+000,  0.10000000000E+001
  0.94945050455E+005,  0.78395376350E+006,  0.16500000000E+002,  0.00000000000E+000,  0.10000000000E+001
  0.94945050455E+005,  0.78395376350E+006,  0.16500000000E+002,  0.00000000000E+000,  0.10000000000E+001
>>>>>>> 5c4d742be9d98b3e10c8c39d5b9a306f84026154
