"           TIME(S)","              PRES","              TEMP","             SAT_G","             SAT_L"
  0.50000000000E+001,  0.15839217291E+006,  0.16500000000E+002,  0.00000000000E+000,  0.10000000000E+001
  0.30000000000E+002,  0.18530360821E+006,  0.16500000000E+002,  0.00000000000E+000,  0.10000000000E+001
  0.90000000000E+002,  0.20168661490E+006,  0.16500000000E+002,  0.00000000000E+000,  0.10000000000E+001
  0.15000000000E+003,  0.21009638251E+006,  0.16500000000E+002,  0.00000000000E+000,  0.10000000000E+001
  0.21000000000E+003,  0.21567433526E+006,  0.16500000000E+002,  0.00000000000E+000,  0.10000000000E+001
  0.27000000000E+003,  0.21982347943E+006,  0.16500000000E+002,  0.00000000000E+000,  0.10000000000E+001
  0.33000000000E+003,  0.22311625291E+006,  0.16500000000E+002,  0.00000000000E+000,  0.10000000000E+001
  0.39000000000E+003,  0.22584100968E+006,  0.16500000000E+002,  0.00000000000E+000,  0.10000000000E+001
  0.45000000000E+003,  0.22816269622E+006,  0.16500000000E+002,  0.00000000000E+000,  0.10000000000E+001
  0.51000000000E+003,  0.23018415457E+006,  0.16500000000E+002,  0.00000000000E+000,  0.10000000000E+001
  0.57000000000E+003,  0.23197364254E+006,  0.16500000000E+002,  0.00000000000E+000,  0.10000000000E+001
  0.63000000000E+003,  0.23357867307E+006,  0.16500000000E+002,  0.00000000000E+000,  0.10000000000E+001
  0.69000000000E+003,  0.23503358882E+006,  0.16500000000E+002,  0.00000000000E+000,  0.10000000000E+001
  0.75000000000E+003,  0.23636398766E+006,  0.16500000000E+002,  0.00000000000E+000,  0.10000000000E+001
  0.81000000000E+003,  0.23758944465E+006,  0.16500000000E+002,  0.00000000000E+000,  0.10000000000E+001
  0.87000000000E+003,  0.23872525824E+006,  0.16500000000E+002,  0.00000000000E+000,  0.10000000000E+001
  0.93000000000E+003,  0.23978360980E+006,  0.16500000000E+002,  0.00000000000E+000,  0.10000000000E+001
  0.99000000000E+003,  0.24077435693E+006,  0.16500000000E+002,  0.00000000000E+000,  0.10000000000E+001
  0.10500000000E+004,  0.24170558987E+006,  0.16500000000E+002,  0.00000000000E+000,  0.10000000000E+001
  0.11100000000E+004,  0.24258403147E+006,  0.16500000000E+002,  0.00000000000E+000,  0.10000000000E+001
  0.11700000000E+004,  0.24341532940E+006,  0.16500000000E+002,  0.00000000000E+000,  0.10000000000E+001
  0.12300000000E+004,  0.24420427477E+006,  0.16500000000E+002,  0.00000000000E+000,  0.10000000000E+001
  0.12900000000E+004,  0.24495496719E+006,  0.16500000000E+002,  0.00000000000E+000,  0.10000000000E+001
  0.13500000000E+004,  0.24567094213E+006,  0.16500000000E+002,  0.00000000000E+000,  0.10000000000E+001
  0.14100000000E+004,  0.24635526986E+006,  0.16500000000E+002,  0.00000000000E+000,  0.10000000000E+001
  0.14700000000E+004,  0.24701063372E+006,  0.16500000000E+002,  0.00000000000E+000,  0.10000000000E+001
  0.15300000000E+004,  0.24763939241E+006,  0.16500000000E+002,  0.00000000000E+000,  0.10000000000E+001
  0.15900000000E+004,  0.24824363024E+006,  0.16500000000E+002,  0.00000000000E+000,  0.10000000000E+001
  0.16500000000E+004,  0.24882519795E+006,  0.16500000000E+002,  0.00000000000E+000,  0.10000000000E+001
  0.17100000000E+004,  0.24938574625E+006,  0.16500000000E+002,  0.00000000000E+000,  0.10000000000E+001
  0.17700000000E+004,  0.24992675345E+006,  0.16500000000E+002,  0.00000000000E+000,  0.10000000000E+001
  0.18300000000E+004,  0.25044954856E+006,  0.16500000000E+002,  0.00000000000E+000,  0.10000000000E+001
  0.18900000000E+004,  0.25095533059E+006,  0.16500000000E+002,  0.00000000000E+000,  0.10000000000E+001
  0.19500000000E+004,  0.25144518487E+006,  0.16500000000E+002,  0.00000000000E+000,  0.10000000000E+001
  0.20100000000E+004,  0.25192009686E+006,  0.16500000000E+002,  0.00000000000E+000,  0.10000000000E+001
  0.20700000000E+004,  0.25238096397E+006,  0.16500000000E+002,  0.00000000000E+000,  0.10000000000E+001
  0.21300000000E+004,  0.25282860561E+006,  0.16500000000E+002,  0.00000000000E+000,  0.10000000000E+001
  0.21900000000E+004,  0.25326377199E+006,  0.16500000000E+002,  0.00000000000E+000,  0.10000000000E+001
  0.22500000000E+004,  0.25368715156E+006,  0.16500000000E+002,  0.00000000000E+000,  0.10000000000E+001
  0.23100000000E+004,  0.25409937843E+006,  0.16500000000E+002,  0.00000000000E+000,  0.10000000000E+001
  0.23700000000E+004,  0.25450103268E+006,  0.16500000000E+002,  0.00000000000E+000,  0.10000000000E+001
  0.24300000000E+004,  0.25489265844E+006,  0.16500000000E+002,  0.00000000000E+000,  0.10000000000E+001
  0.24900000000E+004,  0.25527475219E+006,  0.16500000000E+002,  0.00000000000E+000,  0.10000000000E+001
  0.25500000000E+004,  0.25564777473E+006,  0.16500000000E+002,  0.00000000000E+000,  0.10000000000E+001
  0.26100000000E+004,  0.25601215369E+006,  0.16500000000E+002,  0.00000000000E+000,  0.10000000000E+001
  0.26700000000E+004,  0.25636828752E+006,  0.16500000000E+002,  0.00000000000E+000,  0.10000000000E+001
  0.27300000000E+004,  0.25671654390E+006,  0.16500000000E+002,  0.00000000000E+000,  0.10000000000E+001
  0.27900000000E+004,  0.25705726241E+006,  0.16500000000E+002,  0.00000000000E+000,  0.10000000000E+001
  0.28500000000E+004,  0.25739076158E+006,  0.16500000000E+002,  0.00000000000E+000,  0.10000000000E+001
  0.29100000000E+004,  0.25771733634E+006,  0.16500000000E+002,  0.00000000000E+000,  0.10000000000E+001
  0.29700000000E+004,  0.25803725937E+006,  0.16500000000E+002,  0.00000000000E+000,  0.10000000000E+001
  0.30300000000E+004,  0.25835078494E+006,  0.16500000000E+002,  0.00000000000E+000,  0.10000000000E+001
  0.30900000000E+004,  0.25865814863E+006,  0.16500000000E+002,  0.00000000000E+000,  0.10000000000E+001
  0.31500000000E+004,  0.25895957573E+006,  0.16500000000E+002,  0.00000000000E+000,  0.10000000000E+001
  0.32100000000E+004,  0.25925527278E+006,  0.16500000000E+002,  0.00000000000E+000,  0.10000000000E+001
  0.32700000000E+004,  0.25954542858E+006,  0.16500000000E+002,  0.00000000000E+000,  0.10000000000E+001
  0.33300000000E+004,  0.25983022953E+006,  0.16500000000E+002,  0.00000000000E+000,  0.10000000000E+001
  0.33900000000E+004,  0.26010984752E+006,  0.16500000000E+002,  0.00000000000E+000,  0.10000000000E+001
  0.34500000000E+004,  0.26038443975E+006,  0.16500000000E+002,  0.00000000000E+000,  0.10000000000E+001
  0.35100000000E+004,  0.26065415727E+006,  0.16500000000E+002,  0.00000000000E+000,  0.10000000000E+001
  0.35700000000E+004,  0.26091914520E+006,  0.16500000000E+002,  0.00000000000E+000,  0.10000000000E+001
  0.36300000000E+004,  0.26117953949E+006,  0.16500000000E+002,  0.00000000000E+000,  0.10000000000E+001
  0.36900000000E+004,  0.26143547140E+006,  0.16500000000E+002,  0.00000000000E+000,  0.10000000000E+001
  0.37500000000E+004,  0.26168705832E+006,  0.16500000000E+002,  0.00000000000E+000,  0.10000000000E+001
  0.38100000000E+004,  0.26193441893E+006,  0.16500000000E+002,  0.00000000000E+000,  0.10000000000E+001
  0.38700000000E+004,  0.26217766672E+006,  0.16500000000E+002,  0.00000000000E+000,  0.10000000000E+001
  0.39300000000E+004,  0.26241690534E+006,  0.16500000000E+002,  0.00000000000E+000,  0.10000000000E+001
  0.39900000000E+004,  0.26265223667E+006,  0.16500000000E+002,  0.00000000000E+000,  0.10000000000E+001
  0.40500000000E+004,  0.26288375738E+006,  0.16500000000E+002,  0.00000000000E+000,  0.10000000000E+001
  0.41100000000E+004,  0.26311156336E+006,  0.16500000000E+002,  0.00000000000E+000,  0.10000000000E+001
  0.41700000000E+004,  0.26333574141E+006,  0.16500000000E+002,  0.00000000000E+000,  0.10000000000E+001
  0.42300000000E+004,  0.26355637799E+006,  0.16500000000E+002,  0.00000000000E+000,  0.10000000000E+001
  0.42900000000E+004,  0.26377355928E+006,  0.16500000000E+002,  0.00000000000E+000,  0.10000000000E+001
  0.43500000000E+004,  0.26398736006E+006,  0.16500000000E+002,  0.00000000000E+000,  0.10000000000E+001
  0.44100000000E+004,  0.26419786182E+006,  0.16500000000E+002,  0.00000000000E+000,  0.10000000000E+001
  0.44700000000E+004,  0.26440513626E+006,  0.16500000000E+002,  0.00000000000E+000,  0.10000000000E+001
  0.45300000000E+004,  0.26460925510E+006,  0.16500000000E+002,  0.00000000000E+000,  0.10000000000E+001
  0.45900000000E+004,  0.26481028734E+006,  0.16500000000E+002,  0.00000000000E+000,  0.10000000000E+001
  0.46500000000E+004,  0.26500830001E+006,  0.16500000000E+002,  0.00000000000E+000,  0.10000000000E+001
  0.47100000000E+004,  0.26520335779E+006,  0.16500000000E+002,  0.00000000000E+000,  0.10000000000E+001
  0.47700000000E+004,  0.26539552324E+006,  0.16500000000E+002,  0.00000000000E+000,  0.10000000000E+001
  0.48300000000E+004,  0.26558485693E+006,  0.16500000000E+002,  0.00000000000E+000,  0.10000000000E+001
  0.48900000000E+004,  0.26577141758E+006,  0.16500000000E+002,  0.00000000000E+000,  0.10000000000E+001
  0.49500000000E+004,  0.26595526207E+006,  0.16500000000E+002,  0.00000000000E+000,  0.10000000000E+001
  0.50100000000E+004,  0.26613644561E+006,  0.16500000000E+002,  0.00000000000E+000,  0.10000000000E+001
  0.50700000000E+004,  0.26631502173E+006,  0.16500000000E+002,  0.00000000000E+000,  0.10000000000E+001
  0.51300000000E+004,  0.26649104245E+006,  0.16500000000E+002,  0.00000000000E+000,  0.10000000000E+001
  0.51900000000E+004,  0.26666455826E+006,  0.16500000000E+002,  0.00000000000E+000,  0.10000000000E+001
  0.52500000000E+004,  0.26683561824E+006,  0.16500000000E+002,  0.00000000000E+000,  0.10000000000E+001
  0.53100000000E+004,  0.26700427011E+006,  0.16500000000E+002,  0.00000000000E+000,  0.10000000000E+001
  0.53700000000E+004,  0.26717056027E+006,  0.16500000000E+002,  0.00000000000E+000,  0.10000000000E+001
  0.54300000000E+004,  0.26733453388E+006,  0.16500000000E+002,  0.00000000000E+000,  0.10000000000E+001
  0.54900000000E+004,  0.26749623490E+006,  0.16500000000E+002,  0.00000000000E+000,  0.10000000000E+001
  0.55500000000E+004,  0.26765570615E+006,  0.16500000000E+002,  0.00000000000E+000,  0.10000000000E+001
  0.56100000000E+004,  0.26781298934E+006,  0.16500000000E+002,  0.00000000000E+000,  0.10000000000E+001
  0.56700000000E+004,  0.26796812511E+006,  0.16500000000E+002,  0.00000000000E+000,  0.10000000000E+001
  0.57300000000E+004,  0.26812115311E+006,  0.16500000000E+002,  0.00000000000E+000,  0.10000000000E+001
  0.57900000000E+004,  0.26827211200E+006,  0.16500000000E+002,  0.00000000000E+000,  0.10000000000E+001
  0.58500000000E+004,  0.26842103948E+006,  0.16500000000E+002,  0.00000000000E+000,  0.10000000000E+001
  0.59100000000E+004,  0.26856797238E+006,  0.16500000000E+002,  0.00000000000E+000,  0.10000000000E+001
  0.59700000000E+004,  0.26871294662E+006,  0.16500000000E+002,  0.00000000000E+000,  0.10000000000E+001
  0.60300000000E+004,  0.26887451342E+006,  0.16500000000E+002,  0.00000000000E+000,  0.10000000000E+001
  0.60900000000E+004,  0.26903748356E+006,  0.16500000000E+002,  0.00000000000E+000,  0.10000000000E+001
  0.61500000000E+004,  0.26918179395E+006,  0.16500000000E+002,  0.00000000000E+000,  0.10000000000E+001
  0.62100000000E+004,  0.26932216131E+006,  0.16500000000E+002,  0.00000000000E+000,  0.10000000000E+001
  0.62700000000E+004,  0.26945991846E+006,  0.16500000000E+002,  0.00000000000E+000,  0.10000000000E+001
  0.63300000000E+004,  0.26959546383E+006,  0.16500000000E+002,  0.00000000000E+000,  0.10000000000E+001
  0.63900000000E+004,  0.26972899071E+006,  0.16500000000E+002,  0.00000000000E+000,  0.10000000000E+001
  0.64500000000E+004,  0.26986061694E+006,  0.16500000000E+002,  0.00000000000E+000,  0.10000000000E+001
  0.65100000000E+004,  0.26999042489E+006,  0.16500000000E+002,  0.00000000000E+000,  0.10000000000E+001
  0.65700000000E+004,  0.27011847779E+006,  0.16500000000E+002,  0.00000000000E+000,  0.10000000000E+001
  0.66300000000E+004,  0.27024482743E+006,  0.16500000000E+002,  0.00000000000E+000,  0.10000000000E+001
  0.66900000000E+004,  0.27036951824E+006,  0.16500000000E+002,  0.00000000000E+000,  0.10000000000E+001
  0.67500000000E+004,  0.27049258967E+006,  0.16500000000E+002,  0.00000000000E+000,  0.10000000000E+001
  0.68100000000E+004,  0.27061407760E+006,  0.16500000000E+002,  0.00000000000E+000,  0.10000000000E+001
  0.68700000000E+004,  0.27073401520E+006,  0.16500000000E+002,  0.00000000000E+000,  0.10000000000E+001
  0.69300000000E+004,  0.27085243361E+006,  0.16500000000E+002,  0.00000000000E+000,  0.10000000000E+001
  0.69900000000E+004,  0.27096936225E+006,  0.16500000000E+002,  0.00000000000E+000,  0.10000000000E+001
  0.70500000000E+004,  0.27108482922E+006,  0.16500000000E+002,  0.00000000000E+000,  0.10000000000E+001
  0.71100000000E+004,  0.27119886141E+006,  0.16500000000E+002,  0.00000000000E+000,  0.10000000000E+001
  0.71700000000E+004,  0.27131148473E+006,  0.16500000000E+002,  0.00000000000E+000,  0.10000000000E+001
  0.72300000000E+004,  0.27142272419E+006,  0.16500000000E+002,  0.00000000000E+000,  0.10000000000E+001
  0.72900000000E+004,  0.27153260400E+006,  0.16500000000E+002,  0.00000000000E+000,  0.10000000000E+001
  0.73500000000E+004,  0.27164114766E+006,  0.16500000000E+002,  0.00000000000E+000,  0.10000000000E+001
  0.74100000000E+004,  0.27174837799E+006,  0.16500000000E+002,  0.00000000000E+000,  0.10000000000E+001
  0.74700000000E+004,  0.27185431721E+006,  0.16500000000E+002,  0.00000000000E+000,  0.10000000000E+001
  0.75300000000E+004,  0.27195898694E+006,  0.16500000000E+002,  0.00000000000E+000,  0.10000000000E+001
  0.75900000000E+004,  0.27206240828E+006,  0.16500000000E+002,  0.00000000000E+000,  0.10000000000E+001
  0.76500000000E+004,  0.27216460182E+006,  0.16500000000E+002,  0.00000000000E+000,  0.10000000000E+001
  0.77100000000E+004,  0.27226558764E+006,  0.16500000000E+002,  0.00000000000E+000,  0.10000000000E+001
  0.77700000000E+004,  0.27236538539E+006,  0.16500000000E+002,  0.00000000000E+000,  0.10000000000E+001
  0.78300000000E+004,  0.27246401423E+006,  0.16500000000E+002,  0.00000000000E+000,  0.10000000000E+001
  0.78900000000E+004,  0.27256149294E+006,  0.16500000000E+002,  0.00000000000E+000,  0.10000000000E+001
  0.79500000000E+004,  0.27265783985E+006,  0.16500000000E+002,  0.00000000000E+000,  0.10000000000E+001
  0.80100000000E+004,  0.27275307293E+006,  0.16500000000E+002,  0.00000000000E+000,  0.10000000000E+001
  0.80700000000E+004,  0.27284720974E+006,  0.16500000000E+002,  0.00000000000E+000,  0.10000000000E+001
  0.81300000000E+004,  0.27294026747E+006,  0.16500000000E+002,  0.00000000000E+000,  0.10000000000E+001
  0.81900000000E+004,  0.27303226298E+006,  0.16500000000E+002,  0.00000000000E+000,  0.10000000000E+001
  0.82500000000E+004,  0.27312321274E+006,  0.16500000000E+002,  0.00000000000E+000,  0.10000000000E+001
  0.83100000000E+004,  0.27321313293E+006,  0.16500000000E+002,  0.00000000000E+000,  0.10000000000E+001
  0.83700000000E+004,  0.27330203936E+006,  0.16500000000E+002,  0.00000000000E+000,  0.10000000000E+001
  0.84300000000E+004,  0.27338994754E+006,  0.16500000000E+002,  0.00000000000E+000,  0.10000000000E+001
  0.84900000000E+004,  0.27347687268E+006,  0.16500000000E+002,  0.00000000000E+000,  0.10000000000E+001
  0.85500000000E+004,  0.27356282966E+006,  0.16500000000E+002,  0.00000000000E+000,  0.10000000000E+001
  0.86100000000E+004,  0.27364783310E+006,  0.16500000000E+002,  0.00000000000E+000,  0.10000000000E+001
  0.86700000000E+004,  0.27373189731E+006,  0.16500000000E+002,  0.00000000000E+000,  0.10000000000E+001
  0.87300000000E+004,  0.27381503633E+006,  0.16500000000E+002,  0.00000000000E+000,  0.10000000000E+001
  0.87900000000E+004,  0.27389726393E+006,  0.16500000000E+002,  0.00000000000E+000,  0.10000000000E+001
  0.88500000000E+004,  0.27397859360E+006,  0.16500000000E+002,  0.00000000000E+000,  0.10000000000E+001
  0.89100000000E+004,  0.27405903858E+006,  0.16500000000E+002,  0.00000000000E+000,  0.10000000000E+001
  0.89700000000E+004,  0.27413861186E+006,  0.16500000000E+002,  0.00000000000E+000,  0.10000000000E+001
  0.90300000000E+004,  0.27421732619E+006,  0.16500000000E+002,  0.00000000000E+000,  0.10000000000E+001
  0.90900000000E+004,  0.27429519406E+006,  0.16500000000E+002,  0.00000000000E+000,  0.10000000000E+001
  0.91500000000E+004,  0.27437222774E+006,  0.16500000000E+002,  0.00000000000E+000,  0.10000000000E+001
  0.92100000000E+004,  0.27444843926E+006,  0.16500000000E+002,  0.00000000000E+000,  0.10000000000E+001
  0.92700000000E+004,  0.27452384043E+006,  0.16500000000E+002,  0.00000000000E+000,  0.10000000000E+001
  0.93300000000E+004,  0.27459844284E+006,  0.16500000000E+002,  0.00000000000E+000,  0.10000000000E+001
  0.93900000000E+004,  0.27467225786E+006,  0.16500000000E+002,  0.00000000000E+000,  0.10000000000E+001
  0.94500000000E+004,  0.27474529666E+006,  0.16500000000E+002,  0.00000000000E+000,  0.10000000000E+001
  0.95100000000E+004,  0.27481757019E+006,  0.16500000000E+002,  0.00000000000E+000,  0.10000000000E+001
  0.95700000000E+004,  0.27488908923E+006,  0.16500000000E+002,  0.00000000000E+000,  0.10000000000E+001
  0.96300000000E+004,  0.27495986432E+006,  0.16500000000E+002,  0.00000000000E+000,  0.10000000000E+001
  0.96900000000E+004,  0.27502990584E+006,  0.16500000000E+002,  0.00000000000E+000,  0.10000000000E+001
  0.97500000000E+004,  0.27509922397E+006,  0.16500000000E+002,  0.00000000000E+000,  0.10000000000E+001
  0.98100000000E+004,  0.27516782871E+006,  0.16500000000E+002,  0.00000000000E+000,  0.10000000000E+001
  0.98700000000E+004,  0.27523572988E+006,  0.16500000000E+002,  0.00000000000E+000,  0.10000000000E+001
  0.99300000000E+004,  0.27530293712E+006,  0.16500000000E+002,  0.00000000000E+000,  0.10000000000E+001
  0.99900000000E+004,  0.27536945989E+006,  0.16500000000E+002,  0.00000000000E+000,  0.10000000000E+001
  0.10050000000E+005,  0.27543530752E+006,  0.16500000000E+002,  0.00000000000E+000,  0.10000000000E+001
  0.10110000000E+005,  0.27550048912E+006,  0.16500000000E+002,  0.00000000000E+000,  0.10000000000E+001
  0.10170000000E+005,  0.27556501359E+006,  0.16500000000E+002,  0.00000000000E+000,  0.10000000000E+001
  0.10230000000E+005,  0.27562888982E+006,  0.16500000000E+002,  0.00000000000E+000,  0.10000000000E+001
  0.10290000000E+005,  0.27569212643E+006,  0.16500000000E+002,  0.00000000000E+000,  0.10000000000E+001
  0.10350000000E+005,  0.27575473197E+006,  0.16500000000E+002,  0.00000000000E+000,  0.10000000000E+001
  0.10410000000E+005,  0.27581671480E+006,  0.16500000000E+002,  0.00000000000E+000,  0.10000000000E+001
  0.10470000000E+005,  0.27587808315E+006,  0.16500000000E+002,  0.00000000000E+000,  0.10000000000E+001
  0.10530000000E+005,  0.27593884511E+006,  0.16500000000E+002,  0.00000000000E+000,  0.10000000000E+001
  0.10590000000E+005,  0.27599900861E+006,  0.16500000000E+002,  0.00000000000E+000,  0.10000000000E+001
  0.10650000000E+005,  0.27605858146E+006,  0.16500000000E+002,  0.00000000000E+000,  0.10000000000E+001
  0.10710000000E+005,  0.27611757133E+006,  0.16500000000E+002,  0.00000000000E+000,  0.10000000000E+001
  0.10770000000E+005,  0.27617598575E+006,  0.16500000000E+002,  0.00000000000E+000,  0.10000000000E+001
  0.10830000000E+005,  0.27623383215E+006,  0.16500000000E+002,  0.00000000000E+000,  0.10000000000E+001
  0.10890000000E+005,  0.27629111779E+006,  0.16500000000E+002,  0.00000000000E+000,  0.10000000000E+001
  0.10950000000E+005,  0.27634784985E+006,  0.16500000000E+002,  0.00000000000E+000,  0.10000000000E+001
  0.11010000000E+005,  0.27640403536E+006,  0.16500000000E+002,  0.00000000000E+000,  0.10000000000E+001
  0.11070000000E+005,  0.27645968126E+006,  0.16500000000E+002,  0.00000000000E+000,  0.10000000000E+001
  0.11130000000E+005,  0.27651479433E+006,  0.16500000000E+002,  0.00000000000E+000,  0.10000000000E+001
  0.11190000000E+005,  0.27656938129E+006,  0.16500000000E+002,  0.00000000000E+000,  0.10000000000E+001
  0.11250000000E+005,  0.27662344871E+006,  0.16500000000E+002,  0.00000000000E+000,  0.10000000000E+001
