"           TIME(S)","              PRES","              TEMP","             SAT_G","             SAT_L"
  0.14262740000E+006,  0.51189584744E+007,  0.16500000000E+002,  0.00000000000E+000,  0.10000000000E+001
  0.14263240000E+006,  0.42901266901E+007,  0.16500000000E+002,  0.00000000000E+000,  0.10000000000E+001
  0.14265740000E+006,  0.34061156564E+007,  0.16500000000E+002,  0.00000000000E+000,  0.10000000000E+001
  0.14271740000E+006,  0.27744569045E+007,  0.16500000000E+002,  0.00000000000E+000,  0.10000000000E+001
  0.14277740000E+006,  0.24638112442E+007,  0.16500000000E+002,  0.00000000000E+000,  0.10000000000E+001
  0.14283740000E+006,  0.22704578830E+007,  0.16500000000E+002,  0.00000000000E+000,  0.10000000000E+001
  0.14289740000E+006,  0.21336555524E+007,  0.16500000000E+002,  0.00000000000E+000,  0.10000000000E+001
  0.14295740000E+006,  0.20289842022E+007,  0.16500000000E+002,  0.00000000000E+000,  0.10000000000E+001
  0.14301740000E+006,  0.19446567748E+007,  0.16500000000E+002,  0.00000000000E+000,  0.10000000000E+001
  0.14307740000E+006,  0.18742362572E+007,  0.16500000000E+002,  0.00000000000E+000,  0.10000000000E+001
  0.14313740000E+006,  0.18138781841E+007,  0.16500000000E+002,  0.00000000000E+000,  0.10000000000E+001
  0.14319740000E+006,  0.17611250272E+007,  0.16500000000E+002,  0.00000000000E+000,  0.10000000000E+001
  0.14325740000E+006,  0.17143200434E+007,  0.16500000000E+002,  0.00000000000E+000,  0.10000000000E+001
  0.14331740000E+006,  0.16722977741E+007,  0.16500000000E+002,  0.00000000000E+000,  0.10000000000E+001
  0.14337740000E+006,  0.16345413581E+007,  0.16500000000E+002,  0.00000000000E+000,  0.10000000000E+001
  0.14343740000E+006,  0.16019430483E+007,  0.16500000000E+002,  0.00000000000E+000,  0.10000000000E+001
  0.14345240000E+006,  0.15943061160E+007,  0.16500000000E+002,  0.00000000000E+000,  0.10000000000E+001
  0.14351240000E+006,  0.15700218097E+007,  0.16500000000E+002,  0.00000000000E+000,  0.10000000000E+001
  0.14352740000E+006,  0.15642771876E+007,  0.16500000000E+002,  0.00000000000E+000,  0.10000000000E+001
  0.14358740000E+006,  0.15430552567E+007,  0.16500000000E+002,  0.00000000000E+000,  0.10000000000E+001
  0.14360240000E+006,  0.15378945801E+007,  0.16500000000E+002,  0.00000000000E+000,  0.10000000000E+001
  0.14366240000E+006,  0.15176761934E+007,  0.16500000000E+002,  0.00000000000E+000,  0.10000000000E+001
  0.14367740000E+006,  0.15125805786E+007,  0.16500000000E+002,  0.00000000000E+000,  0.10000000000E+001
  0.14373740000E+006,  0.14933569750E+007,  0.16500000000E+002,  0.00000000000E+000,  0.10000000000E+001
  0.14379740000E+006,  0.14751426700E+007,  0.16500000000E+002,  0.00000000000E+000,  0.10000000000E+001
  0.14385740000E+006,  0.14575152238E+007,  0.16500000000E+002,  0.00000000000E+000,  0.10000000000E+001
  0.14387240000E+006,  0.14531819636E+007,  0.16500000000E+002,  0.00000000000E+000,  0.10000000000E+001
  0.14388740000E+006,  0.14489081088E+007,  0.16500000000E+002,  0.00000000000E+000,  0.10000000000E+001
  0.14394740000E+006,  0.14332444481E+007,  0.16500000000E+002,  0.00000000000E+000,  0.10000000000E+001
  0.14396240000E+006,  0.14294028387E+007,  0.16500000000E+002,  0.00000000000E+000,  0.10000000000E+001
  0.14397740000E+006,  0.14255136986E+007,  0.16500000000E+002,  0.00000000000E+000,  0.10000000000E+001
  0.14399240000E+006,  0.14216597811E+007,  0.16500000000E+002,  0.00000000000E+000,  0.10000000000E+001
  0.14399615000E+006,  0.14207097350E+007,  0.16500000000E+002,  0.00000000000E+000,  0.10000000000E+001
  0.14399732187E+006,  0.14204146246E+007,  0.16500000000E+002,  0.00000000000E+000,  0.10000000000E+001
  0.14399878672E+006,  0.14200490467E+007,  0.16500000000E+002,  0.00000000000E+000,  0.10000000000E+001
  0.14400061777E+006,  0.13940492971E+007,  0.16500000000E+002,  0.00000000000E+000,  0.10000000000E+001
  0.14400076082E+006,  0.13778608904E+007,  0.16500000000E+002,  0.00000000000E+000,  0.10000000000E+001
  0.14400093964E+006,  0.13661200772E+007,  0.16500000000E+002,  0.00000000000E+000,  0.10000000000E+001
  0.14400183371E+006,  0.13396974010E+007,  0.16500000000E+002,  0.00000000000E+000,  0.10000000000E+001
  0.14400630406E+006,  0.12966059714E+007,  0.16500000000E+002,  0.00000000000E+000,  0.10000000000E+001
  0.14400665330E+006,  0.12936543123E+007,  0.16500000000E+002,  0.00000000000E+000,  0.10000000000E+001
  0.14400839953E+006,  0.12841564371E+007,  0.16500000000E+002,  0.00000000000E+000,  0.10000000000E+001
  0.14400853596E+006,  0.12834449969E+007,  0.16500000000E+002,  0.00000000000E+000,  0.10000000000E+001
  0.14400921808E+006,  0.12804306662E+007,  0.16500000000E+002,  0.00000000000E+000,  0.10000000000E+001
  0.14400943124E+006,  0.12795334624E+007,  0.16500000000E+002,  0.00000000000E+000,  0.10000000000E+001
  0.14401049705E+006,  0.12757097537E+007,  0.16500000000E+002,  0.00000000000E+000,  0.10000000000E+001
  0.14401582613E+006,  0.12620621550E+007,  0.16500000000E+002,  0.00000000000E+000,  0.10000000000E+001
  0.14401749146E+006,  0.12581867262E+007,  0.16500000000E+002,  0.00000000000E+000,  0.10000000000E+001
  0.14401957313E+006,  0.12536008761E+007,  0.16500000000E+002,  0.00000000000E+000,  0.10000000000E+001
  0.14402217521E+006,  0.12480239930E+007,  0.16500000000E+002,  0.00000000000E+000,  0.10000000000E+001
  0.14402542782E+006,  0.12415952276E+007,  0.16500000000E+002,  0.00000000000E+000,  0.10000000000E+001
  0.14402949358E+006,  0.12339502701E+007,  0.16500000000E+002,  0.00000000000E+000,  0.10000000000E+001
  0.14403457578E+006,  0.12251256554E+007,  0.16500000000E+002,  0.00000000000E+000,  0.10000000000E+001
  0.14403616396E+006,  0.12225499360E+007,  0.16500000000E+002,  0.00000000000E+000,  0.10000000000E+001
  0.14403814920E+006,  0.12194050773E+007,  0.16500000000E+002,  0.00000000000E+000,  0.10000000000E+001
  0.14404063074E+006,  0.12155761231E+007,  0.16500000000E+002,  0.00000000000E+000,  0.10000000000E+001
  0.14404373266E+006,  0.12110729733E+007,  0.16500000000E+002,  0.00000000000E+000,  0.10000000000E+001
  0.14404470202E+006,  0.12096525995E+007,  0.16500000000E+002,  0.00000000000E+000,  0.10000000000E+001
  0.14404954878E+006,  0.12030863078E+007,  0.16500000000E+002,  0.00000000000E+000,  0.10000000000E+001
  0.14405106339E+006,  0.12012308105E+007,  0.16500000000E+002,  0.00000000000E+000,  0.10000000000E+001
  0.14405295666E+006,  0.11989361022E+007,  0.16500000000E+002,  0.00000000000E+000,  0.10000000000E+001
  0.14405532324E+006,  0.11962212632E+007,  0.16500000000E+002,  0.00000000000E+000,  0.10000000000E+001
  0.14405606280E+006,  0.11953449630E+007,  0.16500000000E+002,  0.00000000000E+000,  0.10000000000E+001
  0.14405976058E+006,  0.11910244748E+007,  0.16500000000E+002,  0.00000000000E+000,  0.10000000000E+001
  0.14406438281E+006,  0.11858426124E+007,  0.16500000000E+002,  0.00000000000E+000,  0.10000000000E+001
  0.14407016060E+006,  0.11797659107E+007,  0.16500000000E+002,  0.00000000000E+000,  0.10000000000E+001
  0.14407196616E+006,  0.11779600214E+007,  0.16500000000E+002,  0.00000000000E+000,  0.10000000000E+001
  0.14408099396E+006,  0.11722522031E+007,  0.16500000000E+002,  0.40551743307E-004,  0.99995944826E+000
  0.14412613294E+006,  0.11634858686E+007,  0.16500000000E+002,  0.16596908750E-003,  0.99983403091E+000
  0.14414113294E+006,  0.11608331581E+007,  0.16500000000E+002,  0.19376491549E-003,  0.99980623508E+000
  0.14420113294E+006,  0.11518206763E+007,  0.16500000000E+002,  0.26154812602E-003,  0.99973845187E+000
  0.14426113294E+006,  0.11431646706E+007,  0.16500000000E+002,  0.30646202681E-003,  0.99969353797E+000
  0.14432113294E+006,  0.11343218965E+007,  0.16500000000E+002,  0.33860404450E-003,  0.99966139596E+000
  0.14438113294E+006,  0.11251277857E+007,  0.16500000000E+002,  0.36264347882E-003,  0.99963735652E+000
  0.14444113294E+006,  0.11155666566E+007,  0.16500000000E+002,  0.38086249956E-003,  0.99961913750E+000
  0.14450113294E+006,  0.11056984511E+007,  0.16500000000E+002,  0.39487755883E-003,  0.99960512244E+000
  0.14456113294E+006,  0.10956055451E+007,  0.16500000000E+002,  0.40557839810E-003,  0.99959442160E+000
  0.14462113294E+006,  0.10853690060E+007,  0.16500000000E+002,  0.41365228040E-003,  0.99958634772E+000
  0.14468113294E+006,  0.10750589819E+007,  0.16500000000E+002,  0.41965456328E-003,  0.99958034544E+000
  0.14474113294E+006,  0.10647339287E+007,  0.16500000000E+002,  0.42399135214E-003,  0.99957600865E+000
  0.14480113294E+006,  0.10544412603E+007,  0.16500000000E+002,  0.42650786386E-003,  0.99957349214E+000
  0.14486113294E+006,  0.10442204932E+007,  0.16500000000E+002,  0.42716756187E-003,  0.99957283244E+000
  0.14492113294E+006,  0.10341040704E+007,  0.16500000000E+002,  0.42622260639E-003,  0.99957377739E+000
  0.14498113294E+006,  0.10241183315E+007,  0.16500000000E+002,  0.42394194534E-003,  0.99957605805E+000
  0.14504113294E+006,  0.10142833090E+007,  0.16500000000E+002,  0.42044601953E-003,  0.99957955398E+000
  0.14510113294E+006,  0.10046130614E+007,  0.16500000000E+002,  0.41617782721E-003,  0.99958382217E+000
  0.14516113294E+006,  0.99511579625E+006,  0.16500000000E+002,  0.41158470893E-003,  0.99958841529E+000
  0.14522113294E+006,  0.98579508900E+006,  0.16500000000E+002,  0.40669227719E-003,  0.99959330772E+000
  0.14528113294E+006,  0.97665160784E+006,  0.16500000000E+002,  0.40155197993E-003,  0.99959844802E+000
  0.14534113294E+006,  0.96768381255E+006,  0.16500000000E+002,  0.39628079768E-003,  0.99960371920E+000
  0.14535613294E+006,  0.96545488978E+006,  0.16500000000E+002,  0.39491313616E-003,  0.99960508686E+000
  0.14541613294E+006,  0.95670145852E+006,  0.16500000000E+002,  0.38950212821E-003,  0.99961049787E+000
  0.14547613294E+006,  0.94811483088E+006,  0.16500000000E+002,  0.38400680851E-003,  0.99961599319E+000
  0.14553613294E+006,  0.93968938616E+006,  0.16500000000E+002,  0.37830142185E-003,  0.99962169858E+000
  0.14559613294E+006,  0.93141913831E+006,  0.16500000000E+002,  0.37237683637E-003,  0.99962762316E+000
  0.14565613294E+006,  0.92328832753E+006,  0.16500000000E+002,  0.36627000367E-003,  0.99963373000E+000
  0.14571613294E+006,  0.91528319803E+006,  0.16500000000E+002,  0.35999716795E-003,  0.99964000283E+000
  0.14577613294E+006,  0.90741341395E+006,  0.16500000000E+002,  0.35353558477E-003,  0.99964646442E+000
  0.14583613294E+006,  0.89965009514E+006,  0.16500000000E+002,  0.34686815647E-003,  0.99965313184E+000
  0.14583988294E+006,  0.89914169341E+006,  0.16500000000E+002,  0.34637688754E-003,  0.99965362311E+000
  0.14585863294E+006,  0.89662665983E+006,  0.16500000000E+002,  0.34399236973E-003,  0.99965600763E+000
  0.14591863294E+006,  0.88880055521E+006,  0.16500000000E+002,  0.33656232141E-003,  0.99966343768E+000
  0.14597863294E+006,  0.88116710289E+006,  0.16500000000E+002,  0.32918477087E-003,  0.99967081523E+000
  0.14603863294E+006,  0.87370566474E+006,  0.16500000000E+002,  0.32185737919E-003,  0.99967814262E+000
  0.14609863294E+006,  0.86640236839E+006,  0.16500000000E+002,  0.31446604381E-003,  0.99968553396E+000
  0.14615863294E+006,  0.85920947241E+006,  0.16500000000E+002,  0.30701602830E-003,  0.99969298397E+000
  0.14621863294E+006,  0.85213400221E+006,  0.16500000000E+002,  0.29941463299E-003,  0.99970058537E+000
  0.14623363294E+006,  0.85037390395E+006,  0.16500000000E+002,  0.29750302821E-003,  0.99970249697E+000
  0.14629363294E+006,  0.84345732299E+006,  0.16500000000E+002,  0.28983093673E-003,  0.99971016906E+000
  0.14635363294E+006,  0.83667386236E+006,  0.16500000000E+002,  0.28213183005E-003,  0.99971786817E+000
  0.14641363294E+006,  0.83002441888E+006,  0.16500000000E+002,  0.27437878176E-003,  0.99972562122E+000
  0.14647363294E+006,  0.82350707214E+006,  0.16500000000E+002,  0.26661922029E-003,  0.99973338078E+000
  0.14653363294E+006,  0.81712269200E+006,  0.16500000000E+002,  0.25880025804E-003,  0.99974119974E+000
  0.14659363294E+006,  0.81086930531E+006,  0.16500000000E+002,  0.25090208768E-003,  0.99974909791E+000
  0.14665363294E+006,  0.80474371187E+006,  0.16500000000E+002,  0.24293940461E-003,  0.99975706060E+000
  0.14671363294E+006,  0.79874158604E+006,  0.16500000000E+002,  0.23493098855E-003,  0.99976506901E+000
  0.14672863294E+006,  0.79724939752E+006,  0.16500000000E+002,  0.23290954446E-003,  0.99976709046E+000
  0.14678863294E+006,  0.79139443740E+006,  0.16500000000E+002,  0.22480634525E-003,  0.99977519365E+000
  0.14684863294E+006,  0.78565512705E+006,  0.16500000000E+002,  0.21658219403E-003,  0.99978341781E+000
  0.14690863294E+006,  0.78002827661E+006,  0.16500000000E+002,  0.20837070219E-003,  0.99979162930E+000
  0.14696863294E+006,  0.77451058102E+006,  0.16500000000E+002,  0.20011779007E-003,  0.99979988221E+000
  0.14698363294E+006,  0.77313869867E+006,  0.16500000000E+002,  0.19808797289E-003,  0.99980191203E+000
  0.14699863294E+006,  0.77177325549E+006,  0.16500000000E+002,  0.19595887893E-003,  0.99980404112E+000
  0.14701363294E+006,  0.77041412894E+006,  0.16500000000E+002,  0.19383849440E-003,  0.99980616151E+000
  0.14702863294E+006,  0.76906136125E+006,  0.16500000000E+002,  0.19175291211E-003,  0.99980824709E+000
  0.14708863294E+006,  0.76374594841E+006,  0.16500000000E+002,  0.18312121828E-003,  0.99981687878E+000
  0.14714863294E+006,  0.75852293762E+006,  0.16500000000E+002,  0.17435571678E-003,  0.99982564428E+000
  0.14720863294E+006,  0.75338492676E+006,  0.16500000000E+002,  0.16528475833E-003,  0.99983471524E+000
  0.14726863294E+006,  0.74832448350E+006,  0.16500000000E+002,  0.15599462369E-003,  0.99984400538E+000
  0.14732863294E+006,  0.74333595586E+006,  0.16500000000E+002,  0.14645053565E-003,  0.99985354946E+000
  0.14738863294E+006,  0.73841367172E+006,  0.16500000000E+002,  0.13665033356E-003,  0.99986334967E+000
  0.14744863294E+006,  0.73354951186E+006,  0.16500000000E+002,  0.12626140167E-003,  0.99987373860E+000
  0.14750863294E+006,  0.72873619000E+006,  0.16500000000E+002,  0.11527274178E-003,  0.99988472726E+000
  0.14756863294E+006,  0.72396721548E+006,  0.16500000000E+002,  0.10364182364E-003,  0.99989635818E+000
  0.14762863294E+006,  0.71923977641E+006,  0.16500000000E+002,  0.90784626176E-004,  0.99990921537E+000
  0.14768863294E+006,  0.71455766449E+006,  0.16500000000E+002,  0.76948238101E-004,  0.99992305176E+000
  0.14774863294E+006,  0.70990508908E+006,  0.16500000000E+002,  0.61350946758E-004,  0.99993864905E+000
  0.14780863294E+006,  0.70526569297E+006,  0.16500000000E+002,  0.42628447764E-004,  0.99995737155E+000
  0.14786863294E+006,  0.70061643538E+006,  0.16500000000E+002,  0.15294245920E-004,  0.99998470575E+000
  0.14792863294E+006,  0.69801671102E+006,  0.16500000000E+002,  0.00000000000E+000,  0.10000000000E+001
  0.14798863294E+006,  0.69611221226E+006,  0.16500000000E+002,  0.00000000000E+000,  0.10000000000E+001
  0.14804863294E+006,  0.69427994575E+006,  0.16500000000E+002,  0.00000000000E+000,  0.10000000000E+001
  0.14810863294E+006,  0.69249021194E+006,  0.16500000000E+002,  0.00000000000E+000,  0.10000000000E+001
  0.14816863294E+006,  0.69073936834E+006,  0.16500000000E+002,  0.00000000000E+000,  0.10000000000E+001
  0.14822863294E+006,  0.68903316385E+006,  0.16500000000E+002,  0.00000000000E+000,  0.10000000000E+001
  0.14824363294E+006,  0.68860015660E+006,  0.16500000000E+002,  0.00000000000E+000,  0.10000000000E+001
  0.14825863294E+006,  0.68817693423E+006,  0.16500000000E+002,  0.00000000000E+000,  0.10000000000E+001
  0.14826238294E+006,  0.68807376540E+006,  0.16500000000E+002,  0.00000000000E+000,  0.10000000000E+001
  0.14826707044E+006,  0.68794052958E+006,  0.16500000000E+002,  0.00000000000E+000,  0.10000000000E+001
  0.14827292982E+006,  0.68777203656E+006,  0.16500000000E+002,  0.00000000000E+000,  0.10000000000E+001
  0.14830222669E+006,  0.68695347893E+006,  0.16500000000E+002,  0.00000000000E+000,  0.10000000000E+001
  0.14836222669E+006,  0.68532528680E+006,  0.16500000000E+002,  0.00000000000E+000,  0.10000000000E+001
  0.14837722669E+006,  0.68491833208E+006,  0.16500000000E+002,  0.00000000000E+000,  0.10000000000E+001
  0.14839222669E+006,  0.68451271637E+006,  0.16500000000E+002,  0.00000000000E+000,  0.10000000000E+001
  0.14845222669E+006,  0.68291809747E+006,  0.16500000000E+002,  0.00000000000E+000,  0.10000000000E+001
  0.14851222669E+006,  0.68136988408E+006,  0.16500000000E+002,  0.00000000000E+000,  0.10000000000E+001
  0.14852722669E+006,  0.68098125300E+006,  0.16500000000E+002,  0.00000000000E+000,  0.10000000000E+001
  0.14858722669E+006,  0.67944329368E+006,  0.16500000000E+002,  0.00000000000E+000,  0.10000000000E+001
  0.14864722669E+006,  0.67796720733E+006,  0.16500000000E+002,  0.00000000000E+000,  0.10000000000E+001
  0.14866222669E+006,  0.67759240224E+006,  0.16500000000E+002,  0.00000000000E+000,  0.10000000000E+001
  0.14867722669E+006,  0.67720747128E+006,  0.16500000000E+002,  0.00000000000E+000,  0.10000000000E+001
  0.14873722669E+006,  0.67578581540E+006,  0.16500000000E+002,  0.00000000000E+000,  0.10000000000E+001
  0.14879722669E+006,  0.67437924687E+006,  0.16500000000E+002,  0.00000000000E+000,  0.10000000000E+001
  0.14881222669E+006,  0.67403768802E+006,  0.16500000000E+002,  0.00000000000E+000,  0.10000000000E+001
  0.14882722669E+006,  0.67369209511E+006,  0.16500000000E+002,  0.00000000000E+000,  0.10000000000E+001
  0.14888722669E+006,  0.67232590862E+006,  0.16500000000E+002,  0.00000000000E+000,  0.10000000000E+001
  0.14890222669E+006,  0.67199379607E+006,  0.16500000000E+002,  0.00000000000E+000,  0.10000000000E+001
  0.14896222669E+006,  0.67067639228E+006,  0.16500000000E+002,  0.00000000000E+000,  0.10000000000E+001
  0.14897722669E+006,  0.67033372343E+006,  0.16500000000E+002,  0.00000000000E+000,  0.10000000000E+001
  0.14899222669E+006,  0.67000940485E+006,  0.16500000000E+002,  0.00000000000E+000,  0.10000000000E+001
  0.14905222669E+006,  0.66872727815E+006,  0.16500000000E+002,  0.00000000000E+000,  0.10000000000E+001
  0.14911222669E+006,  0.66750781312E+006,  0.16500000000E+002,  0.00000000000E+000,  0.10000000000E+001
  0.14917222669E+006,  0.66629656336E+006,  0.16500000000E+002,  0.00000000000E+000,  0.10000000000E+001
  0.14918722669E+006,  0.66598971312E+006,  0.16500000000E+002,  0.00000000000E+000,  0.10000000000E+001
  0.14920222669E+006,  0.66568450787E+006,  0.16500000000E+002,  0.00000000000E+000,  0.10000000000E+001
  0.14921722669E+006,  0.66538692822E+006,  0.16500000000E+002,  0.00000000000E+000,  0.10000000000E+001
  0.14923222669E+006,  0.66508350028E+006,  0.16500000000E+002,  0.00000000000E+000,  0.10000000000E+001
  0.14924722669E+006,  0.66478026067E+006,  0.16500000000E+002,  0.00000000000E+000,  0.10000000000E+001
  0.14926222669E+006,  0.66448340988E+006,  0.16500000000E+002,  0.00000000000E+000,  0.10000000000E+001
  0.14926597669E+006,  0.66440788915E+006,  0.16500000000E+002,  0.00000000000E+000,  0.10000000000E+001
  0.14928472669E+006,  0.66403221373E+006,  0.16500000000E+002,  0.00000000000E+000,  0.10000000000E+001
  0.14929972669E+006,  0.66374049808E+006,  0.16500000000E+002,  0.00000000000E+000,  0.10000000000E+001
  0.14931472669E+006,  0.66344370221E+006,  0.16500000000E+002,  0.00000000000E+000,  0.10000000000E+001
  0.14937472669E+006,  0.66229091998E+006,  0.16500000000E+002,  0.00000000000E+000,  0.10000000000E+001
  0.14943472669E+006,  0.66117559213E+006,  0.16500000000E+002,  0.00000000000E+000,  0.10000000000E+001
  0.14949472669E+006,  0.66010249000E+006,  0.16500000000E+002,  0.00000000000E+000,  0.10000000000E+001
  0.14955472669E+006,  0.65903979507E+006,  0.16500000000E+002,  0.00000000000E+000,  0.10000000000E+001
  0.14956972669E+006,  0.65877230504E+006,  0.16500000000E+002,  0.00000000000E+000,  0.10000000000E+001
  0.14958472669E+006,  0.65850380292E+006,  0.16500000000E+002,  0.00000000000E+000,  0.10000000000E+001
