"           TIME(S)","              PRES","              TEMP","             SAT_G","             SAT_L"
  0.94860000000E+005,  0.99606484261E+006,  0.16500000000E+002,  0.00000000000E+000,  0.10000000000E+001
  0.94870000000E+005,  0.99606484270E+006,  0.16500000000E+002,  0.00000000000E+000,  0.10000000000E+001
  0.94872000000E+005,  0.99606484276E+006,  0.16500000000E+002,  0.00000000000E+000,  0.10000000000E+001
  0.94874500000E+005,  0.99606484278E+006,  0.16500000000E+002,  0.00000000000E+000,  0.10000000000E+001
  0.94877000000E+005,  0.99606484279E+006,  0.16500000000E+002,  0.00000000000E+000,  0.10000000000E+001
  0.94879500000E+005,  0.99606484279E+006,  0.16500000000E+002,  0.00000000000E+000,  0.10000000000E+001
  0.94882000000E+005,  0.12709438972E+007,  0.16500000000E+002,  0.00000000000E+000,  0.10000000000E+001
  0.94884500000E+005,  0.28295714161E+007,  0.16500000000E+002,  0.00000000000E+000,  0.10000000000E+001
  0.94887000000E+005,  0.43741645310E+007,  0.16500000000E+002,  0.00000000000E+000,  0.10000000000E+001
  0.94889500000E+005,  0.59052316684E+007,  0.16500000000E+002,  0.00000000000E+000,  0.10000000000E+001
  0.94892000000E+005,  0.74231836431E+007,  0.16500000000E+002,  0.00000000000E+000,  0.10000000000E+001
  0.94894500000E+005,  0.89283648301E+007,  0.16500000000E+002,  0.00000000000E+000,  0.10000000000E+001
  0.94897000000E+005,  0.10421073843E+008,  0.16500000000E+002,  0.00000000000E+000,  0.10000000000E+001
  0.94899500000E+005,  0.11901577220E+008,  0.16500000000E+002,  0.00000000000E+000,  0.10000000000E+001
  0.94902000000E+005,  0.13370118506E+008,  0.16500000000E+002,  0.00000000000E+000,  0.10000000000E+001
  0.94904500000E+005,  0.14826924282E+008,  0.16500000000E+002,  0.00000000000E+000,  0.10000000000E+001
  0.94907000000E+005,  0.16272208202E+008,  0.16500000000E+002,  0.00000000000E+000,  0.10000000000E+001
  0.94909500000E+005,  0.17706173710E+008,  0.16500000000E+002,  0.00000000000E+000,  0.10000000000E+001
  0.94912000000E+005,  0.19129015879E+008,  0.16500000000E+002,  0.00000000000E+000,  0.10000000000E+001
  0.94914500000E+005,  0.20545985892E+008,  0.16500000000E+002,  0.00000000000E+000,  0.10000000000E+001
  0.94917000000E+005,  0.22606775459E+008,  0.16500000000E+002,  0.00000000000E+000,  0.10000000000E+001
  0.94919500000E+005,  0.24168212298E+008,  0.16500000000E+002,  0.00000000000E+000,  0.10000000000E+001
  0.94922000000E+005,  0.25600290900E+008,  0.16500000000E+002,  0.00000000000E+000,  0.10000000000E+001
  0.94924500000E+005,  0.27273089503E+008,  0.16500000000E+002,  0.00000000000E+000,  0.10000000000E+001
  0.94927000000E+005,  0.29357332818E+008,  0.16500000000E+002,  0.00000000000E+000,  0.10000000000E+001
  0.94929500000E+005,  0.32173525517E+008,  0.16500000000E+002,  0.00000000000E+000,  0.10000000000E+001
  0.94932000000E+005,  0.36643036345E+008,  0.16500000000E+002,  0.00000000000E+000,  0.10000000000E+001
  0.94934500000E+005,  0.42911110815E+008,  0.16500000000E+002,  0.00000000000E+000,  0.10000000000E+001
  0.94937000000E+005,  0.49291599474E+008,  0.16500000000E+002,  0.00000000000E+000,  0.10000000000E+001
  0.94939500000E+005,  0.55597035302E+008,  0.16500000000E+002,  0.00000000000E+000,  0.10000000000E+001
  0.94942000000E+005,  0.61829485559E+008,  0.16500000000E+002,  0.00000000000E+000,  0.10000000000E+001
  0.94944500000E+005,  0.67990834269E+008,  0.16500000000E+002,  0.00000000000E+000,  0.10000000000E+001
  0.94947000000E+005,  0.74939341073E+008,  0.16500000000E+002,  0.00000000000E+000,  0.10000000000E+001
  0.94949500000E+005,  0.82245567243E+008,  0.16500000000E+002,  0.00000000000E+000,  0.10000000000E+001
  0.94952000000E+005,  0.89159830942E+008,  0.16500000000E+002,  0.00000000000E+000,  0.10000000000E+001
  0.94954500000E+005,  0.96046777406E+008,  0.16500000000E+002,  0.00000000000E+000,  0.10000000000E+001
  0.94954812500E+005,  0.96873510256E+008,  0.16500000000E+002,  0.00000000000E+000,  0.10000000000E+001
  0.94955007812E+005,  0.97384630943E+008,  0.16500000000E+002,  0.00000000000E+000,  0.10000000000E+001
  0.94955984375E+005,  0.99930813486E+008,  0.16500000000E+002,  0.00000000000E+000,  0.10000000000E+001
  0.94955989258E+005,  0.99943532718E+008,  0.16500000000E+002,  0.00000000000E+000,  0.10000000000E+001
  0.94955992310E+005,  0.99951482101E+008,  0.16500000000E+002,  0.00000000000E+000,  0.10000000000E+001
  0.94956007568E+005,  0.99991227065E+008,  0.16500000000E+002,  0.00000000000E+000,  0.10000000000E+001
  0.94956007717E+005,  0.99991615188E+008,  0.16500000000E+002,  0.00000000000E+000,  0.10000000000E+001
  0.94956007811E+005,  0.99991857765E+008,  0.16500000000E+002,  0.00000000000E+000,  0.10000000000E+001
  0.94956007818E+005,  0.99991857765E+008,  0.16500000000E+002,  0.00000000000E+000,  0.10000000000E+001
  0.94956007822E+005,  0.99991857765E+008,  0.16500000000E+002,  0.00000000000E+000,  0.10000000000E+001
  0.94956007825E+005,  0.99991857765E+008,  0.16500000000E+002,  0.00000000000E+000,  0.10000000000E+001
