"           TIME(S)","              PRES","              TEMP","             SAT_G","             SAT_L"
  0.94878500000E+005,  0.99772178280E+006,  0.16500000000E+002,  0.00000000000E+000,  0.10000000000E+001
  0.94880500000E+005,  0.99772178270E+006,  0.16500000000E+002,  0.00000000000E+000,  0.10000000000E+001
  0.94882500000E+005,  0.99780816847E+006,  0.16500000000E+002,  0.00000000000E+000,  0.10000000000E+001
  0.94884500000E+005,  0.99805388091E+006,  0.16500000000E+002,  0.00000000000E+000,  0.10000000000E+001
  0.94886500000E+005,  0.99841609780E+006,  0.16500000000E+002,  0.00000000000E+000,  0.10000000000E+001
  0.94888500000E+005,  0.99886731003E+006,  0.16500000000E+002,  0.00000000000E+000,  0.10000000000E+001
  0.94890500000E+005,  0.99938843400E+006,  0.16500000000E+002,  0.00000000000E+000,  0.10000000000E+001
  0.94892500000E+005,  0.99996561877E+006,  0.16500000000E+002,  0.00000000000E+000,  0.10000000000E+001
  0.94894500000E+005,  0.10005885060E+007,  0.16500000000E+002,  0.00000000000E+000,  0.10000000000E+001
  0.94896500000E+005,  0.10012491770E+007,  0.16500000000E+002,  0.00000000000E+000,  0.10000000000E+001
  0.94898500000E+005,  0.10019414724E+007,  0.16500000000E+002,  0.00000000000E+000,  0.10000000000E+001
  0.94900500000E+005,  0.10026605323E+007,  0.16500000000E+002,  0.00000000000E+000,  0.10000000000E+001
  0.94902500000E+005,  0.10034024732E+007,  0.16500000000E+002,  0.00000000000E+000,  0.10000000000E+001
  0.94904500000E+005,  0.10041641581E+007,  0.16500000000E+002,  0.00000000000E+000,  0.10000000000E+001
  0.94906500000E+005,  0.10049430258E+007,  0.16500000000E+002,  0.00000000000E+000,  0.10000000000E+001
  0.94908500000E+005,  0.10057369666E+007,  0.16500000000E+002,  0.00000000000E+000,  0.10000000000E+001
  0.94910500000E+005,  0.10065442262E+007,  0.16500000000E+002,  0.00000000000E+000,  0.10000000000E+001
  0.94912500000E+005,  0.10073633326E+007,  0.16500000000E+002,  0.00000000000E+000,  0.10000000000E+001
  0.94914500000E+005,  0.10081937964E+007,  0.16500000000E+002,  0.00000000000E+000,  0.10000000000E+001
  0.94916500000E+005,  0.10091219150E+007,  0.16500000000E+002,  0.00000000000E+000,  0.10000000000E+001
  0.94918500000E+005,  0.10100595931E+007,  0.16500000000E+002,  0.00000000000E+000,  0.10000000000E+001
  0.94920500000E+005,  0.10110032246E+007,  0.16500000000E+002,  0.00000000000E+000,  0.10000000000E+001
  0.94922500000E+005,  0.10119274504E+007,  0.16500000000E+002,  0.00000000000E+000,  0.10000000000E+001
  0.94924500000E+005,  0.10128954026E+007,  0.16500000000E+002,  0.00000000000E+000,  0.10000000000E+001
  0.94926500000E+005,  0.10139165347E+007,  0.16500000000E+002,  0.00000000000E+000,  0.10000000000E+001
  0.94928500000E+005,  0.10150741709E+007,  0.16500000000E+002,  0.00000000000E+000,  0.10000000000E+001
  0.94930500000E+005,  0.10164088893E+007,  0.16500000000E+002,  0.00000000000E+000,  0.10000000000E+001
  0.94932500000E+005,  0.10180929094E+007,  0.16500000000E+002,  0.00000000000E+000,  0.10000000000E+001
  0.94934500000E+005,  0.10202000856E+007,  0.16500000000E+002,  0.00000000000E+000,  0.10000000000E+001
  0.94936500000E+005,  0.10226279302E+007,  0.16500000000E+002,  0.00000000000E+000,  0.10000000000E+001
  0.94938500000E+005,  0.10253053431E+007,  0.16500000000E+002,  0.00000000000E+000,  0.10000000000E+001
  0.94940500000E+005,  0.10281818855E+007,  0.16500000000E+002,  0.00000000000E+000,  0.10000000000E+001
  0.94942500000E+005,  0.10312203302E+007,  0.16500000000E+002,  0.00000000000E+000,  0.10000000000E+001
  0.94944500000E+005,  0.10343924493E+007,  0.16500000000E+002,  0.00000000000E+000,  0.10000000000E+001
  0.94946500000E+005,  0.10377631976E+007,  0.16500000000E+002,  0.00000000000E+000,  0.10000000000E+001
  0.94948500000E+005,  0.10413891189E+007,  0.16500000000E+002,  0.00000000000E+000,  0.10000000000E+001
  0.94950500000E+005,  0.10451520893E+007,  0.16500000000E+002,  0.00000000000E+000,  0.10000000000E+001
  0.94952500000E+005,  0.10490322973E+007,  0.16500000000E+002,  0.00000000000E+000,  0.10000000000E+001
  0.94954500000E+005,  0.10530165180E+007,  0.16500000000E+002,  0.00000000000E+000,  0.10000000000E+001
  0.94956500000E+005,  0.10570509741E+007,  0.16500000000E+002,  0.00000000000E+000,  0.10000000000E+001
  0.94958500000E+005,  0.10611328541E+007,  0.16500000000E+002,  0.00000000000E+000,  0.10000000000E+001
  0.94960500000E+005,  0.10652592808E+007,  0.16500000000E+002,  0.00000000000E+000,  0.10000000000E+001
  0.94962500000E+005,  0.10694269122E+007,  0.16500000000E+002,  0.00000000000E+000,  0.10000000000E+001
  0.94964500000E+005,  0.10736324439E+007,  0.16500000000E+002,  0.00000000000E+000,  0.10000000000E+001
  0.94966500000E+005,  0.10778727836E+007,  0.16500000000E+002,  0.00000000000E+000,  0.10000000000E+001
  0.94968500000E+005,  0.10821451031E+007,  0.16500000000E+002,  0.00000000000E+000,  0.10000000000E+001
  0.94970500000E+005,  0.10864468386E+007,  0.16500000000E+002,  0.00000000000E+000,  0.10000000000E+001
  0.94972500000E+005,  0.10907756762E+007,  0.16500000000E+002,  0.00000000000E+000,  0.10000000000E+001
  0.94974500000E+005,  0.10951295278E+007,  0.16500000000E+002,  0.00000000000E+000,  0.10000000000E+001
  0.94976500000E+005,  0.10995065067E+007,  0.16500000000E+002,  0.00000000000E+000,  0.10000000000E+001
  0.94978500000E+005,  0.11039049051E+007,  0.16500000000E+002,  0.00000000000E+000,  0.10000000000E+001
  0.94980500000E+005,  0.11083231714E+007,  0.16500000000E+002,  0.00000000000E+000,  0.10000000000E+001
  0.94982500000E+005,  0.11127598935E+007,  0.16500000000E+002,  0.00000000000E+000,  0.10000000000E+001
  0.94984500000E+005,  0.11172137797E+007,  0.16500000000E+002,  0.00000000000E+000,  0.10000000000E+001
  0.94986500000E+005,  0.11216836475E+007,  0.16500000000E+002,  0.00000000000E+000,  0.10000000000E+001
  0.94988500000E+005,  0.11261684099E+007,  0.16500000000E+002,  0.00000000000E+000,  0.10000000000E+001
  0.94990500000E+005,  0.11306670659E+007,  0.16500000000E+002,  0.00000000000E+000,  0.10000000000E+001
  0.94992500000E+005,  0.11351786890E+007,  0.16500000000E+002,  0.00000000000E+000,  0.10000000000E+001
  0.94994500000E+005,  0.11397352662E+007,  0.16500000000E+002,  0.00000000000E+000,  0.10000000000E+001
  0.94996500000E+005,  0.11443251751E+007,  0.16500000000E+002,  0.00000000000E+000,  0.10000000000E+001
  0.94998500000E+005,  0.11489256349E+007,  0.16500000000E+002,  0.00000000000E+000,  0.10000000000E+001
  0.95000500000E+005,  0.11535370129E+007,  0.16500000000E+002,  0.00000000000E+000,  0.10000000000E+001
  0.95002500000E+005,  0.11581589614E+007,  0.16500000000E+002,  0.00000000000E+000,  0.10000000000E+001
  0.95004500000E+005,  0.11627909137E+007,  0.16500000000E+002,  0.00000000000E+000,  0.10000000000E+001
  0.95006500000E+005,  0.11674322423E+007,  0.16500000000E+002,  0.00000000000E+000,  0.10000000000E+001
  0.95008500000E+005,  0.11720823183E+007,  0.16500000000E+002,  0.00000000000E+000,  0.10000000000E+001
  0.95010500000E+005,  0.11767405351E+007,  0.16500000000E+002,  0.00000000000E+000,  0.10000000000E+001
  0.95012500000E+005,  0.11814063168E+007,  0.16500000000E+002,  0.00000000000E+000,  0.10000000000E+001
  0.95014500000E+005,  0.11860791198E+007,  0.16500000000E+002,  0.00000000000E+000,  0.10000000000E+001
  0.95016500000E+005,  0.11907584336E+007,  0.16500000000E+002,  0.00000000000E+000,  0.10000000000E+001
  0.95018500000E+005,  0.11954437776E+007,  0.16500000000E+002,  0.00000000000E+000,  0.10000000000E+001
  0.95020500000E+005,  0.12001346999E+007,  0.16500000000E+002,  0.00000000000E+000,  0.10000000000E+001
  0.95022500000E+005,  0.12048469243E+007,  0.16500000000E+002,  0.00000000000E+000,  0.10000000000E+001
  0.95024500000E+005,  0.12095575135E+007,  0.16500000000E+002,  0.00000000000E+000,  0.10000000000E+001
  0.95026500000E+005,  0.12142554584E+007,  0.16500000000E+002,  0.00000000000E+000,  0.10000000000E+001
  0.95028500000E+005,  0.12189452823E+007,  0.16500000000E+002,  0.00000000000E+000,  0.10000000000E+001
  0.95030500000E+005,  0.12236296809E+007,  0.16500000000E+002,  0.00000000000E+000,  0.10000000000E+001
  0.95032500000E+005,  0.12283103894E+007,  0.16500000000E+002,  0.00000000000E+000,  0.10000000000E+001
  0.95034500000E+005,  0.12329885684E+007,  0.16500000000E+002,  0.00000000000E+000,  0.10000000000E+001
  0.95036500000E+005,  0.12376650080E+007,  0.16500000000E+002,  0.00000000000E+000,  0.10000000000E+001
  0.95038500000E+005,  0.12423402475E+007,  0.16500000000E+002,  0.00000000000E+000,  0.10000000000E+001
  0.95040500000E+005,  0.12470146510E+007,  0.16500000000E+002,  0.00000000000E+000,  0.10000000000E+001
  0.95042500000E+005,  0.12516884575E+007,  0.16500000000E+002,  0.00000000000E+000,  0.10000000000E+001
  0.95044500000E+005,  0.12563618144E+007,  0.16500000000E+002,  0.00000000000E+000,  0.10000000000E+001
  0.95046500000E+005,  0.12610348025E+007,  0.16500000000E+002,  0.00000000000E+000,  0.10000000000E+001
  0.95048500000E+005,  0.12657074530E+007,  0.16500000000E+002,  0.00000000000E+000,  0.10000000000E+001
  0.95050500000E+005,  0.12703797602E+007,  0.16500000000E+002,  0.00000000000E+000,  0.10000000000E+001
  0.95052500000E+005,  0.12750516912E+007,  0.16500000000E+002,  0.00000000000E+000,  0.10000000000E+001
  0.95054500000E+005,  0.12797231923E+007,  0.16500000000E+002,  0.00000000000E+000,  0.10000000000E+001
  0.95056500000E+005,  0.12843941954E+007,  0.16500000000E+002,  0.00000000000E+000,  0.10000000000E+001
  0.95058500000E+005,  0.12890646210E+007,  0.16500000000E+002,  0.00000000000E+000,  0.10000000000E+001
  0.95060500000E+005,  0.12937343820E+007,  0.16500000000E+002,  0.00000000000E+000,  0.10000000000E+001
  0.95062500000E+005,  0.12984033857E+007,  0.16500000000E+002,  0.00000000000E+000,  0.10000000000E+001
  0.95064500000E+005,  0.13030715355E+007,  0.16500000000E+002,  0.00000000000E+000,  0.10000000000E+001
  0.95066500000E+005,  0.13077387328E+007,  0.16500000000E+002,  0.00000000000E+000,  0.10000000000E+001
  0.95068500000E+005,  0.13124048777E+007,  0.16500000000E+002,  0.00000000000E+000,  0.10000000000E+001
  0.95070500000E+005,  0.13170698699E+007,  0.16500000000E+002,  0.00000000000E+000,  0.10000000000E+001
  0.95072500000E+005,  0.13217336095E+007,  0.16500000000E+002,  0.00000000000E+000,  0.10000000000E+001
  0.95074500000E+005,  0.13263959971E+007,  0.16500000000E+002,  0.00000000000E+000,  0.10000000000E+001
  0.95076500000E+005,  0.13310569347E+007,  0.16500000000E+002,  0.00000000000E+000,  0.10000000000E+001
  0.95078500000E+005,  0.13357163256E+007,  0.16500000000E+002,  0.00000000000E+000,  0.10000000000E+001
  0.95080500000E+005,  0.13403740746E+007,  0.16500000000E+002,  0.00000000000E+000,  0.10000000000E+001
  0.95082500000E+005,  0.13450300886E+007,  0.16500000000E+002,  0.00000000000E+000,  0.10000000000E+001
  0.95084500000E+005,  0.13496842762E+007,  0.16500000000E+002,  0.00000000000E+000,  0.10000000000E+001
  0.95086500000E+005,  0.13543365480E+007,  0.16500000000E+002,  0.00000000000E+000,  0.10000000000E+001
  0.95088500000E+005,  0.13589868166E+007,  0.16500000000E+002,  0.00000000000E+000,  0.10000000000E+001
  0.95090500000E+005,  0.13636349968E+007,  0.16500000000E+002,  0.00000000000E+000,  0.10000000000E+001
  0.95092500000E+005,  0.13682810055E+007,  0.16500000000E+002,  0.00000000000E+000,  0.10000000000E+001
  0.95094500000E+005,  0.13729247613E+007,  0.16500000000E+002,  0.00000000000E+000,  0.10000000000E+001
  0.95096500000E+005,  0.13775661853E+007,  0.16500000000E+002,  0.00000000000E+000,  0.10000000000E+001
  0.95098500000E+005,  0.13822052004E+007,  0.16500000000E+002,  0.00000000000E+000,  0.10000000000E+001
  0.95100500000E+005,  0.13868417315E+007,  0.16500000000E+002,  0.00000000000E+000,  0.10000000000E+001
  0.95102500000E+005,  0.13914757056E+007,  0.16500000000E+002,  0.00000000000E+000,  0.10000000000E+001
  0.95104500000E+005,  0.13961070515E+007,  0.16500000000E+002,  0.00000000000E+000,  0.10000000000E+001
  0.95106500000E+005,  0.14007357000E+007,  0.16500000000E+002,  0.00000000000E+000,  0.10000000000E+001
  0.95108500000E+005,  0.14053615836E+007,  0.16500000000E+002,  0.00000000000E+000,  0.10000000000E+001
  0.95110500000E+005,  0.14099846368E+007,  0.16500000000E+002,  0.00000000000E+000,  0.10000000000E+001
  0.95112500000E+005,  0.14146047959E+007,  0.16500000000E+002,  0.00000000000E+000,  0.10000000000E+001
  0.95114500000E+005,  0.14192219987E+007,  0.16500000000E+002,  0.00000000000E+000,  0.10000000000E+001
  0.95116500000E+005,  0.14238361849E+007,  0.16500000000E+002,  0.00000000000E+000,  0.10000000000E+001
  0.95118500000E+005,  0.14284472958E+007,  0.16500000000E+002,  0.00000000000E+000,  0.10000000000E+001
  0.95120500000E+005,  0.14330552742E+007,  0.16500000000E+002,  0.00000000000E+000,  0.10000000000E+001
  0.95122500000E+005,  0.14376600645E+007,  0.16500000000E+002,  0.00000000000E+000,  0.10000000000E+001
  0.95124500000E+005,  0.14422616127E+007,  0.16500000000E+002,  0.00000000000E+000,  0.10000000000E+001
  0.95126500000E+005,  0.14468598662E+007,  0.16500000000E+002,  0.00000000000E+000,  0.10000000000E+001
  0.95128500000E+005,  0.14514547740E+007,  0.16500000000E+002,  0.00000000000E+000,  0.10000000000E+001
  0.95130500000E+005,  0.14560462861E+007,  0.16500000000E+002,  0.00000000000E+000,  0.10000000000E+001
  0.95132500000E+005,  0.14606343544E+007,  0.16500000000E+002,  0.00000000000E+000,  0.10000000000E+001
  0.95134500000E+005,  0.14652189317E+007,  0.16500000000E+002,  0.00000000000E+000,  0.10000000000E+001
  0.95136500000E+005,  0.14697999723E+007,  0.16500000000E+002,  0.00000000000E+000,  0.10000000000E+001
  0.95138500000E+005,  0.14743774318E+007,  0.16500000000E+002,  0.00000000000E+000,  0.10000000000E+001
  0.95140500000E+005,  0.14789512667E+007,  0.16500000000E+002,  0.00000000000E+000,  0.10000000000E+001
  0.95142500000E+005,  0.14835214350E+007,  0.16500000000E+002,  0.00000000000E+000,  0.10000000000E+001
  0.95144500000E+005,  0.14880878959E+007,  0.16500000000E+002,  0.00000000000E+000,  0.10000000000E+001
  0.95146500000E+005,  0.14926506094E+007,  0.16500000000E+002,  0.00000000000E+000,  0.10000000000E+001
  0.95148500000E+005,  0.14972095370E+007,  0.16500000000E+002,  0.00000000000E+000,  0.10000000000E+001
  0.95150500000E+005,  0.15017646408E+007,  0.16500000000E+002,  0.00000000000E+000,  0.10000000000E+001
  0.95152500000E+005,  0.15063158844E+007,  0.16500000000E+002,  0.00000000000E+000,  0.10000000000E+001
  0.95154500000E+005,  0.15108632321E+007,  0.16500000000E+002,  0.00000000000E+000,  0.10000000000E+001
  0.95156500000E+005,  0.15154066493E+007,  0.16500000000E+002,  0.00000000000E+000,  0.10000000000E+001
  0.95158500000E+005,  0.15199461023E+007,  0.16500000000E+002,  0.00000000000E+000,  0.10000000000E+001
  0.95160500000E+005,  0.15244815584E+007,  0.16500000000E+002,  0.00000000000E+000,  0.10000000000E+001
  0.95162500000E+005,  0.15290129859E+007,  0.16500000000E+002,  0.00000000000E+000,  0.10000000000E+001
  0.95164500000E+005,  0.15335403536E+007,  0.16500000000E+002,  0.00000000000E+000,  0.10000000000E+001
  0.95166500000E+005,  0.15380636317E+007,  0.16500000000E+002,  0.00000000000E+000,  0.10000000000E+001
  0.95168500000E+005,  0.15425827908E+007,  0.16500000000E+002,  0.00000000000E+000,  0.10000000000E+001
  0.95170500000E+005,  0.15470978024E+007,  0.16500000000E+002,  0.00000000000E+000,  0.10000000000E+001
  0.95172500000E+005,  0.15516086391E+007,  0.16500000000E+002,  0.00000000000E+000,  0.10000000000E+001
  0.95174500000E+005,  0.15561152738E+007,  0.16500000000E+002,  0.00000000000E+000,  0.10000000000E+001
  0.95176500000E+005,  0.15606176806E+007,  0.16500000000E+002,  0.00000000000E+000,  0.10000000000E+001
  0.95178500000E+005,  0.15651158340E+007,  0.16500000000E+002,  0.00000000000E+000,  0.10000000000E+001
  0.95180500000E+005,  0.15696097095E+007,  0.16500000000E+002,  0.00000000000E+000,  0.10000000000E+001
  0.95182500000E+005,  0.15740992830E+007,  0.16500000000E+002,  0.00000000000E+000,  0.10000000000E+001
  0.95184500000E+005,  0.15785845313E+007,  0.16500000000E+002,  0.00000000000E+000,  0.10000000000E+001
  0.95186500000E+005,  0.15830654319E+007,  0.16500000000E+002,  0.00000000000E+000,  0.10000000000E+001
  0.95188500000E+005,  0.15875419627E+007,  0.16500000000E+002,  0.00000000000E+000,  0.10000000000E+001
  0.95190500000E+005,  0.15920141024E+007,  0.16500000000E+002,  0.00000000000E+000,  0.10000000000E+001
  0.95192500000E+005,  0.15964818305E+007,  0.16500000000E+002,  0.00000000000E+000,  0.10000000000E+001
  0.95194500000E+005,  0.16009451266E+007,  0.16500000000E+002,  0.00000000000E+000,  0.10000000000E+001
  0.95196500000E+005,  0.16054039715E+007,  0.16500000000E+002,  0.00000000000E+000,  0.10000000000E+001
  0.95198500000E+005,  0.16098583460E+007,  0.16500000000E+002,  0.00000000000E+000,  0.10000000000E+001
  0.95200500000E+005,  0.16143082319E+007,  0.16500000000E+002,  0.00000000000E+000,  0.10000000000E+001
  0.95202500000E+005,  0.16187536114E+007,  0.16500000000E+002,  0.00000000000E+000,  0.10000000000E+001
  0.95204500000E+005,  0.16231944670E+007,  0.16500000000E+002,  0.00000000000E+000,  0.10000000000E+001
  0.95206500000E+005,  0.16276307821E+007,  0.16500000000E+002,  0.00000000000E+000,  0.10000000000E+001
  0.95208500000E+005,  0.16320625405E+007,  0.16500000000E+002,  0.00000000000E+000,  0.10000000000E+001
  0.95210500000E+005,  0.16364897262E+007,  0.16500000000E+002,  0.00000000000E+000,  0.10000000000E+001
  0.95212500000E+005,  0.16409123241E+007,  0.16500000000E+002,  0.00000000000E+000,  0.10000000000E+001
  0.95214500000E+005,  0.16453303193E+007,  0.16500000000E+002,  0.00000000000E+000,  0.10000000000E+001
  0.95216500000E+005,  0.16497436975E+007,  0.16500000000E+002,  0.00000000000E+000,  0.10000000000E+001
  0.95218500000E+005,  0.16541524447E+007,  0.16500000000E+002,  0.00000000000E+000,  0.10000000000E+001
  0.95220500000E+005,  0.16585565477E+007,  0.16500000000E+002,  0.00000000000E+000,  0.10000000000E+001
  0.95222500000E+005,  0.16629559932E+007,  0.16500000000E+002,  0.00000000000E+000,  0.10000000000E+001
  0.95224500000E+005,  0.16673507687E+007,  0.16500000000E+002,  0.00000000000E+000,  0.10000000000E+001
  0.95226500000E+005,  0.16717408621E+007,  0.16500000000E+002,  0.00000000000E+000,  0.10000000000E+001
  0.95228500000E+005,  0.16761262614E+007,  0.16500000000E+002,  0.00000000000E+000,  0.10000000000E+001
  0.95230500000E+005,  0.16805069555E+007,  0.16500000000E+002,  0.00000000000E+000,  0.10000000000E+001
  0.95232500000E+005,  0.16848829331E+007,  0.16500000000E+002,  0.00000000000E+000,  0.10000000000E+001
  0.95234500000E+005,  0.16892541837E+007,  0.16500000000E+002,  0.00000000000E+000,  0.10000000000E+001
  0.95236500000E+005,  0.16936206971E+007,  0.16500000000E+002,  0.00000000000E+000,  0.10000000000E+001
  0.95238500000E+005,  0.16979824632E+007,  0.16500000000E+002,  0.00000000000E+000,  0.10000000000E+001
  0.95240500000E+005,  0.17023394727E+007,  0.16500000000E+002,  0.00000000000E+000,  0.10000000000E+001
  0.95242500000E+005,  0.17066917161E+007,  0.16500000000E+002,  0.00000000000E+000,  0.10000000000E+001
  0.95244500000E+005,  0.17110391848E+007,  0.16500000000E+002,  0.00000000000E+000,  0.10000000000E+001
  0.95246500000E+005,  0.17153818700E+007,  0.16500000000E+002,  0.00000000000E+000,  0.10000000000E+001
  0.95248500000E+005,  0.17197197636E+007,  0.16500000000E+002,  0.00000000000E+000,  0.10000000000E+001
  0.95250500000E+005,  0.17240528577E+007,  0.16500000000E+002,  0.00000000000E+000,  0.10000000000E+001
  0.95252500000E+005,  0.17283811447E+007,  0.16500000000E+002,  0.00000000000E+000,  0.10000000000E+001
  0.95254500000E+005,  0.17327046172E+007,  0.16500000000E+002,  0.00000000000E+000,  0.10000000000E+001
