"           TIME(S)","              PRES","              TEMP","             SAT_G","             SAT_L"
  0.94878500000E+005,  0.99772178282E+006,  0.16500000000E+002,  0.00000000000E+000,  0.10000000000E+001
  0.94880500000E+005,  0.99772178276E+006,  0.16500000000E+002,  0.00000000000E+000,  0.10000000000E+001
  0.94882500000E+005,  0.99772180840E+006,  0.16500000000E+002,  0.00000000000E+000,  0.10000000000E+001
  0.94884500000E+005,  0.99772188866E+006,  0.16500000000E+002,  0.00000000000E+000,  0.10000000000E+001
  0.94886500000E+005,  0.99772202343E+006,  0.16500000000E+002,  0.00000000000E+000,  0.10000000000E+001
  0.94888500000E+005,  0.99772221261E+006,  0.16500000000E+002,  0.00000000000E+000,  0.10000000000E+001
  0.94890500000E+005,  0.99772245603E+006,  0.16500000000E+002,  0.00000000000E+000,  0.10000000000E+001
  0.94892500000E+005,  0.99772275354E+006,  0.16500000000E+002,  0.00000000000E+000,  0.10000000000E+001
  0.94894500000E+005,  0.99772310502E+006,  0.16500000000E+002,  0.00000000000E+000,  0.10000000000E+001
  0.94896500000E+005,  0.99772351033E+006,  0.16500000000E+002,  0.00000000000E+000,  0.10000000000E+001
  0.94898500000E+005,  0.99772396932E+006,  0.16500000000E+002,  0.00000000000E+000,  0.10000000000E+001
  0.94900500000E+005,  0.99772448187E+006,  0.16500000000E+002,  0.00000000000E+000,  0.10000000000E+001
  0.94902500000E+005,  0.99772504783E+006,  0.16500000000E+002,  0.00000000000E+000,  0.10000000000E+001
  0.94904500000E+005,  0.99772566708E+006,  0.16500000000E+002,  0.00000000000E+000,  0.10000000000E+001
  0.94906500000E+005,  0.99772633948E+006,  0.16500000000E+002,  0.00000000000E+000,  0.10000000000E+001
  0.94908500000E+005,  0.99772706489E+006,  0.16500000000E+002,  0.00000000000E+000,  0.10000000000E+001
  0.94910500000E+005,  0.99772784323E+006,  0.16500000000E+002,  0.00000000000E+000,  0.10000000000E+001
  0.94912500000E+005,  0.99772867429E+006,  0.16500000000E+002,  0.00000000000E+000,  0.10000000000E+001
  0.94914500000E+005,  0.99772955817E+006,  0.16500000000E+002,  0.00000000000E+000,  0.10000000000E+001
  0.94916500000E+005,  0.99773052083E+006,  0.16500000000E+002,  0.00000000000E+000,  0.10000000000E+001
  0.94918500000E+005,  0.99773154349E+006,  0.16500000000E+002,  0.00000000000E+000,  0.10000000000E+001
  0.94920500000E+005,  0.99773262458E+006,  0.16500000000E+002,  0.00000000000E+000,  0.10000000000E+001
  0.94922500000E+005,  0.99773375614E+006,  0.16500000000E+002,  0.00000000000E+000,  0.10000000000E+001
  0.94924500000E+005,  0.99773495439E+006,  0.16500000000E+002,  0.00000000000E+000,  0.10000000000E+001
  0.94926500000E+005,  0.99773622539E+006,  0.16500000000E+002,  0.00000000000E+000,  0.10000000000E+001
  0.94928500000E+005,  0.99773759744E+006,  0.16500000000E+002,  0.00000000000E+000,  0.10000000000E+001
  0.94930500000E+005,  0.99773909290E+006,  0.16500000000E+002,  0.00000000000E+000,  0.10000000000E+001
  0.94932500000E+005,  0.99774077568E+006,  0.16500000000E+002,  0.00000000000E+000,  0.10000000000E+001
  0.94934500000E+005,  0.99774269391E+006,  0.16500000000E+002,  0.00000000000E+000,  0.10000000000E+001
  0.94936500000E+005,  0.99774484801E+006,  0.16500000000E+002,  0.00000000000E+000,  0.10000000000E+001
  0.94938500000E+005,  0.99774723721E+006,  0.16500000000E+002,  0.00000000000E+000,  0.10000000000E+001
  0.94940500000E+005,  0.99774986083E+006,  0.16500000000E+002,  0.00000000000E+000,  0.10000000000E+001
  0.94942500000E+005,  0.99775271820E+006,  0.16500000000E+002,  0.00000000000E+000,  0.10000000000E+001
  0.94944500000E+005,  0.99775580843E+006,  0.16500000000E+002,  0.00000000000E+000,  0.10000000000E+001
  0.94946500000E+005,  0.99775915673E+006,  0.16500000000E+002,  0.00000000000E+000,  0.10000000000E+001
  0.94948500000E+005,  0.99776279134E+006,  0.16500000000E+002,  0.00000000000E+000,  0.10000000000E+001
  0.94950500000E+005,  0.99776669338E+006,  0.16500000000E+002,  0.00000000000E+000,  0.10000000000E+001
  0.94952500000E+005,  0.99777086233E+006,  0.16500000000E+002,  0.00000000000E+000,  0.10000000000E+001
  0.94954500000E+005,  0.99777529879E+006,  0.16500000000E+002,  0.00000000000E+000,  0.10000000000E+001
  0.94956500000E+005,  0.99777999095E+006,  0.16500000000E+002,  0.00000000000E+000,  0.10000000000E+001
  0.94958500000E+005,  0.99778493747E+006,  0.16500000000E+002,  0.00000000000E+000,  0.10000000000E+001
  0.94960500000E+005,  0.99779013773E+006,  0.16500000000E+002,  0.00000000000E+000,  0.10000000000E+001
  0.94962500000E+005,  0.99779559099E+006,  0.16500000000E+002,  0.00000000000E+000,  0.10000000000E+001
  0.94964500000E+005,  0.99780129637E+006,  0.16500000000E+002,  0.00000000000E+000,  0.10000000000E+001
  0.94966500000E+005,  0.99780725328E+006,  0.16500000000E+002,  0.00000000000E+000,  0.10000000000E+001
  0.94968500000E+005,  0.99781346099E+006,  0.16500000000E+002,  0.00000000000E+000,  0.10000000000E+001
  0.94970500000E+005,  0.99781991877E+006,  0.16500000000E+002,  0.00000000000E+000,  0.10000000000E+001
  0.94972500000E+005,  0.99782662574E+006,  0.16500000000E+002,  0.00000000000E+000,  0.10000000000E+001
  0.94974500000E+005,  0.99783358133E+006,  0.16500000000E+002,  0.00000000000E+000,  0.10000000000E+001
  0.94976500000E+005,  0.99784078448E+006,  0.16500000000E+002,  0.00000000000E+000,  0.10000000000E+001
  0.94978500000E+005,  0.99784823498E+006,  0.16500000000E+002,  0.00000000000E+000,  0.10000000000E+001
  0.94980500000E+005,  0.99785593213E+006,  0.16500000000E+002,  0.00000000000E+000,  0.10000000000E+001
  0.94982500000E+005,  0.99786387467E+006,  0.16500000000E+002,  0.00000000000E+000,  0.10000000000E+001
  0.94984500000E+005,  0.99787206225E+006,  0.16500000000E+002,  0.00000000000E+000,  0.10000000000E+001
  0.94986500000E+005,  0.99788049456E+006,  0.16500000000E+002,  0.00000000000E+000,  0.10000000000E+001
  0.94988500000E+005,  0.99788916990E+006,  0.16500000000E+002,  0.00000000000E+000,  0.10000000000E+001
  0.94990500000E+005,  0.99789808818E+006,  0.16500000000E+002,  0.00000000000E+000,  0.10000000000E+001
  0.94992500000E+005,  0.99790724911E+006,  0.16500000000E+002,  0.00000000000E+000,  0.10000000000E+001
  0.94994500000E+005,  0.99791666049E+006,  0.16500000000E+002,  0.00000000000E+000,  0.10000000000E+001
  0.94996500000E+005,  0.99792632224E+006,  0.16500000000E+002,  0.00000000000E+000,  0.10000000000E+001
  0.94998500000E+005,  0.99793622744E+006,  0.16500000000E+002,  0.00000000000E+000,  0.10000000000E+001
  0.95000500000E+005,  0.99794637698E+006,  0.16500000000E+002,  0.00000000000E+000,  0.10000000000E+001
  0.95002500000E+005,  0.99795676925E+006,  0.16500000000E+002,  0.00000000000E+000,  0.10000000000E+001
  0.95004500000E+005,  0.99796740327E+006,  0.16500000000E+002,  0.00000000000E+000,  0.10000000000E+001
  0.95006500000E+005,  0.99797827911E+006,  0.16500000000E+002,  0.00000000000E+000,  0.10000000000E+001
  0.95008500000E+005,  0.99798939580E+006,  0.16500000000E+002,  0.00000000000E+000,  0.10000000000E+001
  0.95010500000E+005,  0.99800075136E+006,  0.16500000000E+002,  0.00000000000E+000,  0.10000000000E+001
  0.95012500000E+005,  0.99801234745E+006,  0.16500000000E+002,  0.00000000000E+000,  0.10000000000E+001
  0.95014500000E+005,  0.99802418207E+006,  0.16500000000E+002,  0.00000000000E+000,  0.10000000000E+001
  0.95016500000E+005,  0.99803625453E+006,  0.16500000000E+002,  0.00000000000E+000,  0.10000000000E+001
  0.95018500000E+005,  0.99804856441E+006,  0.16500000000E+002,  0.00000000000E+000,  0.10000000000E+001
  0.95020500000E+005,  0.99806111017E+006,  0.16500000000E+002,  0.00000000000E+000,  0.10000000000E+001
  0.95022500000E+005,  0.99807389724E+006,  0.16500000000E+002,  0.00000000000E+000,  0.10000000000E+001
  0.95024500000E+005,  0.99808691859E+006,  0.16500000000E+002,  0.00000000000E+000,  0.10000000000E+001
  0.95026500000E+005,  0.99810017071E+006,  0.16500000000E+002,  0.00000000000E+000,  0.10000000000E+001
  0.95028500000E+005,  0.99811365234E+006,  0.16500000000E+002,  0.00000000000E+000,  0.10000000000E+001
  0.95030500000E+005,  0.99812736282E+006,  0.16500000000E+002,  0.00000000000E+000,  0.10000000000E+001
  0.95032500000E+005,  0.99814130182E+006,  0.16500000000E+002,  0.00000000000E+000,  0.10000000000E+001
  0.95034500000E+005,  0.99815546803E+006,  0.16500000000E+002,  0.00000000000E+000,  0.10000000000E+001
  0.95036500000E+005,  0.99816986112E+006,  0.16500000000E+002,  0.00000000000E+000,  0.10000000000E+001
  0.95038500000E+005,  0.99818448113E+006,  0.16500000000E+002,  0.00000000000E+000,  0.10000000000E+001
  0.95040500000E+005,  0.99819932638E+006,  0.16500000000E+002,  0.00000000000E+000,  0.10000000000E+001
  0.95042500000E+005,  0.99821439693E+006,  0.16500000000E+002,  0.00000000000E+000,  0.10000000000E+001
  0.95044500000E+005,  0.99822969213E+006,  0.16500000000E+002,  0.00000000000E+000,  0.10000000000E+001
  0.95046500000E+005,  0.99824521136E+006,  0.16500000000E+002,  0.00000000000E+000,  0.10000000000E+001
  0.95048500000E+005,  0.99826095326E+006,  0.16500000000E+002,  0.00000000000E+000,  0.10000000000E+001
  0.95050500000E+005,  0.99827691754E+006,  0.16500000000E+002,  0.00000000000E+000,  0.10000000000E+001
  0.95052500000E+005,  0.99829310433E+006,  0.16500000000E+002,  0.00000000000E+000,  0.10000000000E+001
  0.95054500000E+005,  0.99830951112E+006,  0.16500000000E+002,  0.00000000000E+000,  0.10000000000E+001
  0.95056500000E+005,  0.99832613878E+006,  0.16500000000E+002,  0.00000000000E+000,  0.10000000000E+001
  0.95058500000E+005,  0.99834298669E+006,  0.16500000000E+002,  0.00000000000E+000,  0.10000000000E+001
  0.95060500000E+005,  0.99836005424E+006,  0.16500000000E+002,  0.00000000000E+000,  0.10000000000E+001
  0.95062500000E+005,  0.99837734122E+006,  0.16500000000E+002,  0.00000000000E+000,  0.10000000000E+001
  0.95064500000E+005,  0.99839484540E+006,  0.16500000000E+002,  0.00000000000E+000,  0.10000000000E+001
  0.95066500000E+005,  0.99841256655E+006,  0.16500000000E+002,  0.00000000000E+000,  0.10000000000E+001
  0.95068500000E+005,  0.99843050530E+006,  0.16500000000E+002,  0.00000000000E+000,  0.10000000000E+001
  0.95070500000E+005,  0.99844866020E+006,  0.16500000000E+002,  0.00000000000E+000,  0.10000000000E+001
  0.95072500000E+005,  0.99846703107E+006,  0.16500000000E+002,  0.00000000000E+000,  0.10000000000E+001
  0.95074500000E+005,  0.99848561774E+006,  0.16500000000E+002,  0.00000000000E+000,  0.10000000000E+001
  0.95076500000E+005,  0.99850441701E+006,  0.16500000000E+002,  0.00000000000E+000,  0.10000000000E+001
  0.95078500000E+005,  0.99852343044E+006,  0.16500000000E+002,  0.00000000000E+000,  0.10000000000E+001
  0.95080500000E+005,  0.99854265832E+006,  0.16500000000E+002,  0.00000000000E+000,  0.10000000000E+001
  0.95082500000E+005,  0.99856209783E+006,  0.16500000000E+002,  0.00000000000E+000,  0.10000000000E+001
  0.95084500000E+005,  0.99858174925E+006,  0.16500000000E+002,  0.00000000000E+000,  0.10000000000E+001
  0.95086500000E+005,  0.99860161154E+006,  0.16500000000E+002,  0.00000000000E+000,  0.10000000000E+001
  0.95088500000E+005,  0.99862168595E+006,  0.16500000000E+002,  0.00000000000E+000,  0.10000000000E+001
  0.95090500000E+005,  0.99864196862E+006,  0.16500000000E+002,  0.00000000000E+000,  0.10000000000E+001
  0.95092500000E+005,  0.99866246225E+006,  0.16500000000E+002,  0.00000000000E+000,  0.10000000000E+001
  0.95094500000E+005,  0.99868316484E+006,  0.16500000000E+002,  0.00000000000E+000,  0.10000000000E+001
  0.95096500000E+005,  0.99870407628E+006,  0.16500000000E+002,  0.00000000000E+000,  0.10000000000E+001
  0.95098500000E+005,  0.99872519453E+006,  0.16500000000E+002,  0.00000000000E+000,  0.10000000000E+001
  0.95100500000E+005,  0.99874652048E+006,  0.16500000000E+002,  0.00000000000E+000,  0.10000000000E+001
  0.95102500000E+005,  0.99876805305E+006,  0.16500000000E+002,  0.00000000000E+000,  0.10000000000E+001
  0.95104500000E+005,  0.99878979116E+006,  0.16500000000E+002,  0.00000000000E+000,  0.10000000000E+001
  0.95106500000E+005,  0.99881173625E+006,  0.16500000000E+002,  0.00000000000E+000,  0.10000000000E+001
  0.95108500000E+005,  0.99883388574E+006,  0.16500000000E+002,  0.00000000000E+000,  0.10000000000E+001
  0.95110500000E+005,  0.99885623954E+006,  0.16500000000E+002,  0.00000000000E+000,  0.10000000000E+001
  0.95112500000E+005,  0.99887879710E+006,  0.16500000000E+002,  0.00000000000E+000,  0.10000000000E+001
  0.95114500000E+005,  0.99890155731E+006,  0.16500000000E+002,  0.00000000000E+000,  0.10000000000E+001
  0.95116500000E+005,  0.99892452067E+006,  0.16500000000E+002,  0.00000000000E+000,  0.10000000000E+001
  0.95118500000E+005,  0.99894768555E+006,  0.16500000000E+002,  0.00000000000E+000,  0.10000000000E+001
  0.95120500000E+005,  0.99897105299E+006,  0.16500000000E+002,  0.00000000000E+000,  0.10000000000E+001
  0.95122500000E+005,  0.99899462082E+006,  0.16500000000E+002,  0.00000000000E+000,  0.10000000000E+001
  0.95124500000E+005,  0.99901839012E+006,  0.16500000000E+002,  0.00000000000E+000,  0.10000000000E+001
  0.95126500000E+005,  0.99904235647E+006,  0.16500000000E+002,  0.00000000000E+000,  0.10000000000E+001
  0.95128500000E+005,  0.99906652206E+006,  0.16500000000E+002,  0.00000000000E+000,  0.10000000000E+001
  0.95130500000E+005,  0.99909088861E+006,  0.16500000000E+002,  0.00000000000E+000,  0.10000000000E+001
  0.95132500000E+005,  0.99911545218E+006,  0.16500000000E+002,  0.00000000000E+000,  0.10000000000E+001
  0.95134500000E+005,  0.99914021277E+006,  0.16500000000E+002,  0.00000000000E+000,  0.10000000000E+001
  0.95136500000E+005,  0.99916517042E+006,  0.16500000000E+002,  0.00000000000E+000,  0.10000000000E+001
  0.95138500000E+005,  0.99919032574E+006,  0.16500000000E+002,  0.00000000000E+000,  0.10000000000E+001
  0.95140500000E+005,  0.99921567644E+006,  0.16500000000E+002,  0.00000000000E+000,  0.10000000000E+001
  0.95142500000E+005,  0.99924122257E+006,  0.16500000000E+002,  0.00000000000E+000,  0.10000000000E+001
  0.95144500000E+005,  0.99926696358E+006,  0.16500000000E+002,  0.00000000000E+000,  0.10000000000E+001
  0.95146500000E+005,  0.99929289833E+006,  0.16500000000E+002,  0.00000000000E+000,  0.10000000000E+001
  0.95148500000E+005,  0.99931902690E+006,  0.16500000000E+002,  0.00000000000E+000,  0.10000000000E+001
  0.95150500000E+005,  0.99934534874E+006,  0.16500000000E+002,  0.00000000000E+000,  0.10000000000E+001
  0.95152500000E+005,  0.99937186331E+006,  0.16500000000E+002,  0.00000000000E+000,  0.10000000000E+001
  0.95154500000E+005,  0.99939857134E+006,  0.16500000000E+002,  0.00000000000E+000,  0.10000000000E+001
  0.95156500000E+005,  0.99942546856E+006,  0.16500000000E+002,  0.00000000000E+000,  0.10000000000E+001
  0.95158500000E+005,  0.99945255630E+006,  0.16500000000E+002,  0.00000000000E+000,  0.10000000000E+001
  0.95160500000E+005,  0.99947983656E+006,  0.16500000000E+002,  0.00000000000E+000,  0.10000000000E+001
  0.95162500000E+005,  0.99950730693E+006,  0.16500000000E+002,  0.00000000000E+000,  0.10000000000E+001
  0.95164500000E+005,  0.99953496560E+006,  0.16500000000E+002,  0.00000000000E+000,  0.10000000000E+001
  0.95166500000E+005,  0.99956281590E+006,  0.16500000000E+002,  0.00000000000E+000,  0.10000000000E+001
  0.95168500000E+005,  0.99959085151E+006,  0.16500000000E+002,  0.00000000000E+000,  0.10000000000E+001
  0.95170500000E+005,  0.99961907580E+006,  0.16500000000E+002,  0.00000000000E+000,  0.10000000000E+001
  0.95172500000E+005,  0.99964748760E+006,  0.16500000000E+002,  0.00000000000E+000,  0.10000000000E+001
  0.95174500000E+005,  0.99967608706E+006,  0.16500000000E+002,  0.00000000000E+000,  0.10000000000E+001
  0.95176500000E+005,  0.99970487368E+006,  0.16500000000E+002,  0.00000000000E+000,  0.10000000000E+001
  0.95178500000E+005,  0.99973384426E+006,  0.16500000000E+002,  0.00000000000E+000,  0.10000000000E+001
  0.95180500000E+005,  0.99976300099E+006,  0.16500000000E+002,  0.00000000000E+000,  0.10000000000E+001
  0.95182500000E+005,  0.99979234336E+006,  0.16500000000E+002,  0.00000000000E+000,  0.10000000000E+001
  0.95184500000E+005,  0.99982187019E+006,  0.16500000000E+002,  0.00000000000E+000,  0.10000000000E+001
  0.95186500000E+005,  0.99985157755E+006,  0.16500000000E+002,  0.00000000000E+000,  0.10000000000E+001
  0.95188500000E+005,  0.99988146974E+006,  0.16500000000E+002,  0.00000000000E+000,  0.10000000000E+001
  0.95190500000E+005,  0.99991154627E+006,  0.16500000000E+002,  0.00000000000E+000,  0.10000000000E+001
  0.95192500000E+005,  0.99994180386E+006,  0.16500000000E+002,  0.00000000000E+000,  0.10000000000E+001
  0.95194500000E+005,  0.99997224271E+006,  0.16500000000E+002,  0.00000000000E+000,  0.10000000000E+001
  0.95196500000E+005,  0.10000028637E+007,  0.16500000000E+002,  0.00000000000E+000,  0.10000000000E+001
  0.95198500000E+005,  0.10000336650E+007,  0.16500000000E+002,  0.00000000000E+000,  0.10000000000E+001
  0.95200500000E+005,  0.10000646461E+007,  0.16500000000E+002,  0.00000000000E+000,  0.10000000000E+001
  0.95202500000E+005,  0.10000958071E+007,  0.16500000000E+002,  0.00000000000E+000,  0.10000000000E+001
  0.95204500000E+005,  0.10001271469E+007,  0.16500000000E+002,  0.00000000000E+000,  0.10000000000E+001
  0.95206500000E+005,  0.10001586650E+007,  0.16500000000E+002,  0.00000000000E+000,  0.10000000000E+001
  0.95208500000E+005,  0.10001903624E+007,  0.16500000000E+002,  0.00000000000E+000,  0.10000000000E+001
  0.95210500000E+005,  0.10002222378E+007,  0.16500000000E+002,  0.00000000000E+000,  0.10000000000E+001
  0.95212500000E+005,  0.10002542907E+007,  0.16500000000E+002,  0.00000000000E+000,  0.10000000000E+001
  0.95214500000E+005,  0.10002865208E+007,  0.16500000000E+002,  0.00000000000E+000,  0.10000000000E+001
  0.95216500000E+005,  0.10003189275E+007,  0.16500000000E+002,  0.00000000000E+000,  0.10000000000E+001
  0.95218500000E+005,  0.10003515080E+007,  0.16500000000E+002,  0.00000000000E+000,  0.10000000000E+001
  0.95220500000E+005,  0.10003842627E+007,  0.16500000000E+002,  0.00000000000E+000,  0.10000000000E+001
  0.95222500000E+005,  0.10004171941E+007,  0.16500000000E+002,  0.00000000000E+000,  0.10000000000E+001
  0.95224500000E+005,  0.10004503002E+007,  0.16500000000E+002,  0.00000000000E+000,  0.10000000000E+001
  0.95226500000E+005,  0.10004835797E+007,  0.16500000000E+002,  0.00000000000E+000,  0.10000000000E+001
  0.95228500000E+005,  0.10005170330E+007,  0.16500000000E+002,  0.00000000000E+000,  0.10000000000E+001
  0.95230500000E+005,  0.10005506581E+007,  0.16500000000E+002,  0.00000000000E+000,  0.10000000000E+001
  0.95232500000E+005,  0.10005844576E+007,  0.16500000000E+002,  0.00000000000E+000,  0.10000000000E+001
  0.95234500000E+005,  0.10006184271E+007,  0.16500000000E+002,  0.00000000000E+000,  0.10000000000E+001
  0.95236500000E+005,  0.10006525693E+007,  0.16500000000E+002,  0.00000000000E+000,  0.10000000000E+001
  0.95238500000E+005,  0.10006868829E+007,  0.16500000000E+002,  0.00000000000E+000,  0.10000000000E+001
  0.95240500000E+005,  0.10007213667E+007,  0.16500000000E+002,  0.00000000000E+000,  0.10000000000E+001
  0.95242500000E+005,  0.10007560202E+007,  0.16500000000E+002,  0.00000000000E+000,  0.10000000000E+001
  0.95244500000E+005,  0.10007908431E+007,  0.16500000000E+002,  0.00000000000E+000,  0.10000000000E+001
  0.95246500000E+005,  0.10008258371E+007,  0.16500000000E+002,  0.00000000000E+000,  0.10000000000E+001
  0.95248500000E+005,  0.10008609987E+007,  0.16500000000E+002,  0.00000000000E+000,  0.10000000000E+001
  0.95250500000E+005,  0.10008963298E+007,  0.16500000000E+002,  0.00000000000E+000,  0.10000000000E+001
  0.95252500000E+005,  0.10009318291E+007,  0.16500000000E+002,  0.00000000000E+000,  0.10000000000E+001
  0.95254500000E+005,  0.10009674955E+007,  0.16500000000E+002,  0.00000000000E+000,  0.10000000000E+001
