"           TIME(S)","              PRES","              TEMP","             SAT_G","             SAT_L"
  0.50000000000E+001,  0.24156999579E+006,  0.16500000000E+002,  0.00000000000E+000,  0.10000000000E+001
  0.30000000000E+002,  0.39480751246E+006,  0.16500000000E+002,  0.00000000000E+000,  0.10000000000E+001
  0.90000000000E+002,  0.49990467489E+006,  0.16500000000E+002,  0.00000000000E+000,  0.10000000000E+001
  0.15000000000E+003,  0.55004720780E+006,  0.16500000000E+002,  0.00000000000E+000,  0.10000000000E+001
  0.21000000000E+003,  0.58169003898E+006,  0.16500000000E+002,  0.00000000000E+000,  0.10000000000E+001
  0.27000000000E+003,  0.60486264729E+006,  0.16500000000E+002,  0.00000000000E+000,  0.10000000000E+001
  0.33000000000E+003,  0.62327580731E+006,  0.16500000000E+002,  0.00000000000E+000,  0.10000000000E+001
  0.39000000000E+003,  0.63862537592E+006,  0.16500000000E+002,  0.00000000000E+000,  0.10000000000E+001
  0.45000000000E+003,  0.65181828916E+006,  0.16500000000E+002,  0.00000000000E+000,  0.10000000000E+001
  0.51000000000E+003,  0.66339945508E+006,  0.16500000000E+002,  0.00000000000E+000,  0.10000000000E+001
  0.57000000000E+003,  0.67372512342E+006,  0.16500000000E+002,  0.00000000000E+000,  0.10000000000E+001
  0.63000000000E+003,  0.68304291030E+006,  0.16500000000E+002,  0.00000000000E+000,  0.10000000000E+001
  0.69000000000E+003,  0.69153292083E+006,  0.16500000000E+002,  0.00000000000E+000,  0.10000000000E+001
  0.75000000000E+003,  0.69933046763E+006,  0.16500000000E+002,  0.00000000000E+000,  0.10000000000E+001
  0.81000000000E+003,  0.70653998701E+006,  0.16500000000E+002,  0.00000000000E+000,  0.10000000000E+001
  0.87000000000E+003,  0.71324382290E+006,  0.16500000000E+002,  0.00000000000E+000,  0.10000000000E+001
  0.93000000000E+003,  0.71950806490E+006,  0.16500000000E+002,  0.00000000000E+000,  0.10000000000E+001
  0.99000000000E+003,  0.72538657293E+006,  0.16500000000E+002,  0.00000000000E+000,  0.10000000000E+001
  0.10500000000E+004,  0.73092382465E+006,  0.16500000000E+002,  0.00000000000E+000,  0.10000000000E+001
  0.11100000000E+004,  0.73615698306E+006,  0.16500000000E+002,  0.00000000000E+000,  0.10000000000E+001
  0.11700000000E+004,  0.74111742247E+006,  0.16500000000E+002,  0.00000000000E+000,  0.10000000000E+001
  0.12300000000E+004,  0.74583187862E+006,  0.16500000000E+002,  0.00000000000E+000,  0.10000000000E+001
  0.12900000000E+004,  0.75032332621E+006,  0.16500000000E+002,  0.00000000000E+000,  0.10000000000E+001
  0.13500000000E+004,  0.75461165827E+006,  0.16500000000E+002,  0.00000000000E+000,  0.10000000000E+001
  0.14100000000E+004,  0.75871421758E+006,  0.16500000000E+002,  0.00000000000E+000,  0.10000000000E+001
  0.14700000000E+004,  0.76264621912E+006,  0.16500000000E+002,  0.00000000000E+000,  0.10000000000E+001
  0.15300000000E+004,  0.76642108645E+006,  0.16500000000E+002,  0.00000000000E+000,  0.10000000000E+001
  0.15900000000E+004,  0.77005072509E+006,  0.16500000000E+002,  0.00000000000E+000,  0.10000000000E+001
  0.16500000000E+004,  0.77354574362E+006,  0.16500000000E+002,  0.00000000000E+000,  0.10000000000E+001
  0.17100000000E+004,  0.77691563719E+006,  0.16500000000E+002,  0.00000000000E+000,  0.10000000000E+001
  0.17700000000E+004,  0.78016893882E+006,  0.16500000000E+002,  0.00000000000E+000,  0.10000000000E+001
  0.18300000000E+004,  0.78331334484E+006,  0.16500000000E+002,  0.00000000000E+000,  0.10000000000E+001
  0.18900000000E+004,  0.78635582099E+006,  0.16500000000E+002,  0.00000000000E+000,  0.10000000000E+001
  0.19500000000E+004,  0.78930269258E+006,  0.16500000000E+002,  0.00000000000E+000,  0.10000000000E+001
  0.20100000000E+004,  0.79215971991E+006,  0.16500000000E+002,  0.00000000000E+000,  0.10000000000E+001
  0.20700000000E+004,  0.79493216366E+006,  0.16500000000E+002,  0.00000000000E+000,  0.10000000000E+001
  0.21300000000E+004,  0.79762484062E+006,  0.16500000000E+002,  0.00000000000E+000,  0.10000000000E+001
  0.21900000000E+004,  0.80024217211E+006,  0.16500000000E+002,  0.00000000000E+000,  0.10000000000E+001
  0.22500000000E+004,  0.80278822576E+006,  0.16500000000E+002,  0.00000000000E+000,  0.10000000000E+001
  0.23100000000E+004,  0.80526675179E+006,  0.16500000000E+002,  0.00000000000E+000,  0.10000000000E+001
  0.23700000000E+004,  0.80768121517E+006,  0.16500000000E+002,  0.00000000000E+000,  0.10000000000E+001
  0.24300000000E+004,  0.81003482343E+006,  0.16500000000E+002,  0.00000000000E+000,  0.10000000000E+001
  0.24900000000E+004,  0.81233055128E+006,  0.16500000000E+002,  0.00000000000E+000,  0.10000000000E+001
  0.25500000000E+004,  0.81457116225E+006,  0.16500000000E+002,  0.00000000000E+000,  0.10000000000E+001
  0.26100000000E+004,  0.81675922833E+006,  0.16500000000E+002,  0.00000000000E+000,  0.10000000000E+001
  0.26700000000E+004,  0.81889714677E+006,  0.16500000000E+002,  0.00000000000E+000,  0.10000000000E+001
  0.27300000000E+004,  0.82098715547E+006,  0.16500000000E+002,  0.00000000000E+000,  0.10000000000E+001
  0.27900000000E+004,  0.82303134682E+006,  0.16500000000E+002,  0.00000000000E+000,  0.10000000000E+001
  0.28500000000E+004,  0.82503167965E+006,  0.16500000000E+002,  0.00000000000E+000,  0.10000000000E+001
  0.29100000000E+004,  0.82698999044E+006,  0.16500000000E+002,  0.00000000000E+000,  0.10000000000E+001
  0.29700000000E+004,  0.82890800306E+006,  0.16500000000E+002,  0.00000000000E+000,  0.10000000000E+001
  0.30300000000E+004,  0.83078733775E+006,  0.16500000000E+002,  0.00000000000E+000,  0.10000000000E+001
  0.30900000000E+004,  0.83262951920E+006,  0.16500000000E+002,  0.00000000000E+000,  0.10000000000E+001
  0.31500000000E+004,  0.83443598398E+006,  0.16500000000E+002,  0.00000000000E+000,  0.10000000000E+001
  0.32100000000E+004,  0.83620808680E+006,  0.16500000000E+002,  0.00000000000E+000,  0.10000000000E+001
  0.32700000000E+004,  0.83794710684E+006,  0.16500000000E+002,  0.00000000000E+000,  0.10000000000E+001
  0.33300000000E+004,  0.83965425328E+006,  0.16500000000E+002,  0.00000000000E+000,  0.10000000000E+001
  0.33900000000E+004,  0.84133067001E+006,  0.16500000000E+002,  0.00000000000E+000,  0.10000000000E+001
  0.34500000000E+004,  0.84297744060E+006,  0.16500000000E+002,  0.00000000000E+000,  0.10000000000E+001
  0.35100000000E+004,  0.84459559186E+006,  0.16500000000E+002,  0.00000000000E+000,  0.10000000000E+001
  0.35700000000E+004,  0.84618609833E+006,  0.16500000000E+002,  0.00000000000E+000,  0.10000000000E+001
  0.36300000000E+004,  0.84774988532E+006,  0.16500000000E+002,  0.00000000000E+000,  0.10000000000E+001
  0.36900000000E+004,  0.84928783260E+006,  0.16500000000E+002,  0.00000000000E+000,  0.10000000000E+001
  0.37500000000E+004,  0.85080077627E+006,  0.16500000000E+002,  0.00000000000E+000,  0.10000000000E+001
  0.38100000000E+004,  0.85228951426E+006,  0.16500000000E+002,  0.00000000000E+000,  0.10000000000E+001
  0.38700000000E+004,  0.85375480446E+006,  0.16500000000E+002,  0.00000000000E+000,  0.10000000000E+001
  0.39300000000E+004,  0.85519737086E+006,  0.16500000000E+002,  0.00000000000E+000,  0.10000000000E+001
  0.39900000000E+004,  0.85661790405E+006,  0.16500000000E+002,  0.00000000000E+000,  0.10000000000E+001
  0.40500000000E+004,  0.85801706351E+006,  0.16500000000E+002,  0.00000000000E+000,  0.10000000000E+001
  0.41100000000E+004,  0.85939547780E+006,  0.16500000000E+002,  0.00000000000E+000,  0.10000000000E+001
  0.41700000000E+004,  0.86075375392E+006,  0.16500000000E+002,  0.00000000000E+000,  0.10000000000E+001
  0.42300000000E+004,  0.86209246470E+006,  0.16500000000E+002,  0.00000000000E+000,  0.10000000000E+001
  0.42900000000E+004,  0.86341216306E+006,  0.16500000000E+002,  0.00000000000E+000,  0.10000000000E+001
  0.43500000000E+004,  0.86471337799E+006,  0.16500000000E+002,  0.00000000000E+000,  0.10000000000E+001
  0.44100000000E+004,  0.86599661663E+006,  0.16500000000E+002,  0.00000000000E+000,  0.10000000000E+001
  0.44700000000E+004,  0.86726236536E+006,  0.16500000000E+002,  0.00000000000E+000,  0.10000000000E+001
  0.45300000000E+004,  0.86851109105E+006,  0.16500000000E+002,  0.00000000000E+000,  0.10000000000E+001
  0.45900000000E+004,  0.86974324201E+006,  0.16500000000E+002,  0.00000000000E+000,  0.10000000000E+001
  0.46500000000E+004,  0.87095924897E+006,  0.16500000000E+002,  0.00000000000E+000,  0.10000000000E+001
  0.47100000000E+004,  0.87215952613E+006,  0.16500000000E+002,  0.00000000000E+000,  0.10000000000E+001
  0.47700000000E+004,  0.87334447172E+006,  0.16500000000E+002,  0.00000000000E+000,  0.10000000000E+001
  0.48300000000E+004,  0.87451446916E+006,  0.16500000000E+002,  0.00000000000E+000,  0.10000000000E+001
  0.48900000000E+004,  0.87566988751E+006,  0.16500000000E+002,  0.00000000000E+000,  0.10000000000E+001
  0.49500000000E+004,  0.87681108233E+006,  0.16500000000E+002,  0.00000000000E+000,  0.10000000000E+001
  0.50100000000E+004,  0.87793839626E+006,  0.16500000000E+002,  0.00000000000E+000,  0.10000000000E+001
  0.50700000000E+004,  0.87905215971E+006,  0.16500000000E+002,  0.00000000000E+000,  0.10000000000E+001
  0.51300000000E+004,  0.88015269133E+006,  0.16500000000E+002,  0.00000000000E+000,  0.10000000000E+001
  0.51900000000E+004,  0.88124029857E+006,  0.16500000000E+002,  0.00000000000E+000,  0.10000000000E+001
  0.52500000000E+004,  0.88231527877E+006,  0.16500000000E+002,  0.00000000000E+000,  0.10000000000E+001
  0.53100000000E+004,  0.88337791839E+006,  0.16500000000E+002,  0.00000000000E+000,  0.10000000000E+001
  0.53700000000E+004,  0.88442849458E+006,  0.16500000000E+002,  0.00000000000E+000,  0.10000000000E+001
  0.54300000000E+004,  0.88546727530E+006,  0.16500000000E+002,  0.00000000000E+000,  0.10000000000E+001
  0.54900000000E+004,  0.88649451955E+006,  0.16500000000E+002,  0.00000000000E+000,  0.10000000000E+001
  0.55500000000E+004,  0.88751047793E+006,  0.16500000000E+002,  0.00000000000E+000,  0.10000000000E+001
  0.56100000000E+004,  0.88851539299E+006,  0.16500000000E+002,  0.00000000000E+000,  0.10000000000E+001
  0.56700000000E+004,  0.88950949943E+006,  0.16500000000E+002,  0.00000000000E+000,  0.10000000000E+001
  0.57300000000E+004,  0.89049302471E+006,  0.16500000000E+002,  0.00000000000E+000,  0.10000000000E+001
  0.57900000000E+004,  0.89146618908E+006,  0.16500000000E+002,  0.00000000000E+000,  0.10000000000E+001
  0.58500000000E+004,  0.89242920597E+006,  0.16500000000E+002,  0.00000000000E+000,  0.10000000000E+001
  0.59100000000E+004,  0.89338228237E+006,  0.16500000000E+002,  0.00000000000E+000,  0.10000000000E+001
  0.59700000000E+004,  0.89432561890E+006,  0.16500000000E+002,  0.00000000000E+000,  0.10000000000E+001
  0.60300000000E+004,  0.89533680774E+006,  0.16500000000E+002,  0.00000000000E+000,  0.10000000000E+001
  0.60900000000E+004,  0.89635888311E+006,  0.16500000000E+002,  0.00000000000E+000,  0.10000000000E+001
  0.61500000000E+004,  0.89730444999E+006,  0.16500000000E+002,  0.00000000000E+000,  0.10000000000E+001
  0.62100000000E+004,  0.89822740362E+006,  0.16500000000E+002,  0.00000000000E+000,  0.10000000000E+001
  0.62700000000E+004,  0.89913646706E+006,  0.16500000000E+002,  0.00000000000E+000,  0.10000000000E+001
  0.63300000000E+004,  0.90003429530E+006,  0.16500000000E+002,  0.00000000000E+000,  0.10000000000E+001
  0.63900000000E+004,  0.90092205311E+006,  0.16500000000E+002,  0.00000000000E+000,  0.10000000000E+001
  0.64500000000E+004,  0.90180039677E+006,  0.16500000000E+002,  0.00000000000E+000,  0.10000000000E+001
  0.65100000000E+004,  0.90266976630E+006,  0.16500000000E+002,  0.00000000000E+000,  0.10000000000E+001
  0.65700000000E+004,  0.90353049358E+006,  0.16500000000E+002,  0.00000000000E+000,  0.10000000000E+001
  0.66300000000E+004,  0.90438284860E+006,  0.16500000000E+002,  0.00000000000E+000,  0.10000000000E+001
  0.66900000000E+004,  0.90522706261E+006,  0.16500000000E+002,  0.00000000000E+000,  0.10000000000E+001
  0.67500000000E+004,  0.90606334047E+006,  0.16500000000E+002,  0.00000000000E+000,  0.10000000000E+001
  0.68100000000E+004,  0.90689186785E+006,  0.16500000000E+002,  0.00000000000E+000,  0.10000000000E+001
  0.68700000000E+004,  0.90771281460E+006,  0.16500000000E+002,  0.00000000000E+000,  0.10000000000E+001
  0.69300000000E+004,  0.90852634417E+006,  0.16500000000E+002,  0.00000000000E+000,  0.10000000000E+001
  0.69900000000E+004,  0.90933260403E+006,  0.16500000000E+002,  0.00000000000E+000,  0.10000000000E+001
  0.70500000000E+004,  0.91013173755E+006,  0.16500000000E+002,  0.00000000000E+000,  0.10000000000E+001
  0.71100000000E+004,  0.91092388089E+006,  0.16500000000E+002,  0.00000000000E+000,  0.10000000000E+001
  0.71700000000E+004,  0.91170916433E+006,  0.16500000000E+002,  0.00000000000E+000,  0.10000000000E+001
  0.72300000000E+004,  0.91248771333E+006,  0.16500000000E+002,  0.00000000000E+000,  0.10000000000E+001
  0.72900000000E+004,  0.91325964765E+006,  0.16500000000E+002,  0.00000000000E+000,  0.10000000000E+001
  0.73500000000E+004,  0.91402508556E+006,  0.16500000000E+002,  0.00000000000E+000,  0.10000000000E+001
  0.74100000000E+004,  0.91478413809E+006,  0.16500000000E+002,  0.00000000000E+000,  0.10000000000E+001
  0.74700000000E+004,  0.91553691477E+006,  0.16500000000E+002,  0.00000000000E+000,  0.10000000000E+001
  0.75300000000E+004,  0.91628352135E+006,  0.16500000000E+002,  0.00000000000E+000,  0.10000000000E+001
  0.75900000000E+004,  0.91702406057E+006,  0.16500000000E+002,  0.00000000000E+000,  0.10000000000E+001
  0.76500000000E+004,  0.91775863217E+006,  0.16500000000E+002,  0.00000000000E+000,  0.10000000000E+001
  0.77100000000E+004,  0.91848732715E+006,  0.16500000000E+002,  0.00000000000E+000,  0.10000000000E+001
  0.77700000000E+004,  0.91921025613E+006,  0.16500000000E+002,  0.00000000000E+000,  0.10000000000E+001
  0.78300000000E+004,  0.91992749259E+006,  0.16500000000E+002,  0.00000000000E+000,  0.10000000000E+001
  0.78900000000E+004,  0.92063914276E+006,  0.16500000000E+002,  0.00000000000E+000,  0.10000000000E+001
  0.79500000000E+004,  0.92134527844E+006,  0.16500000000E+002,  0.00000000000E+000,  0.10000000000E+001
  0.80100000000E+004,  0.92204599849E+006,  0.16500000000E+002,  0.00000000000E+000,  0.10000000000E+001
  0.80700000000E+004,  0.92274137638E+006,  0.16500000000E+002,  0.00000000000E+000,  0.10000000000E+001
  0.81300000000E+004,  0.92343149346E+006,  0.16500000000E+002,  0.00000000000E+000,  0.10000000000E+001
  0.81900000000E+004,  0.92411643507E+006,  0.16500000000E+002,  0.00000000000E+000,  0.10000000000E+001
  0.82500000000E+004,  0.92479627921E+006,  0.16500000000E+002,  0.00000000000E+000,  0.10000000000E+001
  0.83100000000E+004,  0.92547109315E+006,  0.16500000000E+002,  0.00000000000E+000,  0.10000000000E+001
  0.83700000000E+004,  0.92614095752E+006,  0.16500000000E+002,  0.00000000000E+000,  0.10000000000E+001
  0.84300000000E+004,  0.92680593819E+006,  0.16500000000E+002,  0.00000000000E+000,  0.10000000000E+001
  0.84900000000E+004,  0.92746611419E+006,  0.16500000000E+002,  0.00000000000E+000,  0.10000000000E+001
  0.85500000000E+004,  0.92812154957E+006,  0.16500000000E+002,  0.00000000000E+000,  0.10000000000E+001
  0.86100000000E+004,  0.92877230980E+006,  0.16500000000E+002,  0.00000000000E+000,  0.10000000000E+001
  0.86700000000E+004,  0.92941845943E+006,  0.16500000000E+002,  0.00000000000E+000,  0.10000000000E+001
  0.87300000000E+004,  0.93006007557E+006,  0.16500000000E+002,  0.00000000000E+000,  0.10000000000E+001
  0.87900000000E+004,  0.93069720992E+006,  0.16500000000E+002,  0.00000000000E+000,  0.10000000000E+001
  0.88500000000E+004,  0.93132992687E+006,  0.16500000000E+002,  0.00000000000E+000,  0.10000000000E+001
  0.89100000000E+004,  0.93195828710E+006,  0.16500000000E+002,  0.00000000000E+000,  0.10000000000E+001
  0.89700000000E+004,  0.93258234656E+006,  0.16500000000E+002,  0.00000000000E+000,  0.10000000000E+001
  0.90300000000E+004,  0.93320217199E+006,  0.16500000000E+002,  0.00000000000E+000,  0.10000000000E+001
  0.90900000000E+004,  0.93381781755E+006,  0.16500000000E+002,  0.00000000000E+000,  0.10000000000E+001
  0.91500000000E+004,  0.93442933571E+006,  0.16500000000E+002,  0.00000000000E+000,  0.10000000000E+001
  0.92100000000E+004,  0.93503678169E+006,  0.16500000000E+002,  0.00000000000E+000,  0.10000000000E+001
  0.92700000000E+004,  0.93564021054E+006,  0.16500000000E+002,  0.00000000000E+000,  0.10000000000E+001
  0.93300000000E+004,  0.93623967143E+006,  0.16500000000E+002,  0.00000000000E+000,  0.10000000000E+001
  0.93900000000E+004,  0.93683522341E+006,  0.16500000000E+002,  0.00000000000E+000,  0.10000000000E+001
  0.94500000000E+004,  0.93742691096E+006,  0.16500000000E+002,  0.00000000000E+000,  0.10000000000E+001
  0.95100000000E+004,  0.93801478475E+006,  0.16500000000E+002,  0.00000000000E+000,  0.10000000000E+001
  0.95700000000E+004,  0.93859889234E+006,  0.16500000000E+002,  0.00000000000E+000,  0.10000000000E+001
  0.96300000000E+004,  0.93917928275E+006,  0.16500000000E+002,  0.00000000000E+000,  0.10000000000E+001
  0.96900000000E+004,  0.93975600577E+006,  0.16500000000E+002,  0.00000000000E+000,  0.10000000000E+001
  0.97500000000E+004,  0.94032910282E+006,  0.16500000000E+002,  0.00000000000E+000,  0.10000000000E+001
  0.98100000000E+004,  0.94089861780E+006,  0.16500000000E+002,  0.00000000000E+000,  0.10000000000E+001
  0.98700000000E+004,  0.94146460094E+006,  0.16500000000E+002,  0.00000000000E+000,  0.10000000000E+001
  0.99300000000E+004,  0.94202709169E+006,  0.16500000000E+002,  0.00000000000E+000,  0.10000000000E+001
  0.99900000000E+004,  0.94258613256E+006,  0.16500000000E+002,  0.00000000000E+000,  0.10000000000E+001
  0.10050000000E+005,  0.94314176576E+006,  0.16500000000E+002,  0.00000000000E+000,  0.10000000000E+001
  0.10110000000E+005,  0.94369403249E+006,  0.16500000000E+002,  0.00000000000E+000,  0.10000000000E+001
  0.10170000000E+005,  0.94424297132E+006,  0.16500000000E+002,  0.00000000000E+000,  0.10000000000E+001
  0.10230000000E+005,  0.94478862638E+006,  0.16500000000E+002,  0.00000000000E+000,  0.10000000000E+001
  0.10290000000E+005,  0.94533103050E+006,  0.16500000000E+002,  0.00000000000E+000,  0.10000000000E+001
  0.10350000000E+005,  0.94587022856E+006,  0.16500000000E+002,  0.00000000000E+000,  0.10000000000E+001
  0.10410000000E+005,  0.94640625334E+006,  0.16500000000E+002,  0.00000000000E+000,  0.10000000000E+001
  0.10470000000E+005,  0.94693914124E+006,  0.16500000000E+002,  0.00000000000E+000,  0.10000000000E+001
  0.10530000000E+005,  0.94746893266E+006,  0.16500000000E+002,  0.00000000000E+000,  0.10000000000E+001
  0.10590000000E+005,  0.94799565865E+006,  0.16500000000E+002,  0.00000000000E+000,  0.10000000000E+001
  0.10650000000E+005,  0.94851935789E+006,  0.16500000000E+002,  0.00000000000E+000,  0.10000000000E+001
  0.10710000000E+005,  0.94904006234E+006,  0.16500000000E+002,  0.00000000000E+000,  0.10000000000E+001
  0.10770000000E+005,  0.94955780638E+006,  0.16500000000E+002,  0.00000000000E+000,  0.10000000000E+001
  0.10830000000E+005,  0.95007262321E+006,  0.16500000000E+002,  0.00000000000E+000,  0.10000000000E+001
  0.10890000000E+005,  0.95058454552E+006,  0.16500000000E+002,  0.00000000000E+000,  0.10000000000E+001
  0.10950000000E+005,  0.95109360425E+006,  0.16500000000E+002,  0.00000000000E+000,  0.10000000000E+001
  0.11010000000E+005,  0.95159983414E+006,  0.16500000000E+002,  0.00000000000E+000,  0.10000000000E+001
  0.11070000000E+005,  0.95210326222E+006,  0.16500000000E+002,  0.00000000000E+000,  0.10000000000E+001
  0.11130000000E+005,  0.95260392308E+006,  0.16500000000E+002,  0.00000000000E+000,  0.10000000000E+001
  0.11190000000E+005,  0.95310183900E+006,  0.16500000000E+002,  0.00000000000E+000,  0.10000000000E+001
  0.11250000000E+005,  0.95359705195E+006,  0.16500000000E+002,  0.00000000000E+000,  0.10000000000E+001
