"           TIME(S)","              PRES","              TEMP","             SAT_G","             SAT_L"
  0.10000000000E+001,  0.58506278256E+006,  0.16500000000E+002,  0.00000000000E+000,  0.10000000000E+001
  0.60000000000E+001,  0.58672735657E+006,  0.16500000000E+002,  0.00000000000E+000,  0.10000000000E+001
  0.31000000000E+002,  0.58392241259E+006,  0.16500000000E+002,  0.00000000000E+000,  0.10000000000E+001
  0.15600000000E+003,  0.58972629480E+006,  0.16500000000E+002,  0.00000000000E+000,  0.10000000000E+001
  0.45600000000E+003,  0.60987299702E+006,  0.16500000000E+002,  0.00000000000E+000,  0.10000000000E+001
  0.75600000000E+003,  0.62782453888E+006,  0.16500000000E+002,  0.00000000000E+000,  0.10000000000E+001
  0.10560000000E+004,  0.64360719704E+006,  0.16500000000E+002,  0.00000000000E+000,  0.10000000000E+001
  0.13560000000E+004,  0.65751986036E+006,  0.16500000000E+002,  0.00000000000E+000,  0.10000000000E+001
  0.16560000000E+004,  0.66990733660E+006,  0.16500000000E+002,  0.00000000000E+000,  0.10000000000E+001
  0.19560000000E+004,  0.68105029085E+006,  0.16500000000E+002,  0.00000000000E+000,  0.10000000000E+001
  0.22560000000E+004,  0.69116392277E+006,  0.16500000000E+002,  0.00000000000E+000,  0.10000000000E+001
  0.25560000000E+004,  0.70041274001E+006,  0.16500000000E+002,  0.00000000000E+000,  0.10000000000E+001
  0.28560000000E+004,  0.70892385949E+006,  0.16500000000E+002,  0.00000000000E+000,  0.10000000000E+001
  0.31560000000E+004,  0.71679848441E+006,  0.16500000000E+002,  0.00000000000E+000,  0.10000000000E+001
  0.34560000000E+004,  0.72411661628E+006,  0.16500000000E+002,  0.00000000000E+000,  0.10000000000E+001
  0.37560000000E+004,  0.73094452805E+006,  0.16500000000E+002,  0.00000000000E+000,  0.10000000000E+001
  0.40560000000E+004,  0.73733661053E+006,  0.16500000000E+002,  0.00000000000E+000,  0.10000000000E+001
  0.43560000000E+004,  0.74333896938E+006,  0.16500000000E+002,  0.00000000000E+000,  0.10000000000E+001
  0.46560000000E+004,  0.74899045577E+006,  0.16500000000E+002,  0.00000000000E+000,  0.10000000000E+001
  0.49560000000E+004,  0.75432435315E+006,  0.16500000000E+002,  0.00000000000E+000,  0.10000000000E+001
  0.52560000000E+004,  0.75936935273E+006,  0.16500000000E+002,  0.00000000000E+000,  0.10000000000E+001
  0.55560000000E+004,  0.76415025875E+006,  0.16500000000E+002,  0.00000000000E+000,  0.10000000000E+001
  0.58560000000E+004,  0.76868937260E+006,  0.16500000000E+002,  0.00000000000E+000,  0.10000000000E+001
  0.61560000000E+004,  0.77301024444E+006,  0.16500000000E+002,  0.00000000000E+000,  0.10000000000E+001
  0.64560000000E+004,  0.77712994880E+006,  0.16500000000E+002,  0.00000000000E+000,  0.10000000000E+001
  0.67560000000E+004,  0.78105927729E+006,  0.16500000000E+002,  0.00000000000E+000,  0.10000000000E+001
  0.70560000000E+004,  0.78481149554E+006,  0.16500000000E+002,  0.00000000000E+000,  0.10000000000E+001
  0.73560000000E+004,  0.78839923930E+006,  0.16500000000E+002,  0.00000000000E+000,  0.10000000000E+001
  0.76560000000E+004,  0.79183374267E+006,  0.16500000000E+002,  0.00000000000E+000,  0.10000000000E+001
  0.79560000000E+004,  0.79512543003E+006,  0.16500000000E+002,  0.00000000000E+000,  0.10000000000E+001
  0.82560000000E+004,  0.79828368338E+006,  0.16500000000E+002,  0.00000000000E+000,  0.10000000000E+001
  0.85560000000E+004,  0.80131687762E+006,  0.16500000000E+002,  0.00000000000E+000,  0.10000000000E+001
  0.88560000000E+004,  0.80423280248E+006,  0.16500000000E+002,  0.00000000000E+000,  0.10000000000E+001
  0.91560000000E+004,  0.80703864730E+006,  0.16500000000E+002,  0.00000000000E+000,  0.10000000000E+001
  0.94560000000E+004,  0.80974093120E+006,  0.16500000000E+002,  0.00000000000E+000,  0.10000000000E+001
  0.97560000000E+004,  0.81234572308E+006,  0.16500000000E+002,  0.00000000000E+000,  0.10000000000E+001
  0.10056000000E+005,  0.81485848830E+006,  0.16500000000E+002,  0.00000000000E+000,  0.10000000000E+001
  0.10356000000E+005,  0.81728438800E+006,  0.16500000000E+002,  0.00000000000E+000,  0.10000000000E+001
  0.10656000000E+005,  0.81962809653E+006,  0.16500000000E+002,  0.00000000000E+000,  0.10000000000E+001
  0.10956000000E+005,  0.82189416451E+006,  0.16500000000E+002,  0.00000000000E+000,  0.10000000000E+001
  0.11256000000E+005,  0.82408662080E+006,  0.16500000000E+002,  0.00000000000E+000,  0.10000000000E+001
  0.11556000000E+005,  0.82620926538E+006,  0.16500000000E+002,  0.00000000000E+000,  0.10000000000E+001
  0.11856000000E+005,  0.82826571593E+006,  0.16500000000E+002,  0.00000000000E+000,  0.10000000000E+001
  0.12156000000E+005,  0.83023871558E+006,  0.16500000000E+002,  0.00000000000E+000,  0.10000000000E+001
  0.12456000000E+005,  0.83213213132E+006,  0.16500000000E+002,  0.00000000000E+000,  0.10000000000E+001
  0.12756000000E+005,  0.83397032610E+006,  0.16500000000E+002,  0.00000000000E+000,  0.10000000000E+001
  0.13056000000E+005,  0.83575892660E+006,  0.16500000000E+002,  0.00000000000E+000,  0.10000000000E+001
  0.13356000000E+005,  0.83749983262E+006,  0.16500000000E+002,  0.00000000000E+000,  0.10000000000E+001
  0.13656000000E+005,  0.83919462342E+006,  0.16500000000E+002,  0.00000000000E+000,  0.10000000000E+001
  0.13956000000E+005,  0.84084498424E+006,  0.16500000000E+002,  0.00000000000E+000,  0.10000000000E+001
  0.14256000000E+005,  0.84245255449E+006,  0.16500000000E+002,  0.00000000000E+000,  0.10000000000E+001
  0.14556000000E+005,  0.84401895762E+006,  0.16500000000E+002,  0.00000000000E+000,  0.10000000000E+001
  0.14856000000E+005,  0.84554577984E+006,  0.16500000000E+002,  0.00000000000E+000,  0.10000000000E+001
  0.15156000000E+005,  0.84703456921E+006,  0.16500000000E+002,  0.00000000000E+000,  0.10000000000E+001
  0.15456000000E+005,  0.84848681511E+006,  0.16500000000E+002,  0.00000000000E+000,  0.10000000000E+001
  0.15756000000E+005,  0.84990395174E+006,  0.16500000000E+002,  0.00000000000E+000,  0.10000000000E+001
  0.16056000000E+005,  0.85128732557E+006,  0.16500000000E+002,  0.00000000000E+000,  0.10000000000E+001
  0.16356000000E+005,  0.85263821885E+006,  0.16500000000E+002,  0.00000000000E+000,  0.10000000000E+001
  0.16656000000E+005,  0.85395790606E+006,  0.16500000000E+002,  0.00000000000E+000,  0.10000000000E+001
  0.16956000000E+005,  0.85524751506E+006,  0.16500000000E+002,  0.00000000000E+000,  0.10000000000E+001
  0.17256000000E+005,  0.85650820801E+006,  0.16500000000E+002,  0.00000000000E+000,  0.10000000000E+001
  0.17556000000E+005,  0.85774103823E+006,  0.16500000000E+002,  0.00000000000E+000,  0.10000000000E+001
  0.17856000000E+005,  0.85894702295E+006,  0.16500000000E+002,  0.00000000000E+000,  0.10000000000E+001
  0.18156000000E+005,  0.86014828405E+006,  0.16500000000E+002,  0.00000000000E+000,  0.10000000000E+001
  0.18456000000E+005,  0.86134494057E+006,  0.16500000000E+002,  0.00000000000E+000,  0.10000000000E+001
  0.18756000000E+005,  0.86251571785E+006,  0.16500000000E+002,  0.00000000000E+000,  0.10000000000E+001
  0.19056000000E+005,  0.86365850972E+006,  0.16500000000E+002,  0.00000000000E+000,  0.10000000000E+001
  0.19356000000E+005,  0.86477471747E+006,  0.16500000000E+002,  0.00000000000E+000,  0.10000000000E+001
  0.19656000000E+005,  0.86586590568E+006,  0.16500000000E+002,  0.00000000000E+000,  0.10000000000E+001
  0.19956000000E+005,  0.86693342351E+006,  0.16500000000E+002,  0.00000000000E+000,  0.10000000000E+001
  0.20256000000E+005,  0.86797841962E+006,  0.16500000000E+002,  0.00000000000E+000,  0.10000000000E+001
  0.20556000000E+005,  0.86900192719E+006,  0.16500000000E+002,  0.00000000000E+000,  0.10000000000E+001
  0.20856000000E+005,  0.87000481841E+006,  0.16500000000E+002,  0.00000000000E+000,  0.10000000000E+001
  0.21156000000E+005,  0.87098794253E+006,  0.16500000000E+002,  0.00000000000E+000,  0.10000000000E+001
  0.21456000000E+005,  0.87195207686E+006,  0.16500000000E+002,  0.00000000000E+000,  0.10000000000E+001
  0.21756000000E+005,  0.87289787939E+006,  0.16500000000E+002,  0.00000000000E+000,  0.10000000000E+001
  0.22056000000E+005,  0.87382602736E+006,  0.16500000000E+002,  0.00000000000E+000,  0.10000000000E+001
  0.22356000000E+005,  0.87473711517E+006,  0.16500000000E+002,  0.00000000000E+000,  0.10000000000E+001
  0.22656000000E+005,  0.87563172865E+006,  0.16500000000E+002,  0.00000000000E+000,  0.10000000000E+001
  0.22956000000E+005,  0.87651039375E+006,  0.16500000000E+002,  0.00000000000E+000,  0.10000000000E+001
  0.23256000000E+005,  0.87737362883E+006,  0.16500000000E+002,  0.00000000000E+000,  0.10000000000E+001
  0.23556000000E+005,  0.87822191866E+006,  0.16500000000E+002,  0.00000000000E+000,  0.10000000000E+001
  0.23856000000E+005,  0.87905572898E+006,  0.16500000000E+002,  0.00000000000E+000,  0.10000000000E+001
  0.24156000000E+005,  0.87988206709E+006,  0.16500000000E+002,  0.00000000000E+000,  0.10000000000E+001
  0.24456000000E+005,  0.88070107092E+006,  0.16500000000E+002,  0.00000000000E+000,  0.10000000000E+001
  0.24756000000E+005,  0.88150632877E+006,  0.16500000000E+002,  0.00000000000E+000,  0.10000000000E+001
  0.25056000000E+005,  0.88229724580E+006,  0.16500000000E+002,  0.00000000000E+000,  0.10000000000E+001
  0.25356000000E+005,  0.88307442624E+006,  0.16500000000E+002,  0.00000000000E+000,  0.10000000000E+001
  0.25656000000E+005,  0.88383843734E+006,  0.16500000000E+002,  0.00000000000E+000,  0.10000000000E+001
  0.25956000000E+005,  0.88458981263E+006,  0.16500000000E+002,  0.00000000000E+000,  0.10000000000E+001
  0.26256000000E+005,  0.88532902642E+006,  0.16500000000E+002,  0.00000000000E+000,  0.10000000000E+001
  0.26556000000E+005,  0.88605648680E+006,  0.16500000000E+002,  0.00000000000E+000,  0.10000000000E+001
  0.26856000000E+005,  0.88677256976E+006,  0.16500000000E+002,  0.00000000000E+000,  0.10000000000E+001
  0.27156000000E+005,  0.88747763438E+006,  0.16500000000E+002,  0.00000000000E+000,  0.10000000000E+001
  0.27456000000E+005,  0.88817200992E+006,  0.16500000000E+002,  0.00000000000E+000,  0.10000000000E+001
  0.27756000000E+005,  0.88885597168E+006,  0.16500000000E+002,  0.00000000000E+000,  0.10000000000E+001
  0.28056000000E+005,  0.88952985254E+006,  0.16500000000E+002,  0.00000000000E+000,  0.10000000000E+001
  0.28356000000E+005,  0.89019391138E+006,  0.16500000000E+002,  0.00000000000E+000,  0.10000000000E+001
  0.28656000000E+005,  0.89084839980E+006,  0.16500000000E+002,  0.00000000000E+000,  0.10000000000E+001
  0.28956000000E+005,  0.89149358133E+006,  0.16500000000E+002,  0.00000000000E+000,  0.10000000000E+001
  0.29256000000E+005,  0.89212967673E+006,  0.16500000000E+002,  0.00000000000E+000,  0.10000000000E+001
  0.29556000000E+005,  0.89275693045E+006,  0.16500000000E+002,  0.00000000000E+000,  0.10000000000E+001
  0.29856000000E+005,  0.89337556111E+006,  0.16500000000E+002,  0.00000000000E+000,  0.10000000000E+001
  0.30156000000E+005,  0.89399450487E+006,  0.16500000000E+002,  0.00000000000E+000,  0.10000000000E+001
  0.30456000000E+005,  0.89461363698E+006,  0.16500000000E+002,  0.00000000000E+000,  0.10000000000E+001
  0.30756000000E+005,  0.89522401044E+006,  0.16500000000E+002,  0.00000000000E+000,  0.10000000000E+001
  0.31056000000E+005,  0.89582460738E+006,  0.16500000000E+002,  0.00000000000E+000,  0.10000000000E+001
  0.31356000000E+005,  0.89641585394E+006,  0.16500000000E+002,  0.00000000000E+000,  0.10000000000E+001
  0.31656000000E+005,  0.89699827314E+006,  0.16500000000E+002,  0.00000000000E+000,  0.10000000000E+001
  0.31956000000E+005,  0.89757228329E+006,  0.16500000000E+002,  0.00000000000E+000,  0.10000000000E+001
  0.32256000000E+005,  0.89813822700E+006,  0.16500000000E+002,  0.00000000000E+000,  0.10000000000E+001
  0.32556000000E+005,  0.10106523106E+007,  0.16500000000E+002,  0.00000000000E+000,  0.10000000000E+001
  0.32856000000E+005,  0.19302709383E+007,  0.16500000000E+002,  0.00000000000E+000,  0.10000000000E+001
  0.33156000000E+005,  0.28635256924E+007,  0.16500000000E+002,  0.00000000000E+000,  0.10000000000E+001
  0.33456000000E+005,  0.36861652578E+007,  0.16500000000E+002,  0.00000000000E+000,  0.10000000000E+001
  0.33756000000E+005,  0.44075061054E+007,  0.16500000000E+002,  0.00000000000E+000,  0.10000000000E+001
  0.34056000000E+005,  0.50477225395E+007,  0.16500000000E+002,  0.00000000000E+000,  0.10000000000E+001
  0.34356000000E+005,  0.56227092890E+007,  0.16500000000E+002,  0.00000000000E+000,  0.10000000000E+001
  0.34656000000E+005,  0.61441215265E+007,  0.16500000000E+002,  0.00000000000E+000,  0.10000000000E+001
  0.34956000000E+005,  0.66206441946E+007,  0.16500000000E+002,  0.00000000000E+000,  0.10000000000E+001
  0.35256000000E+005,  0.70589258250E+007,  0.16500000000E+002,  0.00000000000E+000,  0.10000000000E+001
  0.35556000000E+005,  0.74641827893E+007,  0.16500000000E+002,  0.00000000000E+000,  0.10000000000E+001
  0.35856000000E+005,  0.78405981097E+007,  0.16500000000E+002,  0.00000000000E+000,  0.10000000000E+001
  0.36156000000E+005,  0.81817153927E+007,  0.16500000000E+002,  0.00000000000E+000,  0.10000000000E+001
  0.36456000000E+005,  0.84907344159E+007,  0.16500000000E+002,  0.00000000000E+000,  0.10000000000E+001
  0.36756000000E+005,  0.87803491190E+007,  0.16500000000E+002,  0.00000000000E+000,  0.10000000000E+001
  0.37056000000E+005,  0.90539727486E+007,  0.16500000000E+002,  0.00000000000E+000,  0.10000000000E+001
  0.37356000000E+005,  0.93130518958E+007,  0.16500000000E+002,  0.00000000000E+000,  0.10000000000E+001
  0.37656000000E+005,  0.95687261453E+007,  0.16500000000E+002,  0.00000000000E+000,  0.10000000000E+001
  0.37956000000E+005,  0.98211317010E+007,  0.16500000000E+002,  0.00000000000E+000,  0.10000000000E+001
  0.38256000000E+005,  0.10061200882E+008,  0.16500000000E+002,  0.00000000000E+000,  0.10000000000E+001
  0.38556000000E+005,  0.10288440739E+008,  0.16500000000E+002,  0.00000000000E+000,  0.10000000000E+001
  0.38856000000E+005,  0.10503904846E+008,  0.16500000000E+002,  0.00000000000E+000,  0.10000000000E+001
  0.39156000000E+005,  0.10708668422E+008,  0.16500000000E+002,  0.00000000000E+000,  0.10000000000E+001
  0.39456000000E+005,  0.10903657520E+008,  0.16500000000E+002,  0.00000000000E+000,  0.10000000000E+001
  0.39756000000E+005,  0.11089666866E+008,  0.16500000000E+002,  0.00000000000E+000,  0.10000000000E+001
  0.40056000000E+005,  0.11267387756E+008,  0.16500000000E+002,  0.00000000000E+000,  0.10000000000E+001
  0.40356000000E+005,  0.11437429030E+008,  0.16500000000E+002,  0.00000000000E+000,  0.10000000000E+001
  0.40656000000E+005,  0.11600332070E+008,  0.16500000000E+002,  0.00000000000E+000,  0.10000000000E+001
  0.40956000000E+005,  0.11756581739E+008,  0.16500000000E+002,  0.00000000000E+000,  0.10000000000E+001
  0.41256000000E+005,  0.11906615230E+008,  0.16500000000E+002,  0.00000000000E+000,  0.10000000000E+001
  0.41556000000E+005,  0.12050828432E+008,  0.16500000000E+002,  0.00000000000E+000,  0.10000000000E+001
  0.41856000000E+005,  0.12189581764E+008,  0.16500000000E+002,  0.00000000000E+000,  0.10000000000E+001
  0.42156000000E+005,  0.12317582215E+008,  0.16500000000E+002,  0.00000000000E+000,  0.10000000000E+001
  0.42456000000E+005,  0.12435324680E+008,  0.16500000000E+002,  0.00000000000E+000,  0.10000000000E+001
  0.42756000000E+005,  0.12548964717E+008,  0.16500000000E+002,  0.00000000000E+000,  0.10000000000E+001
  0.43056000000E+005,  0.12659563841E+008,  0.16500000000E+002,  0.00000000000E+000,  0.10000000000E+001
  0.43356000000E+005,  0.12767201981E+008,  0.16500000000E+002,  0.00000000000E+000,  0.10000000000E+001
  0.43656000000E+005,  0.12871882818E+008,  0.16500000000E+002,  0.00000000000E+000,  0.10000000000E+001
  0.43956000000E+005,  0.12973643052E+008,  0.16500000000E+002,  0.00000000000E+000,  0.10000000000E+001
  0.44256000000E+005,  0.13072547851E+008,  0.16500000000E+002,  0.00000000000E+000,  0.10000000000E+001
  0.44556000000E+005,  0.13168680887E+008,  0.16500000000E+002,  0.00000000000E+000,  0.10000000000E+001
  0.44856000000E+005,  0.13262133338E+008,  0.16500000000E+002,  0.00000000000E+000,  0.10000000000E+001
  0.45156000000E+005,  0.13353000732E+008,  0.16500000000E+002,  0.00000000000E+000,  0.10000000000E+001
  0.45456000000E+005,  0.13441379410E+008,  0.16500000000E+002,  0.00000000000E+000,  0.10000000000E+001
  0.45756000000E+005,  0.13527364621E+008,  0.16500000000E+002,  0.00000000000E+000,  0.10000000000E+001
  0.46056000000E+005,  0.13611049633E+008,  0.16500000000E+002,  0.00000000000E+000,  0.10000000000E+001
  0.46356000000E+005,  0.13692524967E+008,  0.16500000000E+002,  0.00000000000E+000,  0.10000000000E+001
  0.46656000000E+005,  0.13771878288E+008,  0.16500000000E+002,  0.00000000000E+000,  0.10000000000E+001
  0.46956000000E+005,  0.13849193565E+008,  0.16500000000E+002,  0.00000000000E+000,  0.10000000000E+001
  0.47256000000E+005,  0.13924551237E+008,  0.16500000000E+002,  0.00000000000E+000,  0.10000000000E+001
  0.47556000000E+005,  0.13998028635E+008,  0.16500000000E+002,  0.00000000000E+000,  0.10000000000E+001
  0.47856000000E+005,  0.13236151029E+008,  0.16500000000E+002,  0.00000000000E+000,  0.10000000000E+001
  0.48156000000E+005,  0.12398157316E+008,  0.16500000000E+002,  0.00000000000E+000,  0.10000000000E+001
  0.48456000000E+005,  0.11654088161E+008,  0.16500000000E+002,  0.00000000000E+000,  0.10000000000E+001
  0.48756000000E+005,  0.11005161670E+008,  0.16500000000E+002,  0.00000000000E+000,  0.10000000000E+001
  0.49056000000E+005,  0.10433145950E+008,  0.16500000000E+002,  0.00000000000E+000,  0.10000000000E+001
  0.49356000000E+005,  0.99226707552E+007,  0.16500000000E+002,  0.00000000000E+000,  0.10000000000E+001
  0.49656000000E+005,  0.94623610504E+007,  0.16500000000E+002,  0.00000000000E+000,  0.10000000000E+001
  0.49956000000E+005,  0.90435819659E+007,  0.16500000000E+002,  0.00000000000E+000,  0.10000000000E+001
  0.50256000000E+005,  0.86599504415E+007,  0.16500000000E+002,  0.00000000000E+000,  0.10000000000E+001
  0.50556000000E+005,  0.83070473867E+007,  0.16500000000E+002,  0.00000000000E+000,  0.10000000000E+001
  0.50856000000E+005,  0.79814745302E+007,  0.16500000000E+002,  0.00000000000E+000,  0.10000000000E+001
  0.51156000000E+005,  0.76801784338E+007,  0.16500000000E+002,  0.00000000000E+000,  0.10000000000E+001
  0.51456000000E+005,  0.74006081718E+007,  0.16500000000E+002,  0.00000000000E+000,  0.10000000000E+001
  0.51756000000E+005,  0.71405872814E+007,  0.16500000000E+002,  0.00000000000E+000,  0.10000000000E+001
  0.52056000000E+005,  0.68981969365E+007,  0.16500000000E+002,  0.00000000000E+000,  0.10000000000E+001
  0.52356000000E+005,  0.66717608390E+007,  0.16500000000E+002,  0.00000000000E+000,  0.10000000000E+001
  0.52656000000E+005,  0.64598234086E+007,  0.16500000000E+002,  0.00000000000E+000,  0.10000000000E+001
  0.52956000000E+005,  0.62610915870E+007,  0.16500000000E+002,  0.00000000000E+000,  0.10000000000E+001
  0.53256000000E+005,  0.60744340700E+007,  0.16500000000E+002,  0.00000000000E+000,  0.10000000000E+001
  0.53556000000E+005,  0.58988496890E+007,  0.16500000000E+002,  0.00000000000E+000,  0.10000000000E+001
  0.53856000000E+005,  0.57334391967E+007,  0.16500000000E+002,  0.00000000000E+000,  0.10000000000E+001
  0.54156000000E+005,  0.55774613271E+007,  0.16500000000E+002,  0.00000000000E+000,  0.10000000000E+001
  0.54456000000E+005,  0.54301868309E+007,  0.16500000000E+002,  0.00000000000E+000,  0.10000000000E+001
  0.54756000000E+005,  0.52908902750E+007,  0.16500000000E+002,  0.00000000000E+000,  0.10000000000E+001
  0.55056000000E+005,  0.51589699381E+007,  0.16500000000E+002,  0.00000000000E+000,  0.10000000000E+001
  0.55356000000E+005,  0.50338861522E+007,  0.16500000000E+002,  0.00000000000E+000,  0.10000000000E+001
  0.55656000000E+005,  0.49151524147E+007,  0.16500000000E+002,  0.00000000000E+000,  0.10000000000E+001
