"           TIME(S)","              PRES","              TEMP","             SAT_G","             SAT_L"
  0.94878500000E+005,  0.97664392955E+006,  0.16500000000E+002,  0.00000000000E+000,  0.10000000000E+001
  0.94880500000E+005,  0.97664392946E+006,  0.16500000000E+002,  0.00000000000E+000,  0.10000000000E+001
  0.94882500000E+005,  0.97664392937E+006,  0.16500000000E+002,  0.00000000000E+000,  0.10000000000E+001
  0.94884500000E+005,  0.97664392928E+006,  0.16500000000E+002,  0.00000000000E+000,  0.10000000000E+001
  0.94886500000E+005,  0.97664392919E+006,  0.16500000000E+002,  0.00000000000E+000,  0.10000000000E+001
  0.94888500000E+005,  0.97664392910E+006,  0.16500000000E+002,  0.00000000000E+000,  0.10000000000E+001
  0.94890500000E+005,  0.97664392901E+006,  0.16500000000E+002,  0.00000000000E+000,  0.10000000000E+001
  0.94892500000E+005,  0.97664392892E+006,  0.16500000000E+002,  0.00000000000E+000,  0.10000000000E+001
  0.94894500000E+005,  0.97664392883E+006,  0.16500000000E+002,  0.00000000000E+000,  0.10000000000E+001
  0.94896500000E+005,  0.97664392874E+006,  0.16500000000E+002,  0.00000000000E+000,  0.10000000000E+001
  0.94898500000E+005,  0.97664392865E+006,  0.16500000000E+002,  0.00000000000E+000,  0.10000000000E+001
  0.94900500000E+005,  0.97664392856E+006,  0.16500000000E+002,  0.00000000000E+000,  0.10000000000E+001
  0.94902500000E+005,  0.97664392846E+006,  0.16500000000E+002,  0.00000000000E+000,  0.10000000000E+001
  0.94904500000E+005,  0.97664392837E+006,  0.16500000000E+002,  0.00000000000E+000,  0.10000000000E+001
  0.94906500000E+005,  0.97664392828E+006,  0.16500000000E+002,  0.00000000000E+000,  0.10000000000E+001
  0.94908500000E+005,  0.97664392819E+006,  0.16500000000E+002,  0.00000000000E+000,  0.10000000000E+001
  0.94910500000E+005,  0.97664392810E+006,  0.16500000000E+002,  0.00000000000E+000,  0.10000000000E+001
  0.94912500000E+005,  0.97664392800E+006,  0.16500000000E+002,  0.00000000000E+000,  0.10000000000E+001
  0.94914500000E+005,  0.97664392791E+006,  0.16500000000E+002,  0.00000000000E+000,  0.10000000000E+001
  0.94916500000E+005,  0.97664392782E+006,  0.16500000000E+002,  0.00000000000E+000,  0.10000000000E+001
  0.94918500000E+005,  0.97664392772E+006,  0.16500000000E+002,  0.00000000000E+000,  0.10000000000E+001
  0.94920500000E+005,  0.97664392763E+006,  0.16500000000E+002,  0.00000000000E+000,  0.10000000000E+001
  0.94922500000E+005,  0.97664392753E+006,  0.16500000000E+002,  0.00000000000E+000,  0.10000000000E+001
  0.94924500000E+005,  0.97664392744E+006,  0.16500000000E+002,  0.00000000000E+000,  0.10000000000E+001
  0.94926500000E+005,  0.97664392735E+006,  0.16500000000E+002,  0.00000000000E+000,  0.10000000000E+001
  0.94928500000E+005,  0.97664392725E+006,  0.16500000000E+002,  0.00000000000E+000,  0.10000000000E+001
  0.94930500000E+005,  0.97664392716E+006,  0.16500000000E+002,  0.00000000000E+000,  0.10000000000E+001
  0.94932500000E+005,  0.97664392706E+006,  0.16500000000E+002,  0.00000000000E+000,  0.10000000000E+001
  0.94934500000E+005,  0.97664392697E+006,  0.16500000000E+002,  0.00000000000E+000,  0.10000000000E+001
  0.94936500000E+005,  0.97664392687E+006,  0.16500000000E+002,  0.00000000000E+000,  0.10000000000E+001
  0.94938500000E+005,  0.97664392677E+006,  0.16500000000E+002,  0.00000000000E+000,  0.10000000000E+001
  0.94940500000E+005,  0.97664392668E+006,  0.16500000000E+002,  0.00000000000E+000,  0.10000000000E+001
  0.94942500000E+005,  0.97664392658E+006,  0.16500000000E+002,  0.00000000000E+000,  0.10000000000E+001
  0.94944500000E+005,  0.97664392649E+006,  0.16500000000E+002,  0.00000000000E+000,  0.10000000000E+001
  0.94946500000E+005,  0.97664392639E+006,  0.16500000000E+002,  0.00000000000E+000,  0.10000000000E+001
  0.94948500000E+005,  0.97664392629E+006,  0.16500000000E+002,  0.00000000000E+000,  0.10000000000E+001
  0.94950500000E+005,  0.97664392620E+006,  0.16500000000E+002,  0.00000000000E+000,  0.10000000000E+001
  0.94952500000E+005,  0.97664392610E+006,  0.16500000000E+002,  0.00000000000E+000,  0.10000000000E+001
  0.94954500000E+005,  0.97664392600E+006,  0.16500000000E+002,  0.00000000000E+000,  0.10000000000E+001
  0.94956500000E+005,  0.97664392590E+006,  0.16500000000E+002,  0.00000000000E+000,  0.10000000000E+001
  0.94958500000E+005,  0.97664392581E+006,  0.16500000000E+002,  0.00000000000E+000,  0.10000000000E+001
  0.94960500000E+005,  0.97664392571E+006,  0.16500000000E+002,  0.00000000000E+000,  0.10000000000E+001
  0.94962500000E+005,  0.97664392561E+006,  0.16500000000E+002,  0.00000000000E+000,  0.10000000000E+001
  0.94964500000E+005,  0.97664392551E+006,  0.16500000000E+002,  0.00000000000E+000,  0.10000000000E+001
  0.94966500000E+005,  0.97664392541E+006,  0.16500000000E+002,  0.00000000000E+000,  0.10000000000E+001
  0.94968500000E+005,  0.97664392532E+006,  0.16500000000E+002,  0.00000000000E+000,  0.10000000000E+001
  0.94970500000E+005,  0.97664392522E+006,  0.16500000000E+002,  0.00000000000E+000,  0.10000000000E+001
  0.94972500000E+005,  0.97664392512E+006,  0.16500000000E+002,  0.00000000000E+000,  0.10000000000E+001
  0.94974500000E+005,  0.97664392502E+006,  0.16500000000E+002,  0.00000000000E+000,  0.10000000000E+001
  0.94976500000E+005,  0.97664392492E+006,  0.16500000000E+002,  0.00000000000E+000,  0.10000000000E+001
  0.94978500000E+005,  0.97664392482E+006,  0.16500000000E+002,  0.00000000000E+000,  0.10000000000E+001
  0.94980500000E+005,  0.97664392472E+006,  0.16500000000E+002,  0.00000000000E+000,  0.10000000000E+001
  0.94982500000E+005,  0.97664392462E+006,  0.16500000000E+002,  0.00000000000E+000,  0.10000000000E+001
  0.94984500000E+005,  0.97664392452E+006,  0.16500000000E+002,  0.00000000000E+000,  0.10000000000E+001
  0.94986500000E+005,  0.97664392442E+006,  0.16500000000E+002,  0.00000000000E+000,  0.10000000000E+001
  0.94988500000E+005,  0.97664392432E+006,  0.16500000000E+002,  0.00000000000E+000,  0.10000000000E+001
  0.94990500000E+005,  0.97664392422E+006,  0.16500000000E+002,  0.00000000000E+000,  0.10000000000E+001
  0.94992500000E+005,  0.97664392412E+006,  0.16500000000E+002,  0.00000000000E+000,  0.10000000000E+001
  0.94994500000E+005,  0.97664392402E+006,  0.16500000000E+002,  0.00000000000E+000,  0.10000000000E+001
  0.94996500000E+005,  0.97664392392E+006,  0.16500000000E+002,  0.00000000000E+000,  0.10000000000E+001
  0.94998500000E+005,  0.97664392382E+006,  0.16500000000E+002,  0.00000000000E+000,  0.10000000000E+001
  0.95000500000E+005,  0.97664392372E+006,  0.16500000000E+002,  0.00000000000E+000,  0.10000000000E+001
  0.95002500000E+005,  0.97664392362E+006,  0.16500000000E+002,  0.00000000000E+000,  0.10000000000E+001
  0.95004500000E+005,  0.97664392352E+006,  0.16500000000E+002,  0.00000000000E+000,  0.10000000000E+001
  0.95006500000E+005,  0.97664392342E+006,  0.16500000000E+002,  0.00000000000E+000,  0.10000000000E+001
  0.95008500000E+005,  0.97664392332E+006,  0.16500000000E+002,  0.00000000000E+000,  0.10000000000E+001
  0.95010500000E+005,  0.97664392322E+006,  0.16500000000E+002,  0.00000000000E+000,  0.10000000000E+001
  0.95012500000E+005,  0.97664392312E+006,  0.16500000000E+002,  0.00000000000E+000,  0.10000000000E+001
  0.95014500000E+005,  0.97664392302E+006,  0.16500000000E+002,  0.00000000000E+000,  0.10000000000E+001
  0.95016500000E+005,  0.97664392292E+006,  0.16500000000E+002,  0.00000000000E+000,  0.10000000000E+001
  0.95018500000E+005,  0.97664392281E+006,  0.16500000000E+002,  0.00000000000E+000,  0.10000000000E+001
  0.95020500000E+005,  0.97664392271E+006,  0.16500000000E+002,  0.00000000000E+000,  0.10000000000E+001
  0.95022500000E+005,  0.97664392261E+006,  0.16500000000E+002,  0.00000000000E+000,  0.10000000000E+001
  0.95024500000E+005,  0.97664392251E+006,  0.16500000000E+002,  0.00000000000E+000,  0.10000000000E+001
  0.95026500000E+005,  0.97664392241E+006,  0.16500000000E+002,  0.00000000000E+000,  0.10000000000E+001
  0.95028500000E+005,  0.97664392231E+006,  0.16500000000E+002,  0.00000000000E+000,  0.10000000000E+001
  0.95030500000E+005,  0.97664392220E+006,  0.16500000000E+002,  0.00000000000E+000,  0.10000000000E+001
  0.95032500000E+005,  0.97664392210E+006,  0.16500000000E+002,  0.00000000000E+000,  0.10000000000E+001
  0.95034500000E+005,  0.97664392200E+006,  0.16500000000E+002,  0.00000000000E+000,  0.10000000000E+001
  0.95036500000E+005,  0.97664392190E+006,  0.16500000000E+002,  0.00000000000E+000,  0.10000000000E+001
  0.95038500000E+005,  0.97664392179E+006,  0.16500000000E+002,  0.00000000000E+000,  0.10000000000E+001
  0.95040500000E+005,  0.97664392169E+006,  0.16500000000E+002,  0.00000000000E+000,  0.10000000000E+001
  0.95042500000E+005,  0.97664392159E+006,  0.16500000000E+002,  0.00000000000E+000,  0.10000000000E+001
  0.95044500000E+005,  0.97664392149E+006,  0.16500000000E+002,  0.00000000000E+000,  0.10000000000E+001
  0.95046500000E+005,  0.97664392138E+006,  0.16500000000E+002,  0.00000000000E+000,  0.10000000000E+001
  0.95048500000E+005,  0.97664392128E+006,  0.16500000000E+002,  0.00000000000E+000,  0.10000000000E+001
  0.95050500000E+005,  0.97664392118E+006,  0.16500000000E+002,  0.00000000000E+000,  0.10000000000E+001
  0.95052500000E+005,  0.97664392108E+006,  0.16500000000E+002,  0.00000000000E+000,  0.10000000000E+001
  0.95054500000E+005,  0.97664392097E+006,  0.16500000000E+002,  0.00000000000E+000,  0.10000000000E+001
  0.95056500000E+005,  0.97664392087E+006,  0.16500000000E+002,  0.00000000000E+000,  0.10000000000E+001
  0.95058500000E+005,  0.97664392077E+006,  0.16500000000E+002,  0.00000000000E+000,  0.10000000000E+001
  0.95060500000E+005,  0.97664392066E+006,  0.16500000000E+002,  0.00000000000E+000,  0.10000000000E+001
  0.95062500000E+005,  0.97664392056E+006,  0.16500000000E+002,  0.00000000000E+000,  0.10000000000E+001
  0.95064500000E+005,  0.97664392046E+006,  0.16500000000E+002,  0.00000000000E+000,  0.10000000000E+001
  0.95066500000E+005,  0.97664392035E+006,  0.16500000000E+002,  0.00000000000E+000,  0.10000000000E+001
  0.95068500000E+005,  0.97664392025E+006,  0.16500000000E+002,  0.00000000000E+000,  0.10000000000E+001
  0.95070500000E+005,  0.97664392015E+006,  0.16500000000E+002,  0.00000000000E+000,  0.10000000000E+001
  0.95072500000E+005,  0.97664392004E+006,  0.16500000000E+002,  0.00000000000E+000,  0.10000000000E+001
  0.95074500000E+005,  0.97664391994E+006,  0.16500000000E+002,  0.00000000000E+000,  0.10000000000E+001
  0.95076500000E+005,  0.97664391984E+006,  0.16500000000E+002,  0.00000000000E+000,  0.10000000000E+001
  0.95078500000E+005,  0.97664391973E+006,  0.16500000000E+002,  0.00000000000E+000,  0.10000000000E+001
  0.95080500000E+005,  0.97664391963E+006,  0.16500000000E+002,  0.00000000000E+000,  0.10000000000E+001
  0.95082500000E+005,  0.97664391952E+006,  0.16500000000E+002,  0.00000000000E+000,  0.10000000000E+001
  0.95084500000E+005,  0.97664391942E+006,  0.16500000000E+002,  0.00000000000E+000,  0.10000000000E+001
  0.95086500000E+005,  0.97664391932E+006,  0.16500000000E+002,  0.00000000000E+000,  0.10000000000E+001
  0.95088500000E+005,  0.97664391921E+006,  0.16500000000E+002,  0.00000000000E+000,  0.10000000000E+001
  0.95090500000E+005,  0.97664391911E+006,  0.16500000000E+002,  0.00000000000E+000,  0.10000000000E+001
  0.95092500000E+005,  0.97664391900E+006,  0.16500000000E+002,  0.00000000000E+000,  0.10000000000E+001
  0.95094500000E+005,  0.97664391890E+006,  0.16500000000E+002,  0.00000000000E+000,  0.10000000000E+001
  0.95096500000E+005,  0.97664391880E+006,  0.16500000000E+002,  0.00000000000E+000,  0.10000000000E+001
  0.95098500000E+005,  0.97664391869E+006,  0.16500000000E+002,  0.00000000000E+000,  0.10000000000E+001
  0.95100500000E+005,  0.97664391859E+006,  0.16500000000E+002,  0.00000000000E+000,  0.10000000000E+001
  0.95102500000E+005,  0.97664391848E+006,  0.16500000000E+002,  0.00000000000E+000,  0.10000000000E+001
  0.95104500000E+005,  0.97664391838E+006,  0.16500000000E+002,  0.00000000000E+000,  0.10000000000E+001
  0.95106500000E+005,  0.97664391827E+006,  0.16500000000E+002,  0.00000000000E+000,  0.10000000000E+001
  0.95108500000E+005,  0.97664391817E+006,  0.16500000000E+002,  0.00000000000E+000,  0.10000000000E+001
  0.95110500000E+005,  0.97664391807E+006,  0.16500000000E+002,  0.00000000000E+000,  0.10000000000E+001
  0.95112500000E+005,  0.97664391796E+006,  0.16500000000E+002,  0.00000000000E+000,  0.10000000000E+001
  0.95114500000E+005,  0.97664391786E+006,  0.16500000000E+002,  0.00000000000E+000,  0.10000000000E+001
  0.95116500000E+005,  0.97664391775E+006,  0.16500000000E+002,  0.00000000000E+000,  0.10000000000E+001
  0.95118500000E+005,  0.97664391765E+006,  0.16500000000E+002,  0.00000000000E+000,  0.10000000000E+001
  0.95120500000E+005,  0.97664391754E+006,  0.16500000000E+002,  0.00000000000E+000,  0.10000000000E+001
  0.95122500000E+005,  0.97664391744E+006,  0.16500000000E+002,  0.00000000000E+000,  0.10000000000E+001
  0.95124500000E+005,  0.97664391733E+006,  0.16500000000E+002,  0.00000000000E+000,  0.10000000000E+001
  0.95126500000E+005,  0.97664391723E+006,  0.16500000000E+002,  0.00000000000E+000,  0.10000000000E+001
  0.95128500000E+005,  0.97664391712E+006,  0.16500000000E+002,  0.00000000000E+000,  0.10000000000E+001
  0.95130500000E+005,  0.97664391702E+006,  0.16500000000E+002,  0.00000000000E+000,  0.10000000000E+001
  0.95132500000E+005,  0.97664391691E+006,  0.16500000000E+002,  0.00000000000E+000,  0.10000000000E+001
  0.95134500000E+005,  0.97664391681E+006,  0.16500000000E+002,  0.00000000000E+000,  0.10000000000E+001
  0.95136500000E+005,  0.97664391670E+006,  0.16500000000E+002,  0.00000000000E+000,  0.10000000000E+001
  0.95138500000E+005,  0.97664391660E+006,  0.16500000000E+002,  0.00000000000E+000,  0.10000000000E+001
  0.95140500000E+005,  0.97664391649E+006,  0.16500000000E+002,  0.00000000000E+000,  0.10000000000E+001
  0.95142500000E+005,  0.97664391639E+006,  0.16500000000E+002,  0.00000000000E+000,  0.10000000000E+001
  0.95144500000E+005,  0.97664391628E+006,  0.16500000000E+002,  0.00000000000E+000,  0.10000000000E+001
  0.95146500000E+005,  0.97664391618E+006,  0.16500000000E+002,  0.00000000000E+000,  0.10000000000E+001
  0.95148500000E+005,  0.97664391607E+006,  0.16500000000E+002,  0.00000000000E+000,  0.10000000000E+001
  0.95150500000E+005,  0.97664391597E+006,  0.16500000000E+002,  0.00000000000E+000,  0.10000000000E+001
  0.95152500000E+005,  0.97664391587E+006,  0.16500000000E+002,  0.00000000000E+000,  0.10000000000E+001
  0.95154500000E+005,  0.97664391576E+006,  0.16500000000E+002,  0.00000000000E+000,  0.10000000000E+001
  0.95156500000E+005,  0.97664391565E+006,  0.16500000000E+002,  0.00000000000E+000,  0.10000000000E+001
  0.95158500000E+005,  0.97664391555E+006,  0.16500000000E+002,  0.00000000000E+000,  0.10000000000E+001
  0.95160500000E+005,  0.97664391544E+006,  0.16500000000E+002,  0.00000000000E+000,  0.10000000000E+001
  0.95162500000E+005,  0.97664391534E+006,  0.16500000000E+002,  0.00000000000E+000,  0.10000000000E+001
  0.95164500000E+005,  0.97664391523E+006,  0.16500000000E+002,  0.00000000000E+000,  0.10000000000E+001
  0.95166500000E+005,  0.97664391513E+006,  0.16500000000E+002,  0.00000000000E+000,  0.10000000000E+001
  0.95168500000E+005,  0.97664391502E+006,  0.16500000000E+002,  0.00000000000E+000,  0.10000000000E+001
  0.95170500000E+005,  0.97664391492E+006,  0.16500000000E+002,  0.00000000000E+000,  0.10000000000E+001
  0.95172500000E+005,  0.97664391481E+006,  0.16500000000E+002,  0.00000000000E+000,  0.10000000000E+001
  0.95174500000E+005,  0.97664391471E+006,  0.16500000000E+002,  0.00000000000E+000,  0.10000000000E+001
  0.95176500000E+005,  0.97664391460E+006,  0.16500000000E+002,  0.00000000000E+000,  0.10000000000E+001
  0.95178500000E+005,  0.97664391450E+006,  0.16500000000E+002,  0.00000000000E+000,  0.10000000000E+001
  0.95180500000E+005,  0.97664391439E+006,  0.16500000000E+002,  0.00000000000E+000,  0.10000000000E+001
  0.95182500000E+005,  0.97664391429E+006,  0.16500000000E+002,  0.00000000000E+000,  0.10000000000E+001
  0.95184500000E+005,  0.97664391418E+006,  0.16500000000E+002,  0.00000000000E+000,  0.10000000000E+001
  0.95186500000E+005,  0.97664391408E+006,  0.16500000000E+002,  0.00000000000E+000,  0.10000000000E+001
  0.95188500000E+005,  0.97664391397E+006,  0.16500000000E+002,  0.00000000000E+000,  0.10000000000E+001
  0.95190500000E+005,  0.97664391387E+006,  0.16500000000E+002,  0.00000000000E+000,  0.10000000000E+001
  0.95192500000E+005,  0.97664391376E+006,  0.16500000000E+002,  0.00000000000E+000,  0.10000000000E+001
  0.95194500000E+005,  0.97664391366E+006,  0.16500000000E+002,  0.00000000000E+000,  0.10000000000E+001
  0.95196500000E+005,  0.97664391355E+006,  0.16500000000E+002,  0.00000000000E+000,  0.10000000000E+001
  0.95198500000E+005,  0.97664391345E+006,  0.16500000000E+002,  0.00000000000E+000,  0.10000000000E+001
  0.95200500000E+005,  0.97664391334E+006,  0.16500000000E+002,  0.00000000000E+000,  0.10000000000E+001
  0.95202500000E+005,  0.97664391324E+006,  0.16500000000E+002,  0.00000000000E+000,  0.10000000000E+001
  0.95204500000E+005,  0.97664391313E+006,  0.16500000000E+002,  0.00000000000E+000,  0.10000000000E+001
  0.95206500000E+005,  0.97664391303E+006,  0.16500000000E+002,  0.00000000000E+000,  0.10000000000E+001
  0.95208500000E+005,  0.97664391292E+006,  0.16500000000E+002,  0.00000000000E+000,  0.10000000000E+001
  0.95210500000E+005,  0.97664391282E+006,  0.16500000000E+002,  0.00000000000E+000,  0.10000000000E+001
  0.95212500000E+005,  0.97664391271E+006,  0.16500000000E+002,  0.00000000000E+000,  0.10000000000E+001
  0.95214500000E+005,  0.97664391260E+006,  0.16500000000E+002,  0.00000000000E+000,  0.10000000000E+001
  0.95216500000E+005,  0.97664391250E+006,  0.16500000000E+002,  0.00000000000E+000,  0.10000000000E+001
  0.95218500000E+005,  0.97664391239E+006,  0.16500000000E+002,  0.00000000000E+000,  0.10000000000E+001
  0.95220500000E+005,  0.97664391229E+006,  0.16500000000E+002,  0.00000000000E+000,  0.10000000000E+001
  0.95222500000E+005,  0.97664391218E+006,  0.16500000000E+002,  0.00000000000E+000,  0.10000000000E+001
  0.95224500000E+005,  0.97664391208E+006,  0.16500000000E+002,  0.00000000000E+000,  0.10000000000E+001
  0.95226500000E+005,  0.97664391197E+006,  0.16500000000E+002,  0.00000000000E+000,  0.10000000000E+001
  0.95228500000E+005,  0.97664391187E+006,  0.16500000000E+002,  0.00000000000E+000,  0.10000000000E+001
  0.95230500000E+005,  0.97664391176E+006,  0.16500000000E+002,  0.00000000000E+000,  0.10000000000E+001
  0.95232500000E+005,  0.97664391166E+006,  0.16500000000E+002,  0.00000000000E+000,  0.10000000000E+001
  0.95234500000E+005,  0.97664391155E+006,  0.16500000000E+002,  0.00000000000E+000,  0.10000000000E+001
  0.95236500000E+005,  0.97664391145E+006,  0.16500000000E+002,  0.00000000000E+000,  0.10000000000E+001
  0.95238500000E+005,  0.97664391134E+006,  0.16500000000E+002,  0.00000000000E+000,  0.10000000000E+001
  0.95240500000E+005,  0.97664391124E+006,  0.16500000000E+002,  0.00000000000E+000,  0.10000000000E+001
  0.95242500000E+005,  0.97664391113E+006,  0.16500000000E+002,  0.00000000000E+000,  0.10000000000E+001
  0.95244500000E+005,  0.97664391103E+006,  0.16500000000E+002,  0.00000000000E+000,  0.10000000000E+001
  0.95246500000E+005,  0.97664391092E+006,  0.16500000000E+002,  0.00000000000E+000,  0.10000000000E+001
  0.95248500000E+005,  0.97664391082E+006,  0.16500000000E+002,  0.00000000000E+000,  0.10000000000E+001
  0.95250500000E+005,  0.97664391071E+006,  0.16500000000E+002,  0.00000000000E+000,  0.10000000000E+001
  0.95252500000E+005,  0.97664391061E+006,  0.16500000000E+002,  0.00000000000E+000,  0.10000000000E+001
  0.95254500000E+005,  0.97664391050E+006,  0.16500000000E+002,  0.00000000000E+000,  0.10000000000E+001
