"           TIME(S)","              PRES","              TEMP","             SAT_G","             SAT_L"
  0.94878500000E+005,  0.22659502741E+006,  0.16500000000E+002,  0.00000000000E+000,  0.10000000000E+001
  0.94880500000E+005,  0.22659502731E+006,  0.16500000000E+002,  0.00000000000E+000,  0.10000000000E+001
  0.94882500000E+005,  0.22659502721E+006,  0.16500000000E+002,  0.00000000000E+000,  0.10000000000E+001
  0.94884500000E+005,  0.22659502711E+006,  0.16500000000E+002,  0.00000000000E+000,  0.10000000000E+001
  0.94886500000E+005,  0.22659502701E+006,  0.16500000000E+002,  0.00000000000E+000,  0.10000000000E+001
  0.94888500000E+005,  0.22659502691E+006,  0.16500000000E+002,  0.00000000000E+000,  0.10000000000E+001
  0.94890500000E+005,  0.22659502681E+006,  0.16500000000E+002,  0.00000000000E+000,  0.10000000000E+001
  0.94892500000E+005,  0.22659502671E+006,  0.16500000000E+002,  0.00000000000E+000,  0.10000000000E+001
  0.94894500000E+005,  0.22659502662E+006,  0.16500000000E+002,  0.00000000000E+000,  0.10000000000E+001
  0.94896500000E+005,  0.22659502652E+006,  0.16500000000E+002,  0.00000000000E+000,  0.10000000000E+001
  0.94898500000E+005,  0.22659502643E+006,  0.16500000000E+002,  0.00000000000E+000,  0.10000000000E+001
  0.94900500000E+005,  0.22659502634E+006,  0.16500000000E+002,  0.00000000000E+000,  0.10000000000E+001
  0.94902500000E+005,  0.22659502625E+006,  0.16500000000E+002,  0.00000000000E+000,  0.10000000000E+001
  0.94904500000E+005,  0.22659502617E+006,  0.16500000000E+002,  0.00000000000E+000,  0.10000000000E+001
  0.94906500000E+005,  0.22659502609E+006,  0.16500000000E+002,  0.00000000000E+000,  0.10000000000E+001
  0.94908500000E+005,  0.22659502602E+006,  0.16500000000E+002,  0.00000000000E+000,  0.10000000000E+001
  0.94910500000E+005,  0.22659502596E+006,  0.16500000000E+002,  0.00000000000E+000,  0.10000000000E+001
  0.94912500000E+005,  0.22659502593E+006,  0.16500000000E+002,  0.00000000000E+000,  0.10000000000E+001
  0.94914500000E+005,  0.22659502593E+006,  0.16500000000E+002,  0.00000000000E+000,  0.10000000000E+001
  0.94916500000E+005,  0.22659502597E+006,  0.16500000000E+002,  0.00000000000E+000,  0.10000000000E+001
  0.94918500000E+005,  0.22659502607E+006,  0.16500000000E+002,  0.00000000000E+000,  0.10000000000E+001
  0.94920500000E+005,  0.22659502626E+006,  0.16500000000E+002,  0.00000000000E+000,  0.10000000000E+001
  0.94922500000E+005,  0.22659502655E+006,  0.16500000000E+002,  0.00000000000E+000,  0.10000000000E+001
  0.94924500000E+005,  0.22659502699E+006,  0.16500000000E+002,  0.00000000000E+000,  0.10000000000E+001
  0.94926500000E+005,  0.22659502761E+006,  0.16500000000E+002,  0.00000000000E+000,  0.10000000000E+001
  0.94928500000E+005,  0.22659502845E+006,  0.16500000000E+002,  0.00000000000E+000,  0.10000000000E+001
  0.94930500000E+005,  0.22659502958E+006,  0.16500000000E+002,  0.00000000000E+000,  0.10000000000E+001
  0.94932500000E+005,  0.22659503104E+006,  0.16500000000E+002,  0.00000000000E+000,  0.10000000000E+001
  0.94934500000E+005,  0.22659503293E+006,  0.16500000000E+002,  0.00000000000E+000,  0.10000000000E+001
  0.94936500000E+005,  0.22659503531E+006,  0.16500000000E+002,  0.00000000000E+000,  0.10000000000E+001
  0.94938500000E+005,  0.22659503827E+006,  0.16500000000E+002,  0.00000000000E+000,  0.10000000000E+001
  0.94940500000E+005,  0.22659504192E+006,  0.16500000000E+002,  0.00000000000E+000,  0.10000000000E+001
  0.94942500000E+005,  0.22659504637E+006,  0.16500000000E+002,  0.00000000000E+000,  0.10000000000E+001
  0.94944500000E+005,  0.22659505173E+006,  0.16500000000E+002,  0.00000000000E+000,  0.10000000000E+001
  0.94946500000E+005,  0.22659505814E+006,  0.16500000000E+002,  0.00000000000E+000,  0.10000000000E+001
  0.94948500000E+005,  0.22659506575E+006,  0.16500000000E+002,  0.00000000000E+000,  0.10000000000E+001
  0.94950500000E+005,  0.22659507470E+006,  0.16500000000E+002,  0.00000000000E+000,  0.10000000000E+001
  0.94952500000E+005,  0.22659508517E+006,  0.16500000000E+002,  0.00000000000E+000,  0.10000000000E+001
  0.94954500000E+005,  0.22659509733E+006,  0.16500000000E+002,  0.00000000000E+000,  0.10000000000E+001
  0.94956500000E+005,  0.22659511138E+006,  0.16500000000E+002,  0.00000000000E+000,  0.10000000000E+001
  0.94958500000E+005,  0.22659512752E+006,  0.16500000000E+002,  0.00000000000E+000,  0.10000000000E+001
  0.94960500000E+005,  0.22659514599E+006,  0.16500000000E+002,  0.00000000000E+000,  0.10000000000E+001
  0.94962500000E+005,  0.22659516703E+006,  0.16500000000E+002,  0.00000000000E+000,  0.10000000000E+001
  0.94964500000E+005,  0.22659519089E+006,  0.16500000000E+002,  0.00000000000E+000,  0.10000000000E+001
  0.94966500000E+005,  0.22659521785E+006,  0.16500000000E+002,  0.00000000000E+000,  0.10000000000E+001
  0.94968500000E+005,  0.22659524824E+006,  0.16500000000E+002,  0.00000000000E+000,  0.10000000000E+001
  0.94970500000E+005,  0.22659528237E+006,  0.16500000000E+002,  0.00000000000E+000,  0.10000000000E+001
  0.94972500000E+005,  0.22659532061E+006,  0.16500000000E+002,  0.00000000000E+000,  0.10000000000E+001
  0.94974500000E+005,  0.22659536335E+006,  0.16500000000E+002,  0.00000000000E+000,  0.10000000000E+001
  0.94976500000E+005,  0.22659541099E+006,  0.16500000000E+002,  0.00000000000E+000,  0.10000000000E+001
  0.94978500000E+005,  0.22659546400E+006,  0.16500000000E+002,  0.00000000000E+000,  0.10000000000E+001
  0.94980500000E+005,  0.22659552285E+006,  0.16500000000E+002,  0.00000000000E+000,  0.10000000000E+001
  0.94982500000E+005,  0.22659558807E+006,  0.16500000000E+002,  0.00000000000E+000,  0.10000000000E+001
  0.94984500000E+005,  0.22659566022E+006,  0.16500000000E+002,  0.00000000000E+000,  0.10000000000E+001
  0.94986500000E+005,  0.22659573989E+006,  0.16500000000E+002,  0.00000000000E+000,  0.10000000000E+001
  0.94988500000E+005,  0.22659582771E+006,  0.16500000000E+002,  0.00000000000E+000,  0.10000000000E+001
  0.94990500000E+005,  0.22659592435E+006,  0.16500000000E+002,  0.00000000000E+000,  0.10000000000E+001
  0.94992500000E+005,  0.22659603054E+006,  0.16500000000E+002,  0.00000000000E+000,  0.10000000000E+001
  0.94994500000E+005,  0.22659614702E+006,  0.16500000000E+002,  0.00000000000E+000,  0.10000000000E+001
  0.94996500000E+005,  0.22659627457E+006,  0.16500000000E+002,  0.00000000000E+000,  0.10000000000E+001
  0.94998500000E+005,  0.22659641403E+006,  0.16500000000E+002,  0.00000000000E+000,  0.10000000000E+001
  0.95000500000E+005,  0.22659656625E+006,  0.16500000000E+002,  0.00000000000E+000,  0.10000000000E+001
  0.95002500000E+005,  0.22659673214E+006,  0.16500000000E+002,  0.00000000000E+000,  0.10000000000E+001
  0.95004500000E+005,  0.22659691263E+006,  0.16500000000E+002,  0.00000000000E+000,  0.10000000000E+001
  0.95006500000E+005,  0.22659710868E+006,  0.16500000000E+002,  0.00000000000E+000,  0.10000000000E+001
  0.95008500000E+005,  0.22659732129E+006,  0.16500000000E+002,  0.00000000000E+000,  0.10000000000E+001
  0.95010500000E+005,  0.22659755150E+006,  0.16500000000E+002,  0.00000000000E+000,  0.10000000000E+001
  0.95012500000E+005,  0.22659780035E+006,  0.16500000000E+002,  0.00000000000E+000,  0.10000000000E+001
  0.95014500000E+005,  0.22659806893E+006,  0.16500000000E+002,  0.00000000000E+000,  0.10000000000E+001
  0.95016500000E+005,  0.22659835834E+006,  0.16500000000E+002,  0.00000000000E+000,  0.10000000000E+001
  0.95018500000E+005,  0.22659866971E+006,  0.16500000000E+002,  0.00000000000E+000,  0.10000000000E+001
  0.95020500000E+005,  0.22659900419E+006,  0.16500000000E+002,  0.00000000000E+000,  0.10000000000E+001
  0.95022500000E+005,  0.22659936295E+006,  0.16500000000E+002,  0.00000000000E+000,  0.10000000000E+001
  0.95024500000E+005,  0.22659974717E+006,  0.16500000000E+002,  0.00000000000E+000,  0.10000000000E+001
  0.95026500000E+005,  0.22660015805E+006,  0.16500000000E+002,  0.00000000000E+000,  0.10000000000E+001
  0.95028500000E+005,  0.22660059680E+006,  0.16500000000E+002,  0.00000000000E+000,  0.10000000000E+001
  0.95030500000E+005,  0.22660106464E+006,  0.16500000000E+002,  0.00000000000E+000,  0.10000000000E+001
  0.95032500000E+005,  0.22660156281E+006,  0.16500000000E+002,  0.00000000000E+000,  0.10000000000E+001
  0.95034500000E+005,  0.22660209255E+006,  0.16500000000E+002,  0.00000000000E+000,  0.10000000000E+001
  0.95036500000E+005,  0.22660265509E+006,  0.16500000000E+002,  0.00000000000E+000,  0.10000000000E+001
  0.95038500000E+005,  0.22660325170E+006,  0.16500000000E+002,  0.00000000000E+000,  0.10000000000E+001
  0.95040500000E+005,  0.22660388362E+006,  0.16500000000E+002,  0.00000000000E+000,  0.10000000000E+001
  0.95042500000E+005,  0.22660455211E+006,  0.16500000000E+002,  0.00000000000E+000,  0.10000000000E+001
  0.95044500000E+005,  0.22660525843E+006,  0.16500000000E+002,  0.00000000000E+000,  0.10000000000E+001
  0.95046500000E+005,  0.22660600382E+006,  0.16500000000E+002,  0.00000000000E+000,  0.10000000000E+001
  0.95048500000E+005,  0.22660678955E+006,  0.16500000000E+002,  0.00000000000E+000,  0.10000000000E+001
  0.95050500000E+005,  0.22660761685E+006,  0.16500000000E+002,  0.00000000000E+000,  0.10000000000E+001
  0.95052500000E+005,  0.22660848697E+006,  0.16500000000E+002,  0.00000000000E+000,  0.10000000000E+001
  0.95054500000E+005,  0.22660940115E+006,  0.16500000000E+002,  0.00000000000E+000,  0.10000000000E+001
  0.95056500000E+005,  0.22661036062E+006,  0.16500000000E+002,  0.00000000000E+000,  0.10000000000E+001
  0.95058500000E+005,  0.22661136659E+006,  0.16500000000E+002,  0.00000000000E+000,  0.10000000000E+001
  0.95060500000E+005,  0.22661242029E+006,  0.16500000000E+002,  0.00000000000E+000,  0.10000000000E+001
  0.95062500000E+005,  0.22661352291E+006,  0.16500000000E+002,  0.00000000000E+000,  0.10000000000E+001
  0.95064500000E+005,  0.22661467566E+006,  0.16500000000E+002,  0.00000000000E+000,  0.10000000000E+001
  0.95066500000E+005,  0.22661587971E+006,  0.16500000000E+002,  0.00000000000E+000,  0.10000000000E+001
  0.95068500000E+005,  0.22661713623E+006,  0.16500000000E+002,  0.00000000000E+000,  0.10000000000E+001
  0.95070500000E+005,  0.22661844638E+006,  0.16500000000E+002,  0.00000000000E+000,  0.10000000000E+001
  0.95072500000E+005,  0.22661981131E+006,  0.16500000000E+002,  0.00000000000E+000,  0.10000000000E+001
  0.95074500000E+005,  0.22662123214E+006,  0.16500000000E+002,  0.00000000000E+000,  0.10000000000E+001
  0.95076500000E+005,  0.22662271000E+006,  0.16500000000E+002,  0.00000000000E+000,  0.10000000000E+001
  0.95078500000E+005,  0.22662424598E+006,  0.16500000000E+002,  0.00000000000E+000,  0.10000000000E+001
  0.95080500000E+005,  0.22662584117E+006,  0.16500000000E+002,  0.00000000000E+000,  0.10000000000E+001
  0.95082500000E+005,  0.22662749665E+006,  0.16500000000E+002,  0.00000000000E+000,  0.10000000000E+001
  0.95084500000E+005,  0.22662921346E+006,  0.16500000000E+002,  0.00000000000E+000,  0.10000000000E+001
  0.95086500000E+005,  0.22663099266E+006,  0.16500000000E+002,  0.00000000000E+000,  0.10000000000E+001
  0.95088500000E+005,  0.22663283525E+006,  0.16500000000E+002,  0.00000000000E+000,  0.10000000000E+001
  0.95090500000E+005,  0.22663474226E+006,  0.16500000000E+002,  0.00000000000E+000,  0.10000000000E+001
  0.95092500000E+005,  0.22663671466E+006,  0.16500000000E+002,  0.00000000000E+000,  0.10000000000E+001
  0.95094500000E+005,  0.22663875344E+006,  0.16500000000E+002,  0.00000000000E+000,  0.10000000000E+001
  0.95096500000E+005,  0.22664085956E+006,  0.16500000000E+002,  0.00000000000E+000,  0.10000000000E+001
  0.95098500000E+005,  0.22664303394E+006,  0.16500000000E+002,  0.00000000000E+000,  0.10000000000E+001
  0.95100500000E+005,  0.22664527753E+006,  0.16500000000E+002,  0.00000000000E+000,  0.10000000000E+001
  0.95102500000E+005,  0.22664759121E+006,  0.16500000000E+002,  0.00000000000E+000,  0.10000000000E+001
  0.95104500000E+005,  0.22664997589E+006,  0.16500000000E+002,  0.00000000000E+000,  0.10000000000E+001
  0.95106500000E+005,  0.22665243244E+006,  0.16500000000E+002,  0.00000000000E+000,  0.10000000000E+001
  0.95108500000E+005,  0.22665496171E+006,  0.16500000000E+002,  0.00000000000E+000,  0.10000000000E+001
  0.95110500000E+005,  0.22665756454E+006,  0.16500000000E+002,  0.00000000000E+000,  0.10000000000E+001
  0.95112500000E+005,  0.22666024176E+006,  0.16500000000E+002,  0.00000000000E+000,  0.10000000000E+001
  0.95114500000E+005,  0.22666299418E+006,  0.16500000000E+002,  0.00000000000E+000,  0.10000000000E+001
  0.95116500000E+005,  0.22666582258E+006,  0.16500000000E+002,  0.00000000000E+000,  0.10000000000E+001
  0.95118500000E+005,  0.22666872775E+006,  0.16500000000E+002,  0.00000000000E+000,  0.10000000000E+001
  0.95120500000E+005,  0.22667171043E+006,  0.16500000000E+002,  0.00000000000E+000,  0.10000000000E+001
  0.95122500000E+005,  0.22667477137E+006,  0.16500000000E+002,  0.00000000000E+000,  0.10000000000E+001
  0.95124500000E+005,  0.22667791130E+006,  0.16500000000E+002,  0.00000000000E+000,  0.10000000000E+001
  0.95126500000E+005,  0.22668113093E+006,  0.16500000000E+002,  0.00000000000E+000,  0.10000000000E+001
  0.95128500000E+005,  0.22668443095E+006,  0.16500000000E+002,  0.00000000000E+000,  0.10000000000E+001
  0.95130500000E+005,  0.22668781205E+006,  0.16500000000E+002,  0.00000000000E+000,  0.10000000000E+001
  0.95132500000E+005,  0.22669127490E+006,  0.16500000000E+002,  0.00000000000E+000,  0.10000000000E+001
  0.95134500000E+005,  0.22669482013E+006,  0.16500000000E+002,  0.00000000000E+000,  0.10000000000E+001
  0.95136500000E+005,  0.22669844840E+006,  0.16500000000E+002,  0.00000000000E+000,  0.10000000000E+001
  0.95138500000E+005,  0.22670216032E+006,  0.16500000000E+002,  0.00000000000E+000,  0.10000000000E+001
  0.95140500000E+005,  0.22670595650E+006,  0.16500000000E+002,  0.00000000000E+000,  0.10000000000E+001
  0.95142500000E+005,  0.22670983753E+006,  0.16500000000E+002,  0.00000000000E+000,  0.10000000000E+001
  0.95144500000E+005,  0.22671380400E+006,  0.16500000000E+002,  0.00000000000E+000,  0.10000000000E+001
  0.95146500000E+005,  0.22671785647E+006,  0.16500000000E+002,  0.00000000000E+000,  0.10000000000E+001
  0.95148500000E+005,  0.22672199549E+006,  0.16500000000E+002,  0.00000000000E+000,  0.10000000000E+001
  0.95150500000E+005,  0.22672622161E+006,  0.16500000000E+002,  0.00000000000E+000,  0.10000000000E+001
  0.95152500000E+005,  0.22673053534E+006,  0.16500000000E+002,  0.00000000000E+000,  0.10000000000E+001
  0.95154500000E+005,  0.22673493722E+006,  0.16500000000E+002,  0.00000000000E+000,  0.10000000000E+001
  0.95156500000E+005,  0.22673942772E+006,  0.16500000000E+002,  0.00000000000E+000,  0.10000000000E+001
  0.95158500000E+005,  0.22674400736E+006,  0.16500000000E+002,  0.00000000000E+000,  0.10000000000E+001
  0.95160500000E+005,  0.22674867660E+006,  0.16500000000E+002,  0.00000000000E+000,  0.10000000000E+001
  0.95162500000E+005,  0.22675343590E+006,  0.16500000000E+002,  0.00000000000E+000,  0.10000000000E+001
  0.95164500000E+005,  0.22675828573E+006,  0.16500000000E+002,  0.00000000000E+000,  0.10000000000E+001
  0.95166500000E+005,  0.22676322652E+006,  0.16500000000E+002,  0.00000000000E+000,  0.10000000000E+001
  0.95168500000E+005,  0.22676825870E+006,  0.16500000000E+002,  0.00000000000E+000,  0.10000000000E+001
  0.95170500000E+005,  0.22677338270E+006,  0.16500000000E+002,  0.00000000000E+000,  0.10000000000E+001
  0.95172500000E+005,  0.22677859892E+006,  0.16500000000E+002,  0.00000000000E+000,  0.10000000000E+001
  0.95174500000E+005,  0.22678390776E+006,  0.16500000000E+002,  0.00000000000E+000,  0.10000000000E+001
  0.95176500000E+005,  0.22678930960E+006,  0.16500000000E+002,  0.00000000000E+000,  0.10000000000E+001
  0.95178500000E+005,  0.22679480483E+006,  0.16500000000E+002,  0.00000000000E+000,  0.10000000000E+001
  0.95180500000E+005,  0.22680039381E+006,  0.16500000000E+002,  0.00000000000E+000,  0.10000000000E+001
  0.95182500000E+005,  0.22680607689E+006,  0.16500000000E+002,  0.00000000000E+000,  0.10000000000E+001
  0.95184500000E+005,  0.22681185443E+006,  0.16500000000E+002,  0.00000000000E+000,  0.10000000000E+001
  0.95186500000E+005,  0.22681772675E+006,  0.16500000000E+002,  0.00000000000E+000,  0.10000000000E+001
  0.95188500000E+005,  0.22682369419E+006,  0.16500000000E+002,  0.00000000000E+000,  0.10000000000E+001
  0.95190500000E+005,  0.22682975707E+006,  0.16500000000E+002,  0.00000000000E+000,  0.10000000000E+001
  0.95192500000E+005,  0.22683591569E+006,  0.16500000000E+002,  0.00000000000E+000,  0.10000000000E+001
  0.95194500000E+005,  0.22684217036E+006,  0.16500000000E+002,  0.00000000000E+000,  0.10000000000E+001
  0.95196500000E+005,  0.22684852135E+006,  0.16500000000E+002,  0.00000000000E+000,  0.10000000000E+001
  0.95198500000E+005,  0.22685496897E+006,  0.16500000000E+002,  0.00000000000E+000,  0.10000000000E+001
  0.95200500000E+005,  0.22686151348E+006,  0.16500000000E+002,  0.00000000000E+000,  0.10000000000E+001
  0.95202500000E+005,  0.22686815514E+006,  0.16500000000E+002,  0.00000000000E+000,  0.10000000000E+001
  0.95204500000E+005,  0.22687489422E+006,  0.16500000000E+002,  0.00000000000E+000,  0.10000000000E+001
  0.95206500000E+005,  0.22688173097E+006,  0.16500000000E+002,  0.00000000000E+000,  0.10000000000E+001
  0.95208500000E+005,  0.22688866562E+006,  0.16500000000E+002,  0.00000000000E+000,  0.10000000000E+001
  0.95210500000E+005,  0.22689569840E+006,  0.16500000000E+002,  0.00000000000E+000,  0.10000000000E+001
  0.95212500000E+005,  0.22690282956E+006,  0.16500000000E+002,  0.00000000000E+000,  0.10000000000E+001
  0.95214500000E+005,  0.22691005930E+006,  0.16500000000E+002,  0.00000000000E+000,  0.10000000000E+001
  0.95216500000E+005,  0.22691738783E+006,  0.16500000000E+002,  0.00000000000E+000,  0.10000000000E+001
  0.95218500000E+005,  0.22692481537E+006,  0.16500000000E+002,  0.00000000000E+000,  0.10000000000E+001
  0.95220500000E+005,  0.22693234211E+006,  0.16500000000E+002,  0.00000000000E+000,  0.10000000000E+001
  0.95222500000E+005,  0.22693996823E+006,  0.16500000000E+002,  0.00000000000E+000,  0.10000000000E+001
  0.95224500000E+005,  0.22694769393E+006,  0.16500000000E+002,  0.00000000000E+000,  0.10000000000E+001
  0.95226500000E+005,  0.22695551937E+006,  0.16500000000E+002,  0.00000000000E+000,  0.10000000000E+001
  0.95228500000E+005,  0.22696344474E+006,  0.16500000000E+002,  0.00000000000E+000,  0.10000000000E+001
  0.95230500000E+005,  0.22697147019E+006,  0.16500000000E+002,  0.00000000000E+000,  0.10000000000E+001
  0.95232500000E+005,  0.22697959588E+006,  0.16500000000E+002,  0.00000000000E+000,  0.10000000000E+001
  0.95234500000E+005,  0.22698782197E+006,  0.16500000000E+002,  0.00000000000E+000,  0.10000000000E+001
  0.95236500000E+005,  0.22699614860E+006,  0.16500000000E+002,  0.00000000000E+000,  0.10000000000E+001
  0.95238500000E+005,  0.22700457591E+006,  0.16500000000E+002,  0.00000000000E+000,  0.10000000000E+001
  0.95240500000E+005,  0.22701310404E+006,  0.16500000000E+002,  0.00000000000E+000,  0.10000000000E+001
  0.95242500000E+005,  0.22702173311E+006,  0.16500000000E+002,  0.00000000000E+000,  0.10000000000E+001
  0.95244500000E+005,  0.22703046325E+006,  0.16500000000E+002,  0.00000000000E+000,  0.10000000000E+001
  0.95246500000E+005,  0.22703929457E+006,  0.16500000000E+002,  0.00000000000E+000,  0.10000000000E+001
  0.95248500000E+005,  0.22704822719E+006,  0.16500000000E+002,  0.00000000000E+000,  0.10000000000E+001
  0.95250500000E+005,  0.22705726122E+006,  0.16500000000E+002,  0.00000000000E+000,  0.10000000000E+001
  0.95252500000E+005,  0.22706639675E+006,  0.16500000000E+002,  0.00000000000E+000,  0.10000000000E+001
  0.95254500000E+005,  0.22707563388E+006,  0.16500000000E+002,  0.00000000000E+000,  0.10000000000E+001
