"           TIME(S)","              PRES","              TEMP","             SAT_G","             SAT_L"
  0.32471000000E+005,  0.65509476255E+007,  0.16500000000E+002,  0.00000000000E+000,  0.10000000000E+001
  0.32476000000E+005,  0.34424277559E+007,  0.16500000000E+002,  0.00000000000E+000,  0.10000000000E+001
  0.32501000000E+005,  0.33366779375E+007,  0.16500000000E+002,  0.00000000000E+000,  0.10000000000E+001
  0.32561000000E+005,  0.12212622580E+008,  0.16500000000E+002,  0.00000000000E+000,  0.10000000000E+001
  0.32621000000E+005,  0.22178995358E+008,  0.16500000000E+002,  0.00000000000E+000,  0.10000000000E+001
  0.32681000000E+005,  0.26856222462E+008,  0.16500000000E+002,  0.00000000000E+000,  0.10000000000E+001
  0.32741000000E+005,  0.29988701132E+008,  0.16500000000E+002,  0.00000000000E+000,  0.10000000000E+001
  0.32801000000E+005,  0.32359780233E+008,  0.16500000000E+002,  0.00000000000E+000,  0.10000000000E+001
  0.32861000000E+005,  0.34262857488E+008,  0.16500000000E+002,  0.00000000000E+000,  0.10000000000E+001
  0.32921000000E+005,  0.35848687995E+008,  0.16500000000E+002,  0.00000000000E+000,  0.10000000000E+001
  0.32981000000E+005,  0.37204591653E+008,  0.16500000000E+002,  0.00000000000E+000,  0.10000000000E+001
  0.33041000000E+005,  0.38385847185E+008,  0.16500000000E+002,  0.00000000000E+000,  0.10000000000E+001
  0.33101000000E+005,  0.39429824646E+008,  0.16500000000E+002,  0.00000000000E+000,  0.10000000000E+001
  0.33161000000E+005,  0.40363069670E+008,  0.16500000000E+002,  0.00000000000E+000,  0.10000000000E+001
  0.33221000000E+005,  0.41205170897E+008,  0.16500000000E+002,  0.00000000000E+000,  0.10000000000E+001
  0.33281000000E+005,  0.41971021302E+008,  0.16500000000E+002,  0.00000000000E+000,  0.10000000000E+001
  0.33341000000E+005,  0.42672217187E+008,  0.16500000000E+002,  0.00000000000E+000,  0.10000000000E+001
  0.33401000000E+005,  0.43317965261E+008,  0.16500000000E+002,  0.00000000000E+000,  0.10000000000E+001
  0.33461000000E+005,  0.43915694287E+008,  0.16500000000E+002,  0.00000000000E+000,  0.10000000000E+001
  0.33521000000E+005,  0.44471481258E+008,  0.16500000000E+002,  0.00000000000E+000,  0.10000000000E+001
  0.33581000000E+005,  0.44990356620E+008,  0.16500000000E+002,  0.00000000000E+000,  0.10000000000E+001
  0.33641000000E+005,  0.45476527987E+008,  0.16500000000E+002,  0.00000000000E+000,  0.10000000000E+001
  0.33701000000E+005,  0.45933547356E+008,  0.16500000000E+002,  0.00000000000E+000,  0.10000000000E+001
  0.33761000000E+005,  0.46364438211E+008,  0.16500000000E+002,  0.00000000000E+000,  0.10000000000E+001
  0.33821000000E+005,  0.46771793397E+008,  0.16500000000E+002,  0.00000000000E+000,  0.10000000000E+001
  0.33881000000E+005,  0.47157852332E+008,  0.16500000000E+002,  0.00000000000E+000,  0.10000000000E+001
  0.33941000000E+005,  0.47524560184E+008,  0.16500000000E+002,  0.00000000000E+000,  0.10000000000E+001
  0.34001000000E+005,  0.47873617724E+008,  0.16500000000E+002,  0.00000000000E+000,  0.10000000000E+001
  0.34061000000E+005,  0.48206518689E+008,  0.16500000000E+002,  0.00000000000E+000,  0.10000000000E+001
  0.34121000000E+005,  0.48524582201E+008,  0.16500000000E+002,  0.00000000000E+000,  0.10000000000E+001
  0.34181000000E+005,  0.48828978608E+008,  0.16500000000E+002,  0.00000000000E+000,  0.10000000000E+001
  0.34241000000E+005,  0.49120750265E+008,  0.16500000000E+002,  0.00000000000E+000,  0.10000000000E+001
  0.34301000000E+005,  0.49400829455E+008,  0.16500000000E+002,  0.00000000000E+000,  0.10000000000E+001
  0.34361000000E+005,  0.49670053087E+008,  0.16500000000E+002,  0.00000000000E+000,  0.10000000000E+001
  0.34421000000E+005,  0.49929175049E+008,  0.16500000000E+002,  0.00000000000E+000,  0.10000000000E+001
  0.34481000000E+005,  0.50178876663E+008,  0.16500000000E+002,  0.00000000000E+000,  0.10000000000E+001
  0.34541000000E+005,  0.50419775506E+008,  0.16500000000E+002,  0.00000000000E+000,  0.10000000000E+001
  0.34601000000E+005,  0.50652433017E+008,  0.16500000000E+002,  0.00000000000E+000,  0.10000000000E+001
  0.34661000000E+005,  0.50877360955E+008,  0.16500000000E+002,  0.00000000000E+000,  0.10000000000E+001
  0.34721000000E+005,  0.51095026968E+008,  0.16500000000E+002,  0.00000000000E+000,  0.10000000000E+001
  0.34781000000E+005,  0.51305859426E+008,  0.16500000000E+002,  0.00000000000E+000,  0.10000000000E+001
  0.34841000000E+005,  0.51510251597E+008,  0.16500000000E+002,  0.00000000000E+000,  0.10000000000E+001
  0.34901000000E+005,  0.51708565299E+008,  0.16500000000E+002,  0.00000000000E+000,  0.10000000000E+001
  0.34961000000E+005,  0.51901134082E+008,  0.16500000000E+002,  0.00000000000E+000,  0.10000000000E+001
  0.35021000000E+005,  0.52088266018E+008,  0.16500000000E+002,  0.00000000000E+000,  0.10000000000E+001
  0.35081000000E+005,  0.52270246274E+008,  0.16500000000E+002,  0.00000000000E+000,  0.10000000000E+001
  0.35141000000E+005,  0.52447339053E+008,  0.16500000000E+002,  0.00000000000E+000,  0.10000000000E+001
  0.35201000000E+005,  0.52619789653E+008,  0.16500000000E+002,  0.00000000000E+000,  0.10000000000E+001
  0.35261000000E+005,  0.52787826229E+008,  0.16500000000E+002,  0.00000000000E+000,  0.10000000000E+001
  0.35321000000E+005,  0.52951661315E+008,  0.16500000000E+002,  0.00000000000E+000,  0.10000000000E+001
  0.35381000000E+005,  0.53111493088E+008,  0.16500000000E+002,  0.00000000000E+000,  0.10000000000E+001
  0.35441000000E+005,  0.53267506667E+008,  0.16500000000E+002,  0.00000000000E+000,  0.10000000000E+001
  0.35501000000E+005,  0.53419875113E+008,  0.16500000000E+002,  0.00000000000E+000,  0.10000000000E+001
  0.35561000000E+005,  0.53568760517E+008,  0.16500000000E+002,  0.00000000000E+000,  0.10000000000E+001
  0.35621000000E+005,  0.53714314950E+008,  0.16500000000E+002,  0.00000000000E+000,  0.10000000000E+001
  0.35681000000E+005,  0.53856681022E+008,  0.16500000000E+002,  0.00000000000E+000,  0.10000000000E+001
  0.35741000000E+005,  0.53995992796E+008,  0.16500000000E+002,  0.00000000000E+000,  0.10000000000E+001
  0.35801000000E+005,  0.54132376381E+008,  0.16500000000E+002,  0.00000000000E+000,  0.10000000000E+001
  0.35861000000E+005,  0.54265950540E+008,  0.16500000000E+002,  0.00000000000E+000,  0.10000000000E+001
  0.35921000000E+005,  0.54396827232E+008,  0.16500000000E+002,  0.00000000000E+000,  0.10000000000E+001
  0.35981000000E+005,  0.54525112093E+008,  0.16500000000E+002,  0.00000000000E+000,  0.10000000000E+001
  0.36041000000E+005,  0.54422812917E+008,  0.16500000000E+002,  0.00000000000E+000,  0.10000000000E+001
  0.36101000000E+005,  0.54348644906E+008,  0.16500000000E+002,  0.00000000000E+000,  0.10000000000E+001
  0.36161000000E+005,  0.54371344215E+008,  0.16500000000E+002,  0.00000000000E+000,  0.10000000000E+001
  0.36221000000E+005,  0.54423896883E+008,  0.16500000000E+002,  0.00000000000E+000,  0.10000000000E+001
  0.36281000000E+005,  0.54490519685E+008,  0.16500000000E+002,  0.00000000000E+000,  0.10000000000E+001
  0.36341000000E+005,  0.54564964349E+008,  0.16500000000E+002,  0.00000000000E+000,  0.10000000000E+001
  0.36401000000E+005,  0.54644145292E+008,  0.16500000000E+002,  0.00000000000E+000,  0.10000000000E+001
  0.36461000000E+005,  0.54726266346E+008,  0.16500000000E+002,  0.00000000000E+000,  0.10000000000E+001
  0.36521000000E+005,  0.54810217391E+008,  0.16500000000E+002,  0.00000000000E+000,  0.10000000000E+001
  0.36581000000E+005,  0.54895269050E+008,  0.16500000000E+002,  0.00000000000E+000,  0.10000000000E+001
  0.36641000000E+005,  0.54980919674E+008,  0.16500000000E+002,  0.00000000000E+000,  0.10000000000E+001
  0.36701000000E+005,  0.55066812176E+008,  0.16500000000E+002,  0.00000000000E+000,  0.10000000000E+001
  0.36761000000E+005,  0.55152686082E+008,  0.16500000000E+002,  0.00000000000E+000,  0.10000000000E+001
  0.36821000000E+005,  0.55238347966E+008,  0.16500000000E+002,  0.00000000000E+000,  0.10000000000E+001
  0.36881000000E+005,  0.55323652411E+008,  0.16500000000E+002,  0.00000000000E+000,  0.10000000000E+001
  0.36941000000E+005,  0.55408489251E+008,  0.16500000000E+002,  0.00000000000E+000,  0.10000000000E+001
  0.37001000000E+005,  0.55492774712E+008,  0.16500000000E+002,  0.00000000000E+000,  0.10000000000E+001
  0.37061000000E+005,  0.55576445138E+008,  0.16500000000E+002,  0.00000000000E+000,  0.10000000000E+001
  0.37121000000E+005,  0.55659452379E+008,  0.16500000000E+002,  0.00000000000E+000,  0.10000000000E+001
  0.37181000000E+005,  0.55741760378E+008,  0.16500000000E+002,  0.00000000000E+000,  0.10000000000E+001
  0.37241000000E+005,  0.55823342589E+008,  0.16500000000E+002,  0.00000000000E+000,  0.10000000000E+001
  0.37301000000E+005,  0.55904180022E+008,  0.16500000000E+002,  0.00000000000E+000,  0.10000000000E+001
  0.37361000000E+005,  0.55984259685E+008,  0.16500000000E+002,  0.00000000000E+000,  0.10000000000E+001
  0.37421000000E+005,  0.56063573410E+008,  0.16500000000E+002,  0.00000000000E+000,  0.10000000000E+001
  0.37481000000E+005,  0.56060680082E+008,  0.16500000000E+002,  0.00000000000E+000,  0.10000000000E+001
  0.37541000000E+005,  0.56517818978E+008,  0.16500000000E+002,  0.00000000000E+000,  0.10000000000E+001
  0.37601000000E+005,  0.56740619540E+008,  0.16500000000E+002,  0.00000000000E+000,  0.10000000000E+001
  0.37661000000E+005,  0.56904075192E+008,  0.16500000000E+002,  0.00000000000E+000,  0.10000000000E+001
  0.37721000000E+005,  0.57041305461E+008,  0.16500000000E+002,  0.00000000000E+000,  0.10000000000E+001
  0.37781000000E+005,  0.57163646370E+008,  0.16500000000E+002,  0.00000000000E+000,  0.10000000000E+001
  0.37841000000E+005,  0.57276255443E+008,  0.16500000000E+002,  0.00000000000E+000,  0.10000000000E+001
  0.37901000000E+005,  0.57381900435E+008,  0.16500000000E+002,  0.00000000000E+000,  0.10000000000E+001
  0.37961000000E+005,  0.57482239315E+008,  0.16500000000E+002,  0.00000000000E+000,  0.10000000000E+001
  0.38021000000E+005,  0.57578347614E+008,  0.16500000000E+002,  0.00000000000E+000,  0.10000000000E+001
  0.38081000000E+005,  0.57670966399E+008,  0.16500000000E+002,  0.00000000000E+000,  0.10000000000E+001
  0.38141000000E+005,  0.57760630721E+008,  0.16500000000E+002,  0.00000000000E+000,  0.10000000000E+001
  0.38201000000E+005,  0.57847741380E+008,  0.16500000000E+002,  0.00000000000E+000,  0.10000000000E+001
  0.38261000000E+005,  0.57932607625E+008,  0.16500000000E+002,  0.00000000000E+000,  0.10000000000E+001
  0.38321000000E+005,  0.58015473841E+008,  0.16500000000E+002,  0.00000000000E+000,  0.10000000000E+001
  0.38381000000E+005,  0.58096537078E+008,  0.16500000000E+002,  0.00000000000E+000,  0.10000000000E+001
  0.38441000000E+005,  0.58175958934E+008,  0.16500000000E+002,  0.00000000000E+000,  0.10000000000E+001
  0.38501000000E+005,  0.58253873891E+008,  0.16500000000E+002,  0.00000000000E+000,  0.10000000000E+001
  0.38561000000E+005,  0.58330395308E+008,  0.16500000000E+002,  0.00000000000E+000,  0.10000000000E+001
  0.38621000000E+005,  0.58405619821E+008,  0.16500000000E+002,  0.00000000000E+000,  0.10000000000E+001
  0.38681000000E+005,  0.58479630666E+008,  0.16500000000E+002,  0.00000000000E+000,  0.10000000000E+001
  0.38741000000E+005,  0.58552500207E+008,  0.16500000000E+002,  0.00000000000E+000,  0.10000000000E+001
  0.38801000000E+005,  0.58624291893E+008,  0.16500000000E+002,  0.00000000000E+000,  0.10000000000E+001
  0.38861000000E+005,  0.58695061790E+008,  0.16500000000E+002,  0.00000000000E+000,  0.10000000000E+001
  0.38921000000E+005,  0.58764859797E+008,  0.16500000000E+002,  0.00000000000E+000,  0.10000000000E+001
  0.38981000000E+005,  0.58833730618E+008,  0.16500000000E+002,  0.00000000000E+000,  0.10000000000E+001
  0.39041000000E+005,  0.58901714548E+008,  0.16500000000E+002,  0.00000000000E+000,  0.10000000000E+001
  0.39101000000E+005,  0.58968848115E+008,  0.16500000000E+002,  0.00000000000E+000,  0.10000000000E+001
  0.39161000000E+005,  0.59035164605E+008,  0.16500000000E+002,  0.00000000000E+000,  0.10000000000E+001
  0.39221000000E+005,  0.59100694484E+008,  0.16500000000E+002,  0.00000000000E+000,  0.10000000000E+001
  0.39281000000E+005,  0.59165465777E+008,  0.16500000000E+002,  0.00000000000E+000,  0.10000000000E+001
  0.39341000000E+005,  0.59229504366E+008,  0.16500000000E+002,  0.00000000000E+000,  0.10000000000E+001
  0.39401000000E+005,  0.59292834243E+008,  0.16500000000E+002,  0.00000000000E+000,  0.10000000000E+001
  0.39461000000E+005,  0.59355477719E+008,  0.16500000000E+002,  0.00000000000E+000,  0.10000000000E+001
  0.39521000000E+005,  0.59417455620E+008,  0.16500000000E+002,  0.00000000000E+000,  0.10000000000E+001
  0.39581000000E+005,  0.59478787444E+008,  0.16500000000E+002,  0.00000000000E+000,  0.10000000000E+001
  0.39641000000E+005,  0.59539491492E+008,  0.16500000000E+002,  0.00000000000E+000,  0.10000000000E+001
  0.39701000000E+005,  0.59599584984E+008,  0.16500000000E+002,  0.00000000000E+000,  0.10000000000E+001
  0.39761000000E+005,  0.59659084168E+008,  0.16500000000E+002,  0.00000000000E+000,  0.10000000000E+001
  0.39821000000E+005,  0.59718004407E+008,  0.16500000000E+002,  0.00000000000E+000,  0.10000000000E+001
  0.39881000000E+005,  0.59776360256E+008,  0.16500000000E+002,  0.00000000000E+000,  0.10000000000E+001
  0.39941000000E+005,  0.59834165534E+008,  0.16500000000E+002,  0.00000000000E+000,  0.10000000000E+001
  0.40001000000E+005,  0.59891433382E+008,  0.16500000000E+002,  0.00000000000E+000,  0.10000000000E+001
  0.40061000000E+005,  0.59948176316E+008,  0.16500000000E+002,  0.00000000000E+000,  0.10000000000E+001
  0.40121000000E+005,  0.60004406282E+008,  0.16500000000E+002,  0.00000000000E+000,  0.10000000000E+001
  0.40181000000E+005,  0.60060134692E+008,  0.16500000000E+002,  0.00000000000E+000,  0.10000000000E+001
  0.40241000000E+005,  0.60115372465E+008,  0.16500000000E+002,  0.00000000000E+000,  0.10000000000E+001
  0.40301000000E+005,  0.60170130063E+008,  0.16500000000E+002,  0.00000000000E+000,  0.10000000000E+001
  0.40361000000E+005,  0.60224417522E+008,  0.16500000000E+002,  0.00000000000E+000,  0.10000000000E+001
  0.40421000000E+005,  0.60278244479E+008,  0.16500000000E+002,  0.00000000000E+000,  0.10000000000E+001
  0.40481000000E+005,  0.60331620197E+008,  0.16500000000E+002,  0.00000000000E+000,  0.10000000000E+001
  0.40541000000E+005,  0.60384553593E+008,  0.16500000000E+002,  0.00000000000E+000,  0.10000000000E+001
  0.40601000000E+005,  0.60437053254E+008,  0.16500000000E+002,  0.00000000000E+000,  0.10000000000E+001
  0.40661000000E+005,  0.60489127459E+008,  0.16500000000E+002,  0.00000000000E+000,  0.10000000000E+001
  0.40721000000E+005,  0.60540784197E+008,  0.16500000000E+002,  0.00000000000E+000,  0.10000000000E+001
  0.40781000000E+005,  0.60592031182E+008,  0.16500000000E+002,  0.00000000000E+000,  0.10000000000E+001
  0.40841000000E+005,  0.60642875870E+008,  0.16500000000E+002,  0.00000000000E+000,  0.10000000000E+001
  0.40901000000E+005,  0.60693325471E+008,  0.16500000000E+002,  0.00000000000E+000,  0.10000000000E+001
  0.40961000000E+005,  0.60743386963E+008,  0.16500000000E+002,  0.00000000000E+000,  0.10000000000E+001
  0.41021000000E+005,  0.60793067105E+008,  0.16500000000E+002,  0.00000000000E+000,  0.10000000000E+001
  0.41081000000E+005,  0.60842372443E+008,  0.16500000000E+002,  0.00000000000E+000,  0.10000000000E+001
  0.41141000000E+005,  0.60891309329E+008,  0.16500000000E+002,  0.00000000000E+000,  0.10000000000E+001
  0.41201000000E+005,  0.60939883920E+008,  0.16500000000E+002,  0.00000000000E+000,  0.10000000000E+001
  0.41261000000E+005,  0.60988102197E+008,  0.16500000000E+002,  0.00000000000E+000,  0.10000000000E+001
  0.41321000000E+005,  0.61035969963E+008,  0.16500000000E+002,  0.00000000000E+000,  0.10000000000E+001
  0.41381000000E+005,  0.61083492863E+008,  0.16500000000E+002,  0.00000000000E+000,  0.10000000000E+001
  0.41441000000E+005,  0.61130676380E+008,  0.16500000000E+002,  0.00000000000E+000,  0.10000000000E+001
  0.41501000000E+005,  0.61177525848E+008,  0.16500000000E+002,  0.00000000000E+000,  0.10000000000E+001
  0.41561000000E+005,  0.61224046457E+008,  0.16500000000E+002,  0.00000000000E+000,  0.10000000000E+001
  0.41621000000E+005,  0.61270243256E+008,  0.16500000000E+002,  0.00000000000E+000,  0.10000000000E+001
  0.41681000000E+005,  0.61316121164E+008,  0.16500000000E+002,  0.00000000000E+000,  0.10000000000E+001
  0.41741000000E+005,  0.61361684972E+008,  0.16500000000E+002,  0.00000000000E+000,  0.10000000000E+001
  0.41801000000E+005,  0.61406939350E+008,  0.16500000000E+002,  0.00000000000E+000,  0.10000000000E+001
  0.41861000000E+005,  0.61451888844E+008,  0.16500000000E+002,  0.00000000000E+000,  0.10000000000E+001
  0.41921000000E+005,  0.61496537898E+008,  0.16500000000E+002,  0.00000000000E+000,  0.10000000000E+001
  0.41981000000E+005,  0.61540890839E+008,  0.16500000000E+002,  0.00000000000E+000,  0.10000000000E+001
  0.42041000000E+005,  0.61454143254E+008,  0.16500000000E+002,  0.00000000000E+000,  0.10000000000E+001
  0.42101000000E+005,  0.61384471854E+008,  0.16500000000E+002,  0.00000000000E+000,  0.10000000000E+001
  0.42161000000E+005,  0.61371580458E+008,  0.16500000000E+002,  0.00000000000E+000,  0.10000000000E+001
  0.42221000000E+005,  0.61376879428E+008,  0.16500000000E+002,  0.00000000000E+000,  0.10000000000E+001
  0.42281000000E+005,  0.61391154878E+008,  0.16500000000E+002,  0.00000000000E+000,  0.10000000000E+001
  0.42341000000E+005,  0.61410811995E+008,  0.16500000000E+002,  0.00000000000E+000,  0.10000000000E+001
  0.42401000000E+005,  0.61433973552E+008,  0.16500000000E+002,  0.00000000000E+000,  0.10000000000E+001
  0.42461000000E+005,  0.61459635396E+008,  0.16500000000E+002,  0.00000000000E+000,  0.10000000000E+001
  0.42521000000E+005,  0.61487142862E+008,  0.16500000000E+002,  0.00000000000E+000,  0.10000000000E+001
  0.42581000000E+005,  0.61516052546E+008,  0.16500000000E+002,  0.00000000000E+000,  0.10000000000E+001
  0.42641000000E+005,  0.61546047750E+008,  0.16500000000E+002,  0.00000000000E+000,  0.10000000000E+001
  0.42701000000E+005,  0.61576892735E+008,  0.16500000000E+002,  0.00000000000E+000,  0.10000000000E+001
  0.42761000000E+005,  0.61608421491E+008,  0.16500000000E+002,  0.00000000000E+000,  0.10000000000E+001
  0.42821000000E+005,  0.61640483041E+008,  0.16500000000E+002,  0.00000000000E+000,  0.10000000000E+001
  0.42881000000E+005,  0.61672976837E+008,  0.16500000000E+002,  0.00000000000E+000,  0.10000000000E+001
  0.42941000000E+005,  0.61705821432E+008,  0.16500000000E+002,  0.00000000000E+000,  0.10000000000E+001
  0.43001000000E+005,  0.61738936663E+008,  0.16500000000E+002,  0.00000000000E+000,  0.10000000000E+001
  0.43061000000E+005,  0.61772269833E+008,  0.16500000000E+002,  0.00000000000E+000,  0.10000000000E+001
  0.43121000000E+005,  0.61805775147E+008,  0.16500000000E+002,  0.00000000000E+000,  0.10000000000E+001
  0.43181000000E+005,  0.61839411175E+008,  0.16500000000E+002,  0.00000000000E+000,  0.10000000000E+001
  0.43241000000E+005,  0.61873142977E+008,  0.16500000000E+002,  0.00000000000E+000,  0.10000000000E+001
  0.43301000000E+005,  0.61906941139E+008,  0.16500000000E+002,  0.00000000000E+000,  0.10000000000E+001
  0.43361000000E+005,  0.61940780704E+008,  0.16500000000E+002,  0.00000000000E+000,  0.10000000000E+001
  0.43421000000E+005,  0.61974640338E+008,  0.16500000000E+002,  0.00000000000E+000,  0.10000000000E+001
  0.43481000000E+005,  0.62008501701E+008,  0.16500000000E+002,  0.00000000000E+000,  0.10000000000E+001
  0.43541000000E+005,  0.62042348955E+008,  0.16500000000E+002,  0.00000000000E+000,  0.10000000000E+001
  0.43601000000E+005,  0.62076168365E+008,  0.16500000000E+002,  0.00000000000E+000,  0.10000000000E+001
  0.43661000000E+005,  0.62109947980E+008,  0.16500000000E+002,  0.00000000000E+000,  0.10000000000E+001
