"           TIME(S)","              PRES","              TEMP","             SAT_G","             SAT_L"
  0.94934000000E+005,  0.77036290470E+006,  0.16500000000E+002,  0.00000000000E+000,  0.10000000000E+001
  0.94939000000E+005,  0.77036291107E+006,  0.16500000000E+002,  0.00000000000E+000,  0.10000000000E+001
  0.94964000000E+005,  0.77036296365E+006,  0.16500000000E+002,  0.00000000000E+000,  0.10000000000E+001
  0.94994000000E+005,  0.77036302686E+006,  0.16500000000E+002,  0.00000000000E+000,  0.10000000000E+001
  0.95024000000E+005,  0.77036308450E+006,  0.16500000000E+002,  0.00000000000E+000,  0.10000000000E+001
  0.95054000000E+005,  0.77036314044E+006,  0.16500000000E+002,  0.00000000000E+000,  0.10000000000E+001
  0.95084000000E+005,  0.77036320689E+006,  0.16500000000E+002,  0.00000000000E+000,  0.10000000000E+001
  0.95114000000E+005,  0.77036330765E+006,  0.16500000000E+002,  0.00000000000E+000,  0.10000000000E+001
  0.95144000000E+005,  0.77036348322E+006,  0.16500000000E+002,  0.00000000000E+000,  0.10000000000E+001
  0.95174000000E+005,  0.77036379676E+006,  0.16500000000E+002,  0.00000000000E+000,  0.10000000000E+001
  0.95204000000E+005,  0.77036434035E+006,  0.16500000000E+002,  0.00000000000E+000,  0.10000000000E+001
  0.95234000000E+005,  0.77036524070E+006,  0.16500000000E+002,  0.00000000000E+000,  0.10000000000E+001
  0.95264000000E+005,  0.77036666400E+006,  0.16500000000E+002,  0.00000000000E+000,  0.10000000000E+001
  0.95294000000E+005,  0.77036881935E+006,  0.16500000000E+002,  0.00000000000E+000,  0.10000000000E+001
  0.95324000000E+005,  0.77037196049E+006,  0.16500000000E+002,  0.00000000000E+000,  0.10000000000E+001
  0.95354000000E+005,  0.77037638617E+006,  0.16500000000E+002,  0.00000000000E+000,  0.10000000000E+001
  0.95384000000E+005,  0.77038243899E+006,  0.16500000000E+002,  0.00000000000E+000,  0.10000000000E+001
  0.95414000000E+005,  0.77039050299E+006,  0.16500000000E+002,  0.00000000000E+000,  0.10000000000E+001
  0.95444000000E+005,  0.77040100031E+006,  0.16500000000E+002,  0.00000000000E+000,  0.10000000000E+001
  0.95474000000E+005,  0.77041438696E+006,  0.16500000000E+002,  0.00000000000E+000,  0.10000000000E+001
  0.95504000000E+005,  0.77043114809E+006,  0.16500000000E+002,  0.00000000000E+000,  0.10000000000E+001
  0.95534000000E+005,  0.77045179292E+006,  0.16500000000E+002,  0.00000000000E+000,  0.10000000000E+001
  0.95564000000E+005,  0.77047684943E+006,  0.16500000000E+002,  0.00000000000E+000,  0.10000000000E+001
  0.95594000000E+005,  0.77050685911E+006,  0.16500000000E+002,  0.00000000000E+000,  0.10000000000E+001
  0.95624000000E+005,  0.77054237174E+006,  0.16500000000E+002,  0.00000000000E+000,  0.10000000000E+001
  0.95654000000E+005,  0.77058394044E+006,  0.16500000000E+002,  0.00000000000E+000,  0.10000000000E+001
  0.95684000000E+005,  0.77063211700E+006,  0.16500000000E+002,  0.00000000000E+000,  0.10000000000E+001
  0.95714000000E+005,  0.77068744754E+006,  0.16500000000E+002,  0.00000000000E+000,  0.10000000000E+001
  0.95744000000E+005,  0.77075046854E+006,  0.16500000000E+002,  0.00000000000E+000,  0.10000000000E+001
  0.95774000000E+005,  0.77082170339E+006,  0.16500000000E+002,  0.00000000000E+000,  0.10000000000E+001
  0.95804000000E+005,  0.77090165918E+006,  0.16500000000E+002,  0.00000000000E+000,  0.10000000000E+001
  0.95834000000E+005,  0.77099082409E+006,  0.16500000000E+002,  0.00000000000E+000,  0.10000000000E+001
  0.95864000000E+005,  0.77108966507E+006,  0.16500000000E+002,  0.00000000000E+000,  0.10000000000E+001
  0.95894000000E+005,  0.77119862594E+006,  0.16500000000E+002,  0.00000000000E+000,  0.10000000000E+001
  0.95924000000E+005,  0.77131812594E+006,  0.16500000000E+002,  0.00000000000E+000,  0.10000000000E+001
  0.95954000000E+005,  0.77144855845E+006,  0.16500000000E+002,  0.00000000000E+000,  0.10000000000E+001
  0.95984000000E+005,  0.77159029024E+006,  0.16500000000E+002,  0.00000000000E+000,  0.10000000000E+001
  0.96014000000E+005,  0.77174366086E+006,  0.16500000000E+002,  0.00000000000E+000,  0.10000000000E+001
  0.96044000000E+005,  0.77190898233E+006,  0.16500000000E+002,  0.00000000000E+000,  0.10000000000E+001
  0.96074000000E+005,  0.77208653910E+006,  0.16500000000E+002,  0.00000000000E+000,  0.10000000000E+001
  0.96104000000E+005,  0.77227658817E+006,  0.16500000000E+002,  0.00000000000E+000,  0.10000000000E+001
  0.96134000000E+005,  0.77247935935E+006,  0.16500000000E+002,  0.00000000000E+000,  0.10000000000E+001
  0.96164000000E+005,  0.77269505571E+006,  0.16500000000E+002,  0.00000000000E+000,  0.10000000000E+001
  0.96194000000E+005,  0.77292385412E+006,  0.16500000000E+002,  0.00000000000E+000,  0.10000000000E+001
  0.96224000000E+005,  0.77316590590E+006,  0.16500000000E+002,  0.00000000000E+000,  0.10000000000E+001
  0.96254000000E+005,  0.77342133748E+006,  0.16500000000E+002,  0.00000000000E+000,  0.10000000000E+001
  0.96284000000E+005,  0.77369025126E+006,  0.16500000000E+002,  0.00000000000E+000,  0.10000000000E+001
  0.96314000000E+005,  0.77397272645E+006,  0.16500000000E+002,  0.00000000000E+000,  0.10000000000E+001
  0.96344000000E+005,  0.77426881994E+006,  0.16500000000E+002,  0.00000000000E+000,  0.10000000000E+001
  0.96374000000E+005,  0.77457856736E+006,  0.16500000000E+002,  0.00000000000E+000,  0.10000000000E+001
  0.96404000000E+005,  0.77490198399E+006,  0.16500000000E+002,  0.00000000000E+000,  0.10000000000E+001
  0.96434000000E+005,  0.77523906590E+006,  0.16500000000E+002,  0.00000000000E+000,  0.10000000000E+001
  0.96464000000E+005,  0.77558979092E+006,  0.16500000000E+002,  0.00000000000E+000,  0.10000000000E+001
  0.96494000000E+005,  0.77595411978E+006,  0.16500000000E+002,  0.00000000000E+000,  0.10000000000E+001
  0.96524000000E+005,  0.77633199717E+006,  0.16500000000E+002,  0.00000000000E+000,  0.10000000000E+001
  0.96554000000E+005,  0.77672335281E+006,  0.16500000000E+002,  0.00000000000E+000,  0.10000000000E+001
  0.96584000000E+005,  0.77712810249E+006,  0.16500000000E+002,  0.00000000000E+000,  0.10000000000E+001
  0.96614000000E+005,  0.77754614914E+006,  0.16500000000E+002,  0.00000000000E+000,  0.10000000000E+001
  0.96644000000E+005,  0.77797738381E+006,  0.16500000000E+002,  0.00000000000E+000,  0.10000000000E+001
  0.96674000000E+005,  0.77842168667E+006,  0.16500000000E+002,  0.00000000000E+000,  0.10000000000E+001
  0.96704000000E+005,  0.77887892793E+006,  0.16500000000E+002,  0.00000000000E+000,  0.10000000000E+001
  0.96734000000E+005,  0.77934896876E+006,  0.16500000000E+002,  0.00000000000E+000,  0.10000000000E+001
  0.96764000000E+005,  0.77983166214E+006,  0.16500000000E+002,  0.00000000000E+000,  0.10000000000E+001
  0.96794000000E+005,  0.78032685370E+006,  0.16500000000E+002,  0.00000000000E+000,  0.10000000000E+001
  0.96824000000E+005,  0.78083438248E+006,  0.16500000000E+002,  0.00000000000E+000,  0.10000000000E+001
  0.96854000000E+005,  0.78135408169E+006,  0.16500000000E+002,  0.00000000000E+000,  0.10000000000E+001
  0.96884000000E+005,  0.78188577935E+006,  0.16500000000E+002,  0.00000000000E+000,  0.10000000000E+001
  0.96914000000E+005,  0.78242929902E+006,  0.16500000000E+002,  0.00000000000E+000,  0.10000000000E+001
  0.96944000000E+005,  0.78298446034E+006,  0.16500000000E+002,  0.00000000000E+000,  0.10000000000E+001
  0.96974000000E+005,  0.78355107964E+006,  0.16500000000E+002,  0.00000000000E+000,  0.10000000000E+001
  0.97004000000E+005,  0.78412897046E+006,  0.16500000000E+002,  0.00000000000E+000,  0.10000000000E+001
  0.97034000000E+005,  0.78471794403E+006,  0.16500000000E+002,  0.00000000000E+000,  0.10000000000E+001
  0.97064000000E+005,  0.78531780977E+006,  0.16500000000E+002,  0.00000000000E+000,  0.10000000000E+001
  0.97094000000E+005,  0.78592837568E+006,  0.16500000000E+002,  0.00000000000E+000,  0.10000000000E+001
  0.97124000000E+005,  0.78654944872E+006,  0.16500000000E+002,  0.00000000000E+000,  0.10000000000E+001
  0.97154000000E+005,  0.78718083522E+006,  0.16500000000E+002,  0.00000000000E+000,  0.10000000000E+001
  0.97184000000E+005,  0.78782234118E+006,  0.16500000000E+002,  0.00000000000E+000,  0.10000000000E+001
  0.97214000000E+005,  0.78847377258E+006,  0.16500000000E+002,  0.00000000000E+000,  0.10000000000E+001
  0.97244000000E+005,  0.78913493568E+006,  0.16500000000E+002,  0.00000000000E+000,  0.10000000000E+001
  0.97274000000E+005,  0.78980563724E+006,  0.16500000000E+002,  0.00000000000E+000,  0.10000000000E+001
  0.97304000000E+005,  0.79048568479E+006,  0.16500000000E+002,  0.00000000000E+000,  0.10000000000E+001
  0.97334000000E+005,  0.79117488683E+006,  0.16500000000E+002,  0.00000000000E+000,  0.10000000000E+001
  0.97364000000E+005,  0.79187305300E+006,  0.16500000000E+002,  0.00000000000E+000,  0.10000000000E+001
  0.97394000000E+005,  0.79257999430E+006,  0.16500000000E+002,  0.00000000000E+000,  0.10000000000E+001
  0.97424000000E+005,  0.79329552321E+006,  0.16500000000E+002,  0.00000000000E+000,  0.10000000000E+001
  0.97454000000E+005,  0.79401945385E+006,  0.16500000000E+002,  0.00000000000E+000,  0.10000000000E+001
  0.97484000000E+005,  0.79475160211E+006,  0.16500000000E+002,  0.00000000000E+000,  0.10000000000E+001
  0.97514000000E+005,  0.79549178573E+006,  0.16500000000E+002,  0.00000000000E+000,  0.10000000000E+001
  0.97544000000E+005,  0.79623982446E+006,  0.16500000000E+002,  0.00000000000E+000,  0.10000000000E+001
  0.97574000000E+005,  0.79699554008E+006,  0.16500000000E+002,  0.00000000000E+000,  0.10000000000E+001
  0.97604000000E+005,  0.79775875653E+006,  0.16500000000E+002,  0.00000000000E+000,  0.10000000000E+001
  0.97634000000E+005,  0.79852929996E+006,  0.16500000000E+002,  0.00000000000E+000,  0.10000000000E+001
  0.97664000000E+005,  0.79930699877E+006,  0.16500000000E+002,  0.00000000000E+000,  0.10000000000E+001
  0.97694000000E+005,  0.80009168370E+006,  0.16500000000E+002,  0.00000000000E+000,  0.10000000000E+001
  0.97724000000E+005,  0.80088318782E+006,  0.16500000000E+002,  0.00000000000E+000,  0.10000000000E+001
  0.97754000000E+005,  0.80168134661E+006,  0.16500000000E+002,  0.00000000000E+000,  0.10000000000E+001
  0.97784000000E+005,  0.80248599797E+006,  0.16500000000E+002,  0.00000000000E+000,  0.10000000000E+001
  0.97814000000E+005,  0.80329698223E+006,  0.16500000000E+002,  0.00000000000E+000,  0.10000000000E+001
  0.97844000000E+005,  0.80411414219E+006,  0.16500000000E+002,  0.00000000000E+000,  0.10000000000E+001
  0.97874000000E+005,  0.80493732310E+006,  0.16500000000E+002,  0.00000000000E+000,  0.10000000000E+001
  0.97904000000E+005,  0.80576637270E+006,  0.16500000000E+002,  0.00000000000E+000,  0.10000000000E+001
  0.97934000000E+005,  0.80660114120E+006,  0.16500000000E+002,  0.00000000000E+000,  0.10000000000E+001
  0.97964000000E+005,  0.80744148127E+006,  0.16500000000E+002,  0.00000000000E+000,  0.10000000000E+001
  0.97994000000E+005,  0.80828724807E+006,  0.16500000000E+002,  0.00000000000E+000,  0.10000000000E+001
  0.98024000000E+005,  0.80913829920E+006,  0.16500000000E+002,  0.00000000000E+000,  0.10000000000E+001
  0.98054000000E+005,  0.80999449472E+006,  0.16500000000E+002,  0.00000000000E+000,  0.10000000000E+001
  0.98084000000E+005,  0.81085569710E+006,  0.16500000000E+002,  0.00000000000E+000,  0.10000000000E+001
  0.98114000000E+005,  0.81172177124E+006,  0.16500000000E+002,  0.00000000000E+000,  0.10000000000E+001
  0.98144000000E+005,  0.81259258445E+006,  0.16500000000E+002,  0.00000000000E+000,  0.10000000000E+001
  0.98174000000E+005,  0.81346800637E+006,  0.16500000000E+002,  0.00000000000E+000,  0.10000000000E+001
  0.98204000000E+005,  0.81434790904E+006,  0.16500000000E+002,  0.00000000000E+000,  0.10000000000E+001
  0.98234000000E+005,  0.81523216679E+006,  0.16500000000E+002,  0.00000000000E+000,  0.10000000000E+001
  0.98264000000E+005,  0.81612065628E+006,  0.16500000000E+002,  0.00000000000E+000,  0.10000000000E+001
  0.98294000000E+005,  0.81701325642E+006,  0.16500000000E+002,  0.00000000000E+000,  0.10000000000E+001
  0.98324000000E+005,  0.81790984839E+006,  0.16500000000E+002,  0.00000000000E+000,  0.10000000000E+001
  0.98354000000E+005,  0.81881031558E+006,  0.16500000000E+002,  0.00000000000E+000,  0.10000000000E+001
  0.98384000000E+005,  0.81971454356E+006,  0.16500000000E+002,  0.00000000000E+000,  0.10000000000E+001
  0.98414000000E+005,  0.82062242006E+006,  0.16500000000E+002,  0.00000000000E+000,  0.10000000000E+001
  0.98444000000E+005,  0.82153383495E+006,  0.16500000000E+002,  0.00000000000E+000,  0.10000000000E+001
  0.98474000000E+005,  0.82244868019E+006,  0.16500000000E+002,  0.00000000000E+000,  0.10000000000E+001
  0.98504000000E+005,  0.82336684981E+006,  0.16500000000E+002,  0.00000000000E+000,  0.10000000000E+001
  0.98534000000E+005,  0.82428823987E+006,  0.16500000000E+002,  0.00000000000E+000,  0.10000000000E+001
  0.98564000000E+005,  0.82521274842E+006,  0.16500000000E+002,  0.00000000000E+000,  0.10000000000E+001
  0.98594000000E+005,  0.82614027551E+006,  0.16500000000E+002,  0.00000000000E+000,  0.10000000000E+001
  0.98624000000E+005,  0.82707072310E+006,  0.16500000000E+002,  0.00000000000E+000,  0.10000000000E+001
  0.98654000000E+005,  0.82800399506E+006,  0.16500000000E+002,  0.00000000000E+000,  0.10000000000E+001
  0.98684000000E+005,  0.82893999715E+006,  0.16500000000E+002,  0.00000000000E+000,  0.10000000000E+001
  0.98714000000E+005,  0.82987863696E+006,  0.16500000000E+002,  0.00000000000E+000,  0.10000000000E+001
  0.98744000000E+005,  0.83081982389E+006,  0.16500000000E+002,  0.00000000000E+000,  0.10000000000E+001
  0.98774000000E+005,  0.83176346911E+006,  0.16500000000E+002,  0.00000000000E+000,  0.10000000000E+001
  0.98804000000E+005,  0.83270948557E+006,  0.16500000000E+002,  0.00000000000E+000,  0.10000000000E+001
  0.98834000000E+005,  0.83365778789E+006,  0.16500000000E+002,  0.00000000000E+000,  0.10000000000E+001
  0.98864000000E+005,  0.83460829240E+006,  0.16500000000E+002,  0.00000000000E+000,  0.10000000000E+001
  0.98894000000E+005,  0.83556091710E+006,  0.16500000000E+002,  0.00000000000E+000,  0.10000000000E+001
  0.98924000000E+005,  0.83651558158E+006,  0.16500000000E+002,  0.00000000000E+000,  0.10000000000E+001
  0.98954000000E+005,  0.83747220704E+006,  0.16500000000E+002,  0.00000000000E+000,  0.10000000000E+001
  0.98984000000E+005,  0.83843071624E+006,  0.16500000000E+002,  0.00000000000E+000,  0.10000000000E+001
  0.99014000000E+005,  0.83939103349E+006,  0.16500000000E+002,  0.00000000000E+000,  0.10000000000E+001
  0.99044000000E+005,  0.84035308459E+006,  0.16500000000E+002,  0.00000000000E+000,  0.10000000000E+001
  0.99074000000E+005,  0.84131679682E+006,  0.16500000000E+002,  0.00000000000E+000,  0.10000000000E+001
  0.99104000000E+005,  0.84228209891E+006,  0.16500000000E+002,  0.00000000000E+000,  0.10000000000E+001
  0.99134000000E+005,  0.84324892102E+006,  0.16500000000E+002,  0.00000000000E+000,  0.10000000000E+001
  0.99164000000E+005,  0.84421719470E+006,  0.16500000000E+002,  0.00000000000E+000,  0.10000000000E+001
  0.99194000000E+005,  0.84518685286E+006,  0.16500000000E+002,  0.00000000000E+000,  0.10000000000E+001
  0.99224000000E+005,  0.84615782977E+006,  0.16500000000E+002,  0.00000000000E+000,  0.10000000000E+001
  0.99254000000E+005,  0.84713006100E+006,  0.16500000000E+002,  0.00000000000E+000,  0.10000000000E+001
  0.99284000000E+005,  0.84810348341E+006,  0.16500000000E+002,  0.00000000000E+000,  0.10000000000E+001
  0.99314000000E+005,  0.84907803513E+006,  0.16500000000E+002,  0.00000000000E+000,  0.10000000000E+001
  0.99344000000E+005,  0.85005365553E+006,  0.16500000000E+002,  0.00000000000E+000,  0.10000000000E+001
  0.99374000000E+005,  0.85103028520E+006,  0.16500000000E+002,  0.00000000000E+000,  0.10000000000E+001
  0.99404000000E+005,  0.85200786591E+006,  0.16500000000E+002,  0.00000000000E+000,  0.10000000000E+001
  0.99434000000E+005,  0.85298634063E+006,  0.16500000000E+002,  0.00000000000E+000,  0.10000000000E+001
  0.99464000000E+005,  0.85396565343E+006,  0.16500000000E+002,  0.00000000000E+000,  0.10000000000E+001
  0.99494000000E+005,  0.85494574953E+006,  0.16500000000E+002,  0.00000000000E+000,  0.10000000000E+001
  0.99524000000E+005,  0.85592657526E+006,  0.16500000000E+002,  0.00000000000E+000,  0.10000000000E+001
  0.99554000000E+005,  0.85690807802E+006,  0.16500000000E+002,  0.00000000000E+000,  0.10000000000E+001
  0.99584000000E+005,  0.85789020625E+006,  0.16500000000E+002,  0.00000000000E+000,  0.10000000000E+001
  0.99614000000E+005,  0.85887290947E+006,  0.16500000000E+002,  0.00000000000E+000,  0.10000000000E+001
  0.99644000000E+005,  0.85985613817E+006,  0.16500000000E+002,  0.00000000000E+000,  0.10000000000E+001
  0.99674000000E+005,  0.86083984387E+006,  0.16500000000E+002,  0.00000000000E+000,  0.10000000000E+001
  0.99704000000E+005,  0.86182397905E+006,  0.16500000000E+002,  0.00000000000E+000,  0.10000000000E+001
  0.99734000000E+005,  0.86280849717E+006,  0.16500000000E+002,  0.00000000000E+000,  0.10000000000E+001
  0.99764000000E+005,  0.86379335260E+006,  0.16500000000E+002,  0.00000000000E+000,  0.10000000000E+001
  0.99794000000E+005,  0.86477850066E+006,  0.16500000000E+002,  0.00000000000E+000,  0.10000000000E+001
  0.99824000000E+005,  0.86576389756E+006,  0.16500000000E+002,  0.00000000000E+000,  0.10000000000E+001
  0.99854000000E+005,  0.86674950038E+006,  0.16500000000E+002,  0.00000000000E+000,  0.10000000000E+001
  0.99884000000E+005,  0.86773526707E+006,  0.16500000000E+002,  0.00000000000E+000,  0.10000000000E+001
  0.99914000000E+005,  0.86872115637E+006,  0.16500000000E+002,  0.00000000000E+000,  0.10000000000E+001
  0.99944000000E+005,  0.86970712772E+006,  0.16500000000E+002,  0.00000000000E+000,  0.10000000000E+001
  0.99974000000E+005,  0.87069314104E+006,  0.16500000000E+002,  0.00000000000E+000,  0.10000000000E+001
  0.10000400000E+006,  0.87167915649E+006,  0.16500000000E+002,  0.00000000000E+000,  0.10000000000E+001
  0.10003400000E+006,  0.87266513408E+006,  0.16500000000E+002,  0.00000000000E+000,  0.10000000000E+001
  0.10006400000E+006,  0.87365103330E+006,  0.16500000000E+002,  0.00000000000E+000,  0.10000000000E+001
  0.10009400000E+006,  0.87463681262E+006,  0.16500000000E+002,  0.00000000000E+000,  0.10000000000E+001
  0.10012400000E+006,  0.87562242914E+006,  0.16500000000E+002,  0.00000000000E+000,  0.10000000000E+001
  0.10015400000E+006,  0.87660783820E+006,  0.16500000000E+002,  0.00000000000E+000,  0.10000000000E+001
  0.10018400000E+006,  0.87759299307E+006,  0.16500000000E+002,  0.00000000000E+000,  0.10000000000E+001
  0.10021400000E+006,  0.87857784485E+006,  0.16500000000E+002,  0.00000000000E+000,  0.10000000000E+001
  0.10024400000E+006,  0.87956234232E+006,  0.16500000000E+002,  0.00000000000E+000,  0.10000000000E+001
  0.10027400000E+006,  0.88054643206E+006,  0.16500000000E+002,  0.00000000000E+000,  0.10000000000E+001
  0.10030400000E+006,  0.88153005848E+006,  0.16500000000E+002,  0.00000000000E+000,  0.10000000000E+001
  0.10033400000E+006,  0.88251316414E+006,  0.16500000000E+002,  0.00000000000E+000,  0.10000000000E+001
  0.10036400000E+006,  0.88349568991E+006,  0.16500000000E+002,  0.00000000000E+000,  0.10000000000E+001
  0.10039400000E+006,  0.88447757537E+006,  0.16500000000E+002,  0.00000000000E+000,  0.10000000000E+001
  0.10042400000E+006,  0.88545875910E+006,  0.16500000000E+002,  0.00000000000E+000,  0.10000000000E+001
  0.10045400000E+006,  0.88643917904E+006,  0.16500000000E+002,  0.00000000000E+000,  0.10000000000E+001
  0.10048400000E+006,  0.88741877287E+006,  0.16500000000E+002,  0.00000000000E+000,  0.10000000000E+001
  0.10051400000E+006,  0.88839747831E+006,  0.16500000000E+002,  0.00000000000E+000,  0.10000000000E+001
  0.10054400000E+006,  0.88937523347E+006,  0.16500000000E+002,  0.00000000000E+000,  0.10000000000E+001
