"           TIME(S)","              PRES","              TEMP","             SAT_G","             SAT_L"
  0.32471000000E+005,  0.11713957908E+006,  0.16500000000E+002,  0.00000000000E+000,  0.10000000000E+001
  0.32476000000E+005,  0.11713956916E+006,  0.16500000000E+002,  0.00000000000E+000,  0.10000000000E+001
  0.32501000000E+005,  0.11715648686E+006,  0.16500000000E+002,  0.00000000000E+000,  0.10000000000E+001
  0.32561000000E+005,  0.11786951826E+006,  0.16500000000E+002,  0.00000000000E+000,  0.10000000000E+001
  0.32621000000E+005,  0.11990108239E+006,  0.16500000000E+002,  0.00000000000E+000,  0.10000000000E+001
  0.32681000000E+005,  0.12348319687E+006,  0.16500000000E+002,  0.00000000000E+000,  0.10000000000E+001
  0.32741000000E+005,  0.12844977359E+006,  0.16500000000E+002,  0.00000000000E+000,  0.10000000000E+001
  0.32801000000E+005,  0.13445459407E+006,  0.16500000000E+002,  0.00000000000E+000,  0.10000000000E+001
  0.32861000000E+005,  0.14113783906E+006,  0.16500000000E+002,  0.00000000000E+000,  0.10000000000E+001
  0.32921000000E+005,  0.14819985333E+006,  0.16500000000E+002,  0.00000000000E+000,  0.10000000000E+001
  0.32981000000E+005,  0.15541665952E+006,  0.16500000000E+002,  0.00000000000E+000,  0.10000000000E+001
  0.33041000000E+005,  0.16263098740E+006,  0.16500000000E+002,  0.00000000000E+000,  0.10000000000E+001
  0.33101000000E+005,  0.16973708940E+006,  0.16500000000E+002,  0.00000000000E+000,  0.10000000000E+001
  0.33161000000E+005,  0.17666663228E+006,  0.16500000000E+002,  0.00000000000E+000,  0.10000000000E+001
  0.33221000000E+005,  0.18337762441E+006,  0.16500000000E+002,  0.00000000000E+000,  0.10000000000E+001
  0.33281000000E+005,  0.18984632080E+006,  0.16500000000E+002,  0.00000000000E+000,  0.10000000000E+001
  0.33341000000E+005,  0.19606148304E+006,  0.16500000000E+002,  0.00000000000E+000,  0.10000000000E+001
  0.33401000000E+005,  0.20202036106E+006,  0.16500000000E+002,  0.00000000000E+000,  0.10000000000E+001
  0.33461000000E+005,  0.20772588686E+006,  0.16500000000E+002,  0.00000000000E+000,  0.10000000000E+001
  0.33521000000E+005,  0.21318471453E+006,  0.16500000000E+002,  0.00000000000E+000,  0.10000000000E+001
  0.33581000000E+005,  0.21840584945E+006,  0.16500000000E+002,  0.00000000000E+000,  0.10000000000E+001
  0.33641000000E+005,  0.22339968938E+006,  0.16500000000E+002,  0.00000000000E+000,  0.10000000000E+001
  0.33701000000E+005,  0.22817735370E+006,  0.16500000000E+002,  0.00000000000E+000,  0.10000000000E+001
  0.33761000000E+005,  0.23275022063E+006,  0.16500000000E+002,  0.00000000000E+000,  0.10000000000E+001
  0.33821000000E+005,  0.23712960848E+006,  0.16500000000E+002,  0.00000000000E+000,  0.10000000000E+001
  0.33881000000E+005,  0.24132656295E+006,  0.16500000000E+002,  0.00000000000E+000,  0.10000000000E+001
  0.33941000000E+005,  0.24535171849E+006,  0.16500000000E+002,  0.00000000000E+000,  0.10000000000E+001
  0.34001000000E+005,  0.24921521325E+006,  0.16500000000E+002,  0.00000000000E+000,  0.10000000000E+001
  0.34061000000E+005,  0.25292664169E+006,  0.16500000000E+002,  0.00000000000E+000,  0.10000000000E+001
  0.34121000000E+005,  0.25649503410E+006,  0.16500000000E+002,  0.00000000000E+000,  0.10000000000E+001
  0.34181000000E+005,  0.25992885412E+006,  0.16500000000E+002,  0.00000000000E+000,  0.10000000000E+001
  0.34241000000E+005,  0.26323600934E+006,  0.16500000000E+002,  0.00000000000E+000,  0.10000000000E+001
  0.34301000000E+005,  0.26642387006E+006,  0.16500000000E+002,  0.00000000000E+000,  0.10000000000E+001
  0.34361000000E+005,  0.26949929366E+006,  0.16500000000E+002,  0.00000000000E+000,  0.10000000000E+001
  0.34421000000E+005,  0.27246865218E+006,  0.16500000000E+002,  0.00000000000E+000,  0.10000000000E+001
  0.34481000000E+005,  0.27533786158E+006,  0.16500000000E+002,  0.00000000000E+000,  0.10000000000E+001
  0.34541000000E+005,  0.27811241165E+006,  0.16500000000E+002,  0.00000000000E+000,  0.10000000000E+001
  0.34601000000E+005,  0.28079739564E+006,  0.16500000000E+002,  0.00000000000E+000,  0.10000000000E+001
  0.34661000000E+005,  0.28339753912E+006,  0.16500000000E+002,  0.00000000000E+000,  0.10000000000E+001
  0.34721000000E+005,  0.28591722763E+006,  0.16500000000E+002,  0.00000000000E+000,  0.10000000000E+001
  0.34781000000E+005,  0.28836053291E+006,  0.16500000000E+002,  0.00000000000E+000,  0.10000000000E+001
  0.34841000000E+005,  0.29073123760E+006,  0.16500000000E+002,  0.00000000000E+000,  0.10000000000E+001
  0.34901000000E+005,  0.29303285819E+006,  0.16500000000E+002,  0.00000000000E+000,  0.10000000000E+001
  0.34961000000E+005,  0.29526866647E+006,  0.16500000000E+002,  0.00000000000E+000,  0.10000000000E+001
  0.35021000000E+005,  0.29744170925E+006,  0.16500000000E+002,  0.00000000000E+000,  0.10000000000E+001
  0.35081000000E+005,  0.29955482658E+006,  0.16500000000E+002,  0.00000000000E+000,  0.10000000000E+001
  0.35141000000E+005,  0.30161066844E+006,  0.16500000000E+002,  0.00000000000E+000,  0.10000000000E+001
  0.35201000000E+005,  0.30361171017E+006,  0.16500000000E+002,  0.00000000000E+000,  0.10000000000E+001
  0.35261000000E+005,  0.30556026642E+006,  0.16500000000E+002,  0.00000000000E+000,  0.10000000000E+001
  0.35321000000E+005,  0.30745850409E+006,  0.16500000000E+002,  0.00000000000E+000,  0.10000000000E+001
  0.35381000000E+005,  0.30930845401E+006,  0.16500000000E+002,  0.00000000000E+000,  0.10000000000E+001
  0.35441000000E+005,  0.31111202171E+006,  0.16500000000E+002,  0.00000000000E+000,  0.10000000000E+001
  0.35501000000E+005,  0.31287099722E+006,  0.16500000000E+002,  0.00000000000E+000,  0.10000000000E+001
  0.35561000000E+005,  0.31458706402E+006,  0.16500000000E+002,  0.00000000000E+000,  0.10000000000E+001
  0.35621000000E+005,  0.31626180721E+006,  0.16500000000E+002,  0.00000000000E+000,  0.10000000000E+001
  0.35681000000E+005,  0.31789672100E+006,  0.16500000000E+002,  0.00000000000E+000,  0.10000000000E+001
  0.35741000000E+005,  0.31949321555E+006,  0.16500000000E+002,  0.00000000000E+000,  0.10000000000E+001
  0.35801000000E+005,  0.32105262319E+006,  0.16500000000E+002,  0.00000000000E+000,  0.10000000000E+001
  0.35861000000E+005,  0.32257620416E+006,  0.16500000000E+002,  0.00000000000E+000,  0.10000000000E+001
  0.35921000000E+005,  0.32406515183E+006,  0.16500000000E+002,  0.00000000000E+000,  0.10000000000E+001
  0.35981000000E+005,  0.32552059750E+006,  0.16500000000E+002,  0.00000000000E+000,  0.10000000000E+001
  0.36041000000E+005,  0.32693134786E+006,  0.16500000000E+002,  0.00000000000E+000,  0.10000000000E+001
  0.36101000000E+005,  0.32828300380E+006,  0.16500000000E+002,  0.00000000000E+000,  0.10000000000E+001
  0.36161000000E+005,  0.32957150384E+006,  0.16500000000E+002,  0.00000000000E+000,  0.10000000000E+001
  0.36221000000E+005,  0.33080161994E+006,  0.16500000000E+002,  0.00000000000E+000,  0.10000000000E+001
  0.36281000000E+005,  0.33198154039E+006,  0.16500000000E+002,  0.00000000000E+000,  0.10000000000E+001
  0.36341000000E+005,  0.33311946298E+006,  0.16500000000E+002,  0.00000000000E+000,  0.10000000000E+001
  0.36401000000E+005,  0.33422230062E+006,  0.16500000000E+002,  0.00000000000E+000,  0.10000000000E+001
  0.36461000000E+005,  0.33529537476E+006,  0.16500000000E+002,  0.00000000000E+000,  0.10000000000E+001
  0.36521000000E+005,  0.33634265501E+006,  0.16500000000E+002,  0.00000000000E+000,  0.10000000000E+001
  0.36581000000E+005,  0.33736706906E+006,  0.16500000000E+002,  0.00000000000E+000,  0.10000000000E+001
  0.36641000000E+005,  0.33837076908E+006,  0.16500000000E+002,  0.00000000000E+000,  0.10000000000E+001
  0.36701000000E+005,  0.33935533202E+006,  0.16500000000E+002,  0.00000000000E+000,  0.10000000000E+001
  0.36761000000E+005,  0.34032192198E+006,  0.16500000000E+002,  0.00000000000E+000,  0.10000000000E+001
  0.36821000000E+005,  0.34127140711E+006,  0.16500000000E+002,  0.00000000000E+000,  0.10000000000E+001
  0.36881000000E+005,  0.34220444878E+006,  0.16500000000E+002,  0.00000000000E+000,  0.10000000000E+001
  0.36941000000E+005,  0.34312156399E+006,  0.16500000000E+002,  0.00000000000E+000,  0.10000000000E+001
  0.37001000000E+005,  0.34402316710E+006,  0.16500000000E+002,  0.00000000000E+000,  0.10000000000E+001
  0.37061000000E+005,  0.34490959835E+006,  0.16500000000E+002,  0.00000000000E+000,  0.10000000000E+001
  0.37121000000E+005,  0.34578114468E+006,  0.16500000000E+002,  0.00000000000E+000,  0.10000000000E+001
  0.37181000000E+005,  0.34663805747E+006,  0.16500000000E+002,  0.00000000000E+000,  0.10000000000E+001
  0.37241000000E+005,  0.34748056459E+006,  0.16500000000E+002,  0.00000000000E+000,  0.10000000000E+001
  0.37301000000E+005,  0.34830887853E+006,  0.16500000000E+002,  0.00000000000E+000,  0.10000000000E+001
  0.37361000000E+005,  0.34912320194E+006,  0.16500000000E+002,  0.00000000000E+000,  0.10000000000E+001
  0.37421000000E+005,  0.34992373119E+006,  0.16500000000E+002,  0.00000000000E+000,  0.10000000000E+001
  0.37481000000E+005,  0.35070643126E+006,  0.16500000000E+002,  0.00000000000E+000,  0.10000000000E+001
  0.37541000000E+005,  0.35148935964E+006,  0.16500000000E+002,  0.00000000000E+000,  0.10000000000E+001
  0.37601000000E+005,  0.35228923188E+006,  0.16500000000E+002,  0.00000000000E+000,  0.10000000000E+001
  0.37661000000E+005,  0.35311047048E+006,  0.16500000000E+002,  0.00000000000E+000,  0.10000000000E+001
  0.37721000000E+005,  0.35394853726E+006,  0.16500000000E+002,  0.00000000000E+000,  0.10000000000E+001
  0.37781000000E+005,  0.35479562958E+006,  0.16500000000E+002,  0.00000000000E+000,  0.10000000000E+001
  0.37841000000E+005,  0.35564414697E+006,  0.16500000000E+002,  0.00000000000E+000,  0.10000000000E+001
  0.37901000000E+005,  0.35648799761E+006,  0.16500000000E+002,  0.00000000000E+000,  0.10000000000E+001
  0.37961000000E+005,  0.35732275953E+006,  0.16500000000E+002,  0.00000000000E+000,  0.10000000000E+001
  0.38021000000E+005,  0.35814541738E+006,  0.16500000000E+002,  0.00000000000E+000,  0.10000000000E+001
  0.38081000000E+005,  0.35895401904E+006,  0.16500000000E+002,  0.00000000000E+000,  0.10000000000E+001
  0.38141000000E+005,  0.35974737588E+006,  0.16500000000E+002,  0.00000000000E+000,  0.10000000000E+001
  0.38201000000E+005,  0.36052483358E+006,  0.16500000000E+002,  0.00000000000E+000,  0.10000000000E+001
  0.38261000000E+005,  0.36128610661E+006,  0.16500000000E+002,  0.00000000000E+000,  0.10000000000E+001
  0.38321000000E+005,  0.36203116140E+006,  0.16500000000E+002,  0.00000000000E+000,  0.10000000000E+001
  0.38381000000E+005,  0.36276013480E+006,  0.16500000000E+002,  0.00000000000E+000,  0.10000000000E+001
  0.38441000000E+005,  0.36347327696E+006,  0.16500000000E+002,  0.00000000000E+000,  0.10000000000E+001
  0.38501000000E+005,  0.36417091154E+006,  0.16500000000E+002,  0.00000000000E+000,  0.10000000000E+001
  0.38561000000E+005,  0.36485340770E+006,  0.16500000000E+002,  0.00000000000E+000,  0.10000000000E+001
  0.38621000000E+005,  0.36552116052E+006,  0.16500000000E+002,  0.00000000000E+000,  0.10000000000E+001
  0.38681000000E+005,  0.36617457726E+006,  0.16500000000E+002,  0.00000000000E+000,  0.10000000000E+001
  0.38741000000E+005,  0.36681406786E+006,  0.16500000000E+002,  0.00000000000E+000,  0.10000000000E+001
  0.38801000000E+005,  0.36744003837E+006,  0.16500000000E+002,  0.00000000000E+000,  0.10000000000E+001
  0.38861000000E+005,  0.36805288659E+006,  0.16500000000E+002,  0.00000000000E+000,  0.10000000000E+001
  0.38921000000E+005,  0.36865299915E+006,  0.16500000000E+002,  0.00000000000E+000,  0.10000000000E+001
  0.38981000000E+005,  0.36924074979E+006,  0.16500000000E+002,  0.00000000000E+000,  0.10000000000E+001
  0.39041000000E+005,  0.36981649836E+006,  0.16500000000E+002,  0.00000000000E+000,  0.10000000000E+001
  0.39101000000E+005,  0.37038059042E+006,  0.16500000000E+002,  0.00000000000E+000,  0.10000000000E+001
  0.39161000000E+005,  0.37093335721E+006,  0.16500000000E+002,  0.00000000000E+000,  0.10000000000E+001
  0.39221000000E+005,  0.37147511589E+006,  0.16500000000E+002,  0.00000000000E+000,  0.10000000000E+001
  0.39281000000E+005,  0.37200616992E+006,  0.16500000000E+002,  0.00000000000E+000,  0.10000000000E+001
  0.39341000000E+005,  0.37252680968E+006,  0.16500000000E+002,  0.00000000000E+000,  0.10000000000E+001
  0.39401000000E+005,  0.37303731298E+006,  0.16500000000E+002,  0.00000000000E+000,  0.10000000000E+001
  0.39461000000E+005,  0.37353794573E+006,  0.16500000000E+002,  0.00000000000E+000,  0.10000000000E+001
  0.39521000000E+005,  0.37402896259E+006,  0.16500000000E+002,  0.00000000000E+000,  0.10000000000E+001
  0.39581000000E+005,  0.37451060760E+006,  0.16500000000E+002,  0.00000000000E+000,  0.10000000000E+001
  0.39641000000E+005,  0.37498311481E+006,  0.16500000000E+002,  0.00000000000E+000,  0.10000000000E+001
  0.39701000000E+005,  0.37544670884E+006,  0.16500000000E+002,  0.00000000000E+000,  0.10000000000E+001
  0.39761000000E+005,  0.37590160546E+006,  0.16500000000E+002,  0.00000000000E+000,  0.10000000000E+001
  0.39821000000E+005,  0.37634801215E+006,  0.16500000000E+002,  0.00000000000E+000,  0.10000000000E+001
  0.39881000000E+005,  0.37678612856E+006,  0.16500000000E+002,  0.00000000000E+000,  0.10000000000E+001
  0.39941000000E+005,  0.37721614697E+006,  0.16500000000E+002,  0.00000000000E+000,  0.10000000000E+001
  0.40001000000E+005,  0.37763825276E+006,  0.16500000000E+002,  0.00000000000E+000,  0.10000000000E+001
  0.40061000000E+005,  0.37805262478E+006,  0.16500000000E+002,  0.00000000000E+000,  0.10000000000E+001
  0.40121000000E+005,  0.37845943574E+006,  0.16500000000E+002,  0.00000000000E+000,  0.10000000000E+001
  0.40181000000E+005,  0.37885885255E+006,  0.16500000000E+002,  0.00000000000E+000,  0.10000000000E+001
  0.40241000000E+005,  0.37925103663E+006,  0.16500000000E+002,  0.00000000000E+000,  0.10000000000E+001
  0.40301000000E+005,  0.37963614424E+006,  0.16500000000E+002,  0.00000000000E+000,  0.10000000000E+001
  0.40361000000E+005,  0.38001432673E+006,  0.16500000000E+002,  0.00000000000E+000,  0.10000000000E+001
  0.40421000000E+005,  0.38038573081E+006,  0.16500000000E+002,  0.00000000000E+000,  0.10000000000E+001
  0.40481000000E+005,  0.38075049875E+006,  0.16500000000E+002,  0.00000000000E+000,  0.10000000000E+001
  0.40541000000E+005,  0.38110876865E+006,  0.16500000000E+002,  0.00000000000E+000,  0.10000000000E+001
  0.40601000000E+005,  0.38146067461E+006,  0.16500000000E+002,  0.00000000000E+000,  0.10000000000E+001
  0.40661000000E+005,  0.38180634694E+006,  0.16500000000E+002,  0.00000000000E+000,  0.10000000000E+001
  0.40721000000E+005,  0.38214591229E+006,  0.16500000000E+002,  0.00000000000E+000,  0.10000000000E+001
  0.40781000000E+005,  0.38247949389E+006,  0.16500000000E+002,  0.00000000000E+000,  0.10000000000E+001
  0.40841000000E+005,  0.38280721163E+006,  0.16500000000E+002,  0.00000000000E+000,  0.10000000000E+001
  0.40901000000E+005,  0.38312918224E+006,  0.16500000000E+002,  0.00000000000E+000,  0.10000000000E+001
  0.40961000000E+005,  0.38344551941E+006,  0.16500000000E+002,  0.00000000000E+000,  0.10000000000E+001
  0.41021000000E+005,  0.38375633394E+006,  0.16500000000E+002,  0.00000000000E+000,  0.10000000000E+001
  0.41081000000E+005,  0.38406173379E+006,  0.16500000000E+002,  0.00000000000E+000,  0.10000000000E+001
  0.41141000000E+005,  0.38436182428E+006,  0.16500000000E+002,  0.00000000000E+000,  0.10000000000E+001
  0.41201000000E+005,  0.38465670813E+006,  0.16500000000E+002,  0.00000000000E+000,  0.10000000000E+001
  0.41261000000E+005,  0.38494648555E+006,  0.16500000000E+002,  0.00000000000E+000,  0.10000000000E+001
  0.41321000000E+005,  0.38523125439E+006,  0.16500000000E+002,  0.00000000000E+000,  0.10000000000E+001
  0.41381000000E+005,  0.38551111017E+006,  0.16500000000E+002,  0.00000000000E+000,  0.10000000000E+001
  0.41441000000E+005,  0.38578614617E+006,  0.16500000000E+002,  0.00000000000E+000,  0.10000000000E+001
  0.41501000000E+005,  0.38605645355E+006,  0.16500000000E+002,  0.00000000000E+000,  0.10000000000E+001
  0.41561000000E+005,  0.38632212134E+006,  0.16500000000E+002,  0.00000000000E+000,  0.10000000000E+001
  0.41621000000E+005,  0.38658323660E+006,  0.16500000000E+002,  0.00000000000E+000,  0.10000000000E+001
  0.41681000000E+005,  0.38683988440E+006,  0.16500000000E+002,  0.00000000000E+000,  0.10000000000E+001
  0.41741000000E+005,  0.38709214795E+006,  0.16500000000E+002,  0.00000000000E+000,  0.10000000000E+001
  0.41801000000E+005,  0.38734010861E+006,  0.16500000000E+002,  0.00000000000E+000,  0.10000000000E+001
  0.41861000000E+005,  0.38758384600E+006,  0.16500000000E+002,  0.00000000000E+000,  0.10000000000E+001
  0.41921000000E+005,  0.38782343798E+006,  0.16500000000E+002,  0.00000000000E+000,  0.10000000000E+001
  0.41981000000E+005,  0.38805896076E+006,  0.16500000000E+002,  0.00000000000E+000,  0.10000000000E+001
  0.42041000000E+005,  0.38828265912E+006,  0.16500000000E+002,  0.00000000000E+000,  0.10000000000E+001
  0.42101000000E+005,  0.38848381304E+006,  0.16500000000E+002,  0.00000000000E+000,  0.10000000000E+001
  0.42161000000E+005,  0.38865998243E+006,  0.16500000000E+002,  0.00000000000E+000,  0.10000000000E+001
  0.42221000000E+005,  0.38881559101E+006,  0.16500000000E+002,  0.00000000000E+000,  0.10000000000E+001
  0.42281000000E+005,  0.38895651850E+006,  0.16500000000E+002,  0.00000000000E+000,  0.10000000000E+001
  0.42341000000E+005,  0.38908752434E+006,  0.16500000000E+002,  0.00000000000E+000,  0.10000000000E+001
  0.42401000000E+005,  0.38921198980E+006,  0.16500000000E+002,  0.00000000000E+000,  0.10000000000E+001
  0.42461000000E+005,  0.38933212786E+006,  0.16500000000E+002,  0.00000000000E+000,  0.10000000000E+001
  0.42521000000E+005,  0.38944948026E+006,  0.16500000000E+002,  0.00000000000E+000,  0.10000000000E+001
  0.42581000000E+005,  0.38956508224E+006,  0.16500000000E+002,  0.00000000000E+000,  0.10000000000E+001
  0.42641000000E+005,  0.38967953257E+006,  0.16500000000E+002,  0.00000000000E+000,  0.10000000000E+001
  0.42701000000E+005,  0.38979328455E+006,  0.16500000000E+002,  0.00000000000E+000,  0.10000000000E+001
  0.42761000000E+005,  0.38990664877E+006,  0.16500000000E+002,  0.00000000000E+000,  0.10000000000E+001
  0.42821000000E+005,  0.39001978232E+006,  0.16500000000E+002,  0.00000000000E+000,  0.10000000000E+001
  0.42881000000E+005,  0.39013273346E+006,  0.16500000000E+002,  0.00000000000E+000,  0.10000000000E+001
  0.42941000000E+005,  0.39024549477E+006,  0.16500000000E+002,  0.00000000000E+000,  0.10000000000E+001
  0.43001000000E+005,  0.39035802333E+006,  0.16500000000E+002,  0.00000000000E+000,  0.10000000000E+001
  0.43061000000E+005,  0.39047025646E+006,  0.16500000000E+002,  0.00000000000E+000,  0.10000000000E+001
  0.43121000000E+005,  0.39058212141E+006,  0.16500000000E+002,  0.00000000000E+000,  0.10000000000E+001
  0.43181000000E+005,  0.39069353912E+006,  0.16500000000E+002,  0.00000000000E+000,  0.10000000000E+001
  0.43241000000E+005,  0.39080445214E+006,  0.16500000000E+002,  0.00000000000E+000,  0.10000000000E+001
  0.43301000000E+005,  0.39091478964E+006,  0.16500000000E+002,  0.00000000000E+000,  0.10000000000E+001
  0.43361000000E+005,  0.39102450026E+006,  0.16500000000E+002,  0.00000000000E+000,  0.10000000000E+001
  0.43421000000E+005,  0.39113354498E+006,  0.16500000000E+002,  0.00000000000E+000,  0.10000000000E+001
  0.43481000000E+005,  0.39124187388E+006,  0.16500000000E+002,  0.00000000000E+000,  0.10000000000E+001
  0.43541000000E+005,  0.39134941883E+006,  0.16500000000E+002,  0.00000000000E+000,  0.10000000000E+001
  0.43601000000E+005,  0.39145612965E+006,  0.16500000000E+002,  0.00000000000E+000,  0.10000000000E+001
  0.43661000000E+005,  0.39156196215E+006,  0.16500000000E+002,  0.00000000000E+000,  0.10000000000E+001
