"           TIME(S)","              PRES","              TEMP","             SAT_G","             SAT_L"
  0.47568000000E+005,  0.86286848056E+007,  0.16500000000E+002,  0.00000000000E+000,  0.10000000000E+001
  0.47573000000E+005,  0.68305344897E+007,  0.16500000000E+002,  0.00000000000E+000,  0.10000000000E+001
  0.47598000000E+005,  0.51606828782E+007,  0.16500000000E+002,  0.00000000000E+000,  0.10000000000E+001
  0.47658000000E+005,  0.43935903117E+007,  0.16500000000E+002,  0.00000000000E+000,  0.10000000000E+001
  0.47718000000E+005,  0.40743045629E+007,  0.16500000000E+002,  0.00000000000E+000,  0.10000000000E+001
  0.47778000000E+005,  0.38804360633E+007,  0.16500000000E+002,  0.00000000000E+000,  0.10000000000E+001
  0.47838000000E+005,  0.37403997696E+007,  0.16500000000E+002,  0.00000000000E+000,  0.10000000000E+001
  0.47898000000E+005,  0.36301077549E+007,  0.16500000000E+002,  0.00000000000E+000,  0.10000000000E+001
  0.47958000000E+005,  0.35388551093E+007,  0.16500000000E+002,  0.00000000000E+000,  0.10000000000E+001
  0.48018000000E+005,  0.34604089284E+007,  0.16500000000E+002,  0.00000000000E+000,  0.10000000000E+001
  0.48078000000E+005,  0.33910235904E+007,  0.16500000000E+002,  0.00000000000E+000,  0.10000000000E+001
  0.48138000000E+005,  0.33302224977E+007,  0.16500000000E+002,  0.00000000000E+000,  0.10000000000E+001
  0.48198000000E+005,  0.32756551445E+007,  0.16500000000E+002,  0.00000000000E+000,  0.10000000000E+001
  0.48258000000E+005,  0.32260920880E+007,  0.16500000000E+002,  0.00000000000E+000,  0.10000000000E+001
  0.48318000000E+005,  0.31806687447E+007,  0.16500000000E+002,  0.00000000000E+000,  0.10000000000E+001
  0.48378000000E+005,  0.31387353036E+007,  0.16500000000E+002,  0.00000000000E+000,  0.10000000000E+001
  0.48438000000E+005,  0.30997866337E+007,  0.16500000000E+002,  0.00000000000E+000,  0.10000000000E+001
  0.48498000000E+005,  0.30634217475E+007,  0.16500000000E+002,  0.00000000000E+000,  0.10000000000E+001
  0.48558000000E+005,  0.30293166113E+007,  0.16500000000E+002,  0.00000000000E+000,  0.10000000000E+001
  0.48618000000E+005,  0.29972052453E+007,  0.16500000000E+002,  0.00000000000E+000,  0.10000000000E+001
  0.48678000000E+005,  0.29668667133E+007,  0.16500000000E+002,  0.00000000000E+000,  0.10000000000E+001
  0.48738000000E+005,  0.29381152551E+007,  0.16500000000E+002,  0.00000000000E+000,  0.10000000000E+001
  0.48798000000E+005,  0.29107931507E+007,  0.16500000000E+002,  0.00000000000E+000,  0.10000000000E+001
  0.48858000000E+005,  0.28847653448E+007,  0.16500000000E+002,  0.00000000000E+000,  0.10000000000E+001
  0.48918000000E+005,  0.28599151217E+007,  0.16500000000E+002,  0.00000000000E+000,  0.10000000000E+001
  0.48978000000E+005,  0.28361410757E+007,  0.16500000000E+002,  0.00000000000E+000,  0.10000000000E+001
  0.49038000000E+005,  0.28133542936E+007,  0.16500000000E+002,  0.00000000000E+000,  0.10000000000E+001
  0.49098000000E+005,  0.27914765545E+007,  0.16500000000E+002,  0.00000000000E+000,  0.10000000000E+001
  0.49158000000E+005,  0.27704386260E+007,  0.16500000000E+002,  0.00000000000E+000,  0.10000000000E+001
  0.49218000000E+005,  0.27501788675E+007,  0.16500000000E+002,  0.00000000000E+000,  0.10000000000E+001
  0.49278000000E+005,  0.27306422398E+007,  0.16500000000E+002,  0.00000000000E+000,  0.10000000000E+001
  0.49338000000E+005,  0.27117793274E+007,  0.16500000000E+002,  0.00000000000E+000,  0.10000000000E+001
  0.49398000000E+005,  0.26935456011E+007,  0.16500000000E+002,  0.00000000000E+000,  0.10000000000E+001
  0.49458000000E+005,  0.26759008222E+007,  0.16500000000E+002,  0.00000000000E+000,  0.10000000000E+001
  0.49518000000E+005,  0.26588085096E+007,  0.16500000000E+002,  0.00000000000E+000,  0.10000000000E+001
  0.49578000000E+005,  0.26422354389E+007,  0.16500000000E+002,  0.00000000000E+000,  0.10000000000E+001
  0.49638000000E+005,  0.26261512993E+007,  0.16500000000E+002,  0.00000000000E+000,  0.10000000000E+001
  0.49698000000E+005,  0.26105283899E+007,  0.16500000000E+002,  0.00000000000E+000,  0.10000000000E+001
  0.49758000000E+005,  0.25953412661E+007,  0.16500000000E+002,  0.00000000000E+000,  0.10000000000E+001
  0.49818000000E+005,  0.25805665395E+007,  0.16500000000E+002,  0.00000000000E+000,  0.10000000000E+001
  0.49878000000E+005,  0.25661826577E+007,  0.16500000000E+002,  0.00000000000E+000,  0.10000000000E+001
  0.49938000000E+005,  0.25521697064E+007,  0.16500000000E+002,  0.00000000000E+000,  0.10000000000E+001
  0.49998000000E+005,  0.25385092700E+007,  0.16500000000E+002,  0.00000000000E+000,  0.10000000000E+001
  0.50058000000E+005,  0.25251842633E+007,  0.16500000000E+002,  0.00000000000E+000,  0.10000000000E+001
  0.50118000000E+005,  0.25121788237E+007,  0.16500000000E+002,  0.00000000000E+000,  0.10000000000E+001
  0.50178000000E+005,  0.24994781665E+007,  0.16500000000E+002,  0.00000000000E+000,  0.10000000000E+001
  0.50238000000E+005,  0.24870685375E+007,  0.16500000000E+002,  0.00000000000E+000,  0.10000000000E+001
  0.50298000000E+005,  0.24749370654E+007,  0.16500000000E+002,  0.00000000000E+000,  0.10000000000E+001
  0.50358000000E+005,  0.24630717192E+007,  0.16500000000E+002,  0.00000000000E+000,  0.10000000000E+001
  0.50418000000E+005,  0.24514612520E+007,  0.16500000000E+002,  0.00000000000E+000,  0.10000000000E+001
  0.50478000000E+005,  0.24400951051E+007,  0.16500000000E+002,  0.00000000000E+000,  0.10000000000E+001
  0.50538000000E+005,  0.24289633465E+007,  0.16500000000E+002,  0.00000000000E+000,  0.10000000000E+001
  0.50598000000E+005,  0.24180566656E+007,  0.16500000000E+002,  0.00000000000E+000,  0.10000000000E+001
  0.50658000000E+005,  0.24073662678E+007,  0.16500000000E+002,  0.00000000000E+000,  0.10000000000E+001
  0.50718000000E+005,  0.23968838945E+007,  0.16500000000E+002,  0.00000000000E+000,  0.10000000000E+001
  0.50778000000E+005,  0.23866017205E+007,  0.16500000000E+002,  0.00000000000E+000,  0.10000000000E+001
  0.50838000000E+005,  0.23765123777E+007,  0.16500000000E+002,  0.00000000000E+000,  0.10000000000E+001
  0.50898000000E+005,  0.23666088801E+007,  0.16500000000E+002,  0.00000000000E+000,  0.10000000000E+001
  0.50958000000E+005,  0.23568846320E+007,  0.16500000000E+002,  0.00000000000E+000,  0.10000000000E+001
  0.51018000000E+005,  0.23473333638E+007,  0.16500000000E+002,  0.00000000000E+000,  0.10000000000E+001
  0.51078000000E+005,  0.23379491453E+007,  0.16500000000E+002,  0.00000000000E+000,  0.10000000000E+001
  0.51138000000E+005,  0.23287263380E+007,  0.16500000000E+002,  0.00000000000E+000,  0.10000000000E+001
  0.51198000000E+005,  0.23196595769E+007,  0.16500000000E+002,  0.00000000000E+000,  0.10000000000E+001
  0.51258000000E+005,  0.23107437844E+007,  0.16500000000E+002,  0.00000000000E+000,  0.10000000000E+001
  0.51318000000E+005,  0.23019740989E+007,  0.16500000000E+002,  0.00000000000E+000,  0.10000000000E+001
  0.51378000000E+005,  0.22933459030E+007,  0.16500000000E+002,  0.00000000000E+000,  0.10000000000E+001
  0.51438000000E+005,  0.22848547960E+007,  0.16500000000E+002,  0.00000000000E+000,  0.10000000000E+001
  0.51498000000E+005,  0.22764965734E+007,  0.16500000000E+002,  0.00000000000E+000,  0.10000000000E+001
  0.51558000000E+005,  0.22682672170E+007,  0.16500000000E+002,  0.00000000000E+000,  0.10000000000E+001
  0.51618000000E+005,  0.22601629012E+007,  0.16500000000E+002,  0.00000000000E+000,  0.10000000000E+001
  0.51678000000E+005,  0.22521799602E+007,  0.16500000000E+002,  0.00000000000E+000,  0.10000000000E+001
  0.51738000000E+005,  0.22443148830E+007,  0.16500000000E+002,  0.00000000000E+000,  0.10000000000E+001
  0.51798000000E+005,  0.22365643134E+007,  0.16500000000E+002,  0.00000000000E+000,  0.10000000000E+001
  0.51858000000E+005,  0.22289250404E+007,  0.16500000000E+002,  0.00000000000E+000,  0.10000000000E+001
  0.51918000000E+005,  0.22213939761E+007,  0.16500000000E+002,  0.00000000000E+000,  0.10000000000E+001
  0.51978000000E+005,  0.22139681572E+007,  0.16500000000E+002,  0.00000000000E+000,  0.10000000000E+001
  0.52038000000E+005,  0.22066447504E+007,  0.16500000000E+002,  0.00000000000E+000,  0.10000000000E+001
  0.52098000000E+005,  0.21994210348E+007,  0.16500000000E+002,  0.00000000000E+000,  0.10000000000E+001
  0.52158000000E+005,  0.21922943845E+007,  0.16500000000E+002,  0.00000000000E+000,  0.10000000000E+001
  0.52218000000E+005,  0.21852622895E+007,  0.16500000000E+002,  0.00000000000E+000,  0.10000000000E+001
  0.52278000000E+005,  0.21783223267E+007,  0.16500000000E+002,  0.00000000000E+000,  0.10000000000E+001
  0.52338000000E+005,  0.21714721627E+007,  0.16500000000E+002,  0.00000000000E+000,  0.10000000000E+001
  0.52398000000E+005,  0.21647095574E+007,  0.16500000000E+002,  0.00000000000E+000,  0.10000000000E+001
  0.52458000000E+005,  0.21580323550E+007,  0.16500000000E+002,  0.00000000000E+000,  0.10000000000E+001
  0.52518000000E+005,  0.21514384729E+007,  0.16500000000E+002,  0.00000000000E+000,  0.10000000000E+001
  0.52578000000E+005,  0.21449259025E+007,  0.16500000000E+002,  0.00000000000E+000,  0.10000000000E+001
  0.52638000000E+005,  0.21384927112E+007,  0.16500000000E+002,  0.00000000000E+000,  0.10000000000E+001
  0.52698000000E+005,  0.21321370352E+007,  0.16500000000E+002,  0.00000000000E+000,  0.10000000000E+001
  0.52758000000E+005,  0.21258570676E+007,  0.16500000000E+002,  0.00000000000E+000,  0.10000000000E+001
  0.52818000000E+005,  0.21196510744E+007,  0.16500000000E+002,  0.00000000000E+000,  0.10000000000E+001
  0.52878000000E+005,  0.21135173723E+007,  0.16500000000E+002,  0.00000000000E+000,  0.10000000000E+001
  0.52938000000E+005,  0.21074543401E+007,  0.16500000000E+002,  0.00000000000E+000,  0.10000000000E+001
  0.52998000000E+005,  0.21014604026E+007,  0.16500000000E+002,  0.00000000000E+000,  0.10000000000E+001
  0.53058000000E+005,  0.20955340481E+007,  0.16500000000E+002,  0.00000000000E+000,  0.10000000000E+001
  0.53118000000E+005,  0.20896738052E+007,  0.16500000000E+002,  0.00000000000E+000,  0.10000000000E+001
  0.53178000000E+005,  0.20838782488E+007,  0.16500000000E+002,  0.00000000000E+000,  0.10000000000E+001
  0.53238000000E+005,  0.20781460096E+007,  0.16500000000E+002,  0.00000000000E+000,  0.10000000000E+001
  0.53298000000E+005,  0.20724757539E+007,  0.16500000000E+002,  0.00000000000E+000,  0.10000000000E+001
  0.53358000000E+005,  0.20668661894E+007,  0.16500000000E+002,  0.00000000000E+000,  0.10000000000E+001
  0.53418000000E+005,  0.20613160656E+007,  0.16500000000E+002,  0.00000000000E+000,  0.10000000000E+001
  0.53478000000E+005,  0.20558241694E+007,  0.16500000000E+002,  0.00000000000E+000,  0.10000000000E+001
  0.53538000000E+005,  0.20503893264E+007,  0.16500000000E+002,  0.00000000000E+000,  0.10000000000E+001
  0.53598000000E+005,  0.20450103936E+007,  0.16500000000E+002,  0.00000000000E+000,  0.10000000000E+001
  0.53658000000E+005,  0.20396862714E+007,  0.16500000000E+002,  0.00000000000E+000,  0.10000000000E+001
  0.53718000000E+005,  0.20344158788E+007,  0.16500000000E+002,  0.00000000000E+000,  0.10000000000E+001
  0.53778000000E+005,  0.20291981789E+007,  0.16500000000E+002,  0.00000000000E+000,  0.10000000000E+001
  0.53838000000E+005,  0.20240321602E+007,  0.16500000000E+002,  0.00000000000E+000,  0.10000000000E+001
  0.53898000000E+005,  0.20189168361E+007,  0.16500000000E+002,  0.00000000000E+000,  0.10000000000E+001
  0.53958000000E+005,  0.20138512519E+007,  0.16500000000E+002,  0.00000000000E+000,  0.10000000000E+001
  0.54018000000E+005,  0.20093656072E+007,  0.16500000000E+002,  0.00000000000E+000,  0.10000000000E+001
  0.54078000000E+005,  0.20057681062E+007,  0.16500000000E+002,  0.00000000000E+000,  0.10000000000E+001
  0.54138000000E+005,  0.20012212606E+007,  0.16500000000E+002,  0.00000000000E+000,  0.10000000000E+001
  0.54198000000E+005,  0.19965465008E+007,  0.16500000000E+002,  0.00000000000E+000,  0.10000000000E+001
  0.54258000000E+005,  0.19918552529E+007,  0.16500000000E+002,  0.00000000000E+000,  0.10000000000E+001
  0.54318000000E+005,  0.19871771275E+007,  0.16500000000E+002,  0.00000000000E+000,  0.10000000000E+001
  0.54378000000E+005,  0.19825234400E+007,  0.16500000000E+002,  0.00000000000E+000,  0.10000000000E+001
  0.54438000000E+005,  0.19778995053E+007,  0.16500000000E+002,  0.00000000000E+000,  0.10000000000E+001
  0.54498000000E+005,  0.19733081253E+007,  0.16500000000E+002,  0.00000000000E+000,  0.10000000000E+001
  0.54558000000E+005,  0.19687508435E+007,  0.16500000000E+002,  0.00000000000E+000,  0.10000000000E+001
  0.54618000000E+005,  0.19642285014E+007,  0.16500000000E+002,  0.00000000000E+000,  0.10000000000E+001
  0.54678000000E+005,  0.19597415192E+007,  0.16500000000E+002,  0.00000000000E+000,  0.10000000000E+001
  0.54738000000E+005,  0.19552900429E+007,  0.16500000000E+002,  0.00000000000E+000,  0.10000000000E+001
  0.54798000000E+005,  0.19508740416E+007,  0.16500000000E+002,  0.00000000000E+000,  0.10000000000E+001
  0.54858000000E+005,  0.19464933651E+007,  0.16500000000E+002,  0.00000000000E+000,  0.10000000000E+001
  0.54918000000E+005,  0.19421477757E+007,  0.16500000000E+002,  0.00000000000E+000,  0.10000000000E+001
  0.54978000000E+005,  0.19378369826E+007,  0.16500000000E+002,  0.00000000000E+000,  0.10000000000E+001
  0.55038000000E+005,  0.19335606495E+007,  0.16500000000E+002,  0.00000000000E+000,  0.10000000000E+001
  0.55098000000E+005,  0.19293184131E+007,  0.16500000000E+002,  0.00000000000E+000,  0.10000000000E+001
  0.55158000000E+005,  0.19251098891E+007,  0.16500000000E+002,  0.00000000000E+000,  0.10000000000E+001
  0.55218000000E+005,  0.19209346809E+007,  0.16500000000E+002,  0.00000000000E+000,  0.10000000000E+001
  0.55278000000E+005,  0.19167923823E+007,  0.16500000000E+002,  0.00000000000E+000,  0.10000000000E+001
  0.55338000000E+005,  0.19126825847E+007,  0.16500000000E+002,  0.00000000000E+000,  0.10000000000E+001
  0.55398000000E+005,  0.19086048742E+007,  0.16500000000E+002,  0.00000000000E+000,  0.10000000000E+001
  0.55458000000E+005,  0.19045588361E+007,  0.16500000000E+002,  0.00000000000E+000,  0.10000000000E+001
  0.55518000000E+005,  0.19005440601E+007,  0.16500000000E+002,  0.00000000000E+000,  0.10000000000E+001
  0.55578000000E+005,  0.18965601396E+007,  0.16500000000E+002,  0.00000000000E+000,  0.10000000000E+001
  0.55638000000E+005,  0.18926066665E+007,  0.16500000000E+002,  0.00000000000E+000,  0.10000000000E+001
  0.55698000000E+005,  0.18886832404E+007,  0.16500000000E+002,  0.00000000000E+000,  0.10000000000E+001
  0.55758000000E+005,  0.18847894674E+007,  0.16500000000E+002,  0.00000000000E+000,  0.10000000000E+001
  0.55818000000E+005,  0.18809249548E+007,  0.16500000000E+002,  0.00000000000E+000,  0.10000000000E+001
  0.55878000000E+005,  0.18770893175E+007,  0.16500000000E+002,  0.00000000000E+000,  0.10000000000E+001
  0.55938000000E+005,  0.18732821779E+007,  0.16500000000E+002,  0.00000000000E+000,  0.10000000000E+001
  0.55998000000E+005,  0.18695031602E+007,  0.16500000000E+002,  0.00000000000E+000,  0.10000000000E+001
  0.56058000000E+005,  0.18657519001E+007,  0.16500000000E+002,  0.00000000000E+000,  0.10000000000E+001
  0.56118000000E+005,  0.18620280345E+007,  0.16500000000E+002,  0.00000000000E+000,  0.10000000000E+001
  0.56178000000E+005,  0.18583312093E+007,  0.16500000000E+002,  0.00000000000E+000,  0.10000000000E+001
  0.56238000000E+005,  0.18546610758E+007,  0.16500000000E+002,  0.00000000000E+000,  0.10000000000E+001
  0.56298000000E+005,  0.18510172907E+007,  0.16500000000E+002,  0.00000000000E+000,  0.10000000000E+001
  0.56358000000E+005,  0.18473995201E+007,  0.16500000000E+002,  0.00000000000E+000,  0.10000000000E+001
  0.56418000000E+005,  0.18438074306E+007,  0.16500000000E+002,  0.00000000000E+000,  0.10000000000E+001
  0.56478000000E+005,  0.18402407008E+007,  0.16500000000E+002,  0.00000000000E+000,  0.10000000000E+001
  0.56538000000E+005,  0.18366990100E+007,  0.16500000000E+002,  0.00000000000E+000,  0.10000000000E+001
  0.56598000000E+005,  0.18331820474E+007,  0.16500000000E+002,  0.00000000000E+000,  0.10000000000E+001
  0.56658000000E+005,  0.18296895051E+007,  0.16500000000E+002,  0.00000000000E+000,  0.10000000000E+001
  0.56718000000E+005,  0.18262210825E+007,  0.16500000000E+002,  0.00000000000E+000,  0.10000000000E+001
  0.56778000000E+005,  0.18227764848E+007,  0.16500000000E+002,  0.00000000000E+000,  0.10000000000E+001
  0.56838000000E+005,  0.18193554205E+007,  0.16500000000E+002,  0.00000000000E+000,  0.10000000000E+001
  0.56898000000E+005,  0.18159576051E+007,  0.16500000000E+002,  0.00000000000E+000,  0.10000000000E+001
  0.56958000000E+005,  0.18125827582E+007,  0.16500000000E+002,  0.00000000000E+000,  0.10000000000E+001
  0.57018000000E+005,  0.18092306079E+007,  0.16500000000E+002,  0.00000000000E+000,  0.10000000000E+001
  0.57078000000E+005,  0.18059008822E+007,  0.16500000000E+002,  0.00000000000E+000,  0.10000000000E+001
  0.57138000000E+005,  0.18025933186E+007,  0.16500000000E+002,  0.00000000000E+000,  0.10000000000E+001
  0.57198000000E+005,  0.17993076558E+007,  0.16500000000E+002,  0.00000000000E+000,  0.10000000000E+001
  0.57258000000E+005,  0.17960436404E+007,  0.16500000000E+002,  0.00000000000E+000,  0.10000000000E+001
  0.57318000000E+005,  0.17928010217E+007,  0.16500000000E+002,  0.00000000000E+000,  0.10000000000E+001
  0.57378000000E+005,  0.17895795530E+007,  0.16500000000E+002,  0.00000000000E+000,  0.10000000000E+001
  0.57438000000E+005,  0.17863789943E+007,  0.16500000000E+002,  0.00000000000E+000,  0.10000000000E+001
  0.57498000000E+005,  0.17831991078E+007,  0.16500000000E+002,  0.00000000000E+000,  0.10000000000E+001
  0.57558000000E+005,  0.17800396606E+007,  0.16500000000E+002,  0.00000000000E+000,  0.10000000000E+001
  0.57618000000E+005,  0.17769004245E+007,  0.16500000000E+002,  0.00000000000E+000,  0.10000000000E+001
  0.57678000000E+005,  0.17737811750E+007,  0.16500000000E+002,  0.00000000000E+000,  0.10000000000E+001
  0.57738000000E+005,  0.17706816907E+007,  0.16500000000E+002,  0.00000000000E+000,  0.10000000000E+001
  0.57798000000E+005,  0.17676017556E+007,  0.16500000000E+002,  0.00000000000E+000,  0.10000000000E+001
  0.57858000000E+005,  0.17645411559E+007,  0.16500000000E+002,  0.00000000000E+000,  0.10000000000E+001
  0.57918000000E+005,  0.17614996837E+007,  0.16500000000E+002,  0.00000000000E+000,  0.10000000000E+001
  0.57978000000E+005,  0.17584771322E+007,  0.16500000000E+002,  0.00000000000E+000,  0.10000000000E+001
  0.58038000000E+005,  0.17554732997E+007,  0.16500000000E+002,  0.00000000000E+000,  0.10000000000E+001
  0.58098000000E+005,  0.17524879867E+007,  0.16500000000E+002,  0.00000000000E+000,  0.10000000000E+001
  0.58158000000E+005,  0.17495209989E+007,  0.16500000000E+002,  0.00000000000E+000,  0.10000000000E+001
  0.58218000000E+005,  0.17465721438E+007,  0.16500000000E+002,  0.00000000000E+000,  0.10000000000E+001
  0.58278000000E+005,  0.17436412335E+007,  0.16500000000E+002,  0.00000000000E+000,  0.10000000000E+001
  0.58338000000E+005,  0.17407280813E+007,  0.16500000000E+002,  0.00000000000E+000,  0.10000000000E+001
  0.58398000000E+005,  0.17378325051E+007,  0.16500000000E+002,  0.00000000000E+000,  0.10000000000E+001
  0.58458000000E+005,  0.17349543249E+007,  0.16500000000E+002,  0.00000000000E+000,  0.10000000000E+001
  0.58518000000E+005,  0.17320933647E+007,  0.16500000000E+002,  0.00000000000E+000,  0.10000000000E+001
  0.58578000000E+005,  0.17292494509E+007,  0.16500000000E+002,  0.00000000000E+000,  0.10000000000E+001
  0.58638000000E+005,  0.17264224125E+007,  0.16500000000E+002,  0.00000000000E+000,  0.10000000000E+001
  0.58698000000E+005,  0.17236120816E+007,  0.16500000000E+002,  0.00000000000E+000,  0.10000000000E+001
  0.58758000000E+005,  0.17208182928E+007,  0.16500000000E+002,  0.00000000000E+000,  0.10000000000E+001
