"           TIME(S)","              PRES","              TEMP","             SAT_G","             SAT_L"
  0.32540100000E+005,  0.58206433471E+007,  0.16500000000E+002,  0.00000000000E+000,  0.10000000000E+001
  0.32540600000E+005,  0.40849284422E+007,  0.16500000000E+002,  0.00000000000E+000,  0.10000000000E+001
  0.32543100000E+005,  0.28810754732E+007,  0.16500000000E+002,  0.00000000000E+000,  0.10000000000E+001
  0.32553100000E+005,  0.24293694309E+007,  0.16500000000E+002,  0.00000000000E+000,  0.10000000000E+001
  0.32563100000E+005,  0.23077503851E+007,  0.16500000000E+002,  0.00000000000E+000,  0.10000000000E+001
  0.32573100000E+005,  0.22978155263E+007,  0.16500000000E+002,  0.00000000000E+000,  0.10000000000E+001
  0.32583100000E+005,  0.23137910832E+007,  0.16500000000E+002,  0.00000000000E+000,  0.10000000000E+001
  0.32593100000E+005,  0.23401917457E+007,  0.16500000000E+002,  0.00000000000E+000,  0.10000000000E+001
  0.32603100000E+005,  0.23840016018E+007,  0.16500000000E+002,  0.00000000000E+000,  0.10000000000E+001
  0.32613100000E+005,  0.24017687416E+007,  0.16500000000E+002,  0.00000000000E+000,  0.10000000000E+001
  0.32623100000E+005,  0.24273535430E+007,  0.16500000000E+002,  0.00000000000E+000,  0.10000000000E+001
  0.32633100000E+005,  0.24266997980E+007,  0.16500000000E+002,  0.00000000000E+000,  0.10000000000E+001
  0.32643100000E+005,  0.24398477735E+007,  0.16500000000E+002,  0.00000000000E+000,  0.10000000000E+001
  0.32653100000E+005,  0.24547033359E+007,  0.16500000000E+002,  0.00000000000E+000,  0.10000000000E+001
  0.32663100000E+005,  0.24692242623E+007,  0.16500000000E+002,  0.00000000000E+000,  0.10000000000E+001
  0.32673100000E+005,  0.24831375898E+007,  0.16500000000E+002,  0.00000000000E+000,  0.10000000000E+001
  0.32683100000E+005,  0.24963779953E+007,  0.16500000000E+002,  0.00000000000E+000,  0.10000000000E+001
  0.32693100000E+005,  0.25089738385E+007,  0.16500000000E+002,  0.00000000000E+000,  0.10000000000E+001
  0.32703100000E+005,  0.25209691822E+007,  0.16500000000E+002,  0.00000000000E+000,  0.10000000000E+001
  0.32713100000E+005,  0.25324083475E+007,  0.16500000000E+002,  0.00000000000E+000,  0.10000000000E+001
  0.32723100000E+005,  0.25433292897E+007,  0.16500000000E+002,  0.00000000000E+000,  0.10000000000E+001
  0.32733100000E+005,  0.25537635711E+007,  0.16500000000E+002,  0.00000000000E+000,  0.10000000000E+001
  0.32743100000E+005,  0.25637499838E+007,  0.16500000000E+002,  0.00000000000E+000,  0.10000000000E+001
  0.32753100000E+005,  0.25733230124E+007,  0.16500000000E+002,  0.00000000000E+000,  0.10000000000E+001
  0.32763100000E+005,  0.25825142491E+007,  0.16500000000E+002,  0.00000000000E+000,  0.10000000000E+001
  0.32773100000E+005,  0.25913493184E+007,  0.16500000000E+002,  0.00000000000E+000,  0.10000000000E+001
  0.32783100000E+005,  0.25998501674E+007,  0.16500000000E+002,  0.00000000000E+000,  0.10000000000E+001
  0.32793100000E+005,  0.26080405200E+007,  0.16500000000E+002,  0.00000000000E+000,  0.10000000000E+001
  0.32803100000E+005,  0.26159459922E+007,  0.16500000000E+002,  0.00000000000E+000,  0.10000000000E+001
  0.32813100000E+005,  0.26235778453E+007,  0.16500000000E+002,  0.00000000000E+000,  0.10000000000E+001
  0.32823100000E+005,  0.26309450168E+007,  0.16500000000E+002,  0.00000000000E+000,  0.10000000000E+001
  0.32833100000E+005,  0.26380878019E+007,  0.16500000000E+002,  0.00000000000E+000,  0.10000000000E+001
  0.32843100000E+005,  0.26450054903E+007,  0.16500000000E+002,  0.00000000000E+000,  0.10000000000E+001
  0.32853100000E+005,  0.26517232266E+007,  0.16500000000E+002,  0.00000000000E+000,  0.10000000000E+001
  0.32863100000E+005,  0.26582462583E+007,  0.16500000000E+002,  0.00000000000E+000,  0.10000000000E+001
  0.32873100000E+005,  0.26645826346E+007,  0.16500000000E+002,  0.00000000000E+000,  0.10000000000E+001
  0.32883100000E+005,  0.26707447607E+007,  0.16500000000E+002,  0.00000000000E+000,  0.10000000000E+001
  0.32893100000E+005,  0.26767449961E+007,  0.16500000000E+002,  0.00000000000E+000,  0.10000000000E+001
  0.32903100000E+005,  0.26825895889E+007,  0.16500000000E+002,  0.00000000000E+000,  0.10000000000E+001
  0.32913100000E+005,  0.26882849955E+007,  0.16500000000E+002,  0.00000000000E+000,  0.10000000000E+001
  0.32923100000E+005,  0.26938274601E+007,  0.16500000000E+002,  0.00000000000E+000,  0.10000000000E+001
  0.32933100000E+005,  0.26992418364E+007,  0.16500000000E+002,  0.00000000000E+000,  0.10000000000E+001
  0.32943100000E+005,  0.27045272336E+007,  0.16500000000E+002,  0.00000000000E+000,  0.10000000000E+001
  0.32953100000E+005,  0.27096912507E+007,  0.16500000000E+002,  0.00000000000E+000,  0.10000000000E+001
  0.32963100000E+005,  0.27147424015E+007,  0.16500000000E+002,  0.00000000000E+000,  0.10000000000E+001
  0.32973100000E+005,  0.27196833014E+007,  0.16500000000E+002,  0.00000000000E+000,  0.10000000000E+001
  0.32983100000E+005,  0.27245174716E+007,  0.16500000000E+002,  0.00000000000E+000,  0.10000000000E+001
  0.32993100000E+005,  0.27292436153E+007,  0.16500000000E+002,  0.00000000000E+000,  0.10000000000E+001
  0.33003100000E+005,  0.27338726643E+007,  0.16500000000E+002,  0.00000000000E+000,  0.10000000000E+001
  0.33013100000E+005,  0.27384106550E+007,  0.16500000000E+002,  0.00000000000E+000,  0.10000000000E+001
  0.33023100000E+005,  0.27428584658E+007,  0.16500000000E+002,  0.00000000000E+000,  0.10000000000E+001
  0.33033100000E+005,  0.27472201831E+007,  0.16500000000E+002,  0.00000000000E+000,  0.10000000000E+001
  0.33043100000E+005,  0.27514983847E+007,  0.16500000000E+002,  0.00000000000E+000,  0.10000000000E+001
  0.33053100000E+005,  0.27556909653E+007,  0.16500000000E+002,  0.00000000000E+000,  0.10000000000E+001
  0.33063100000E+005,  0.27598041176E+007,  0.16500000000E+002,  0.00000000000E+000,  0.10000000000E+001
  0.33073100000E+005,  0.27638473412E+007,  0.16500000000E+002,  0.00000000000E+000,  0.10000000000E+001
  0.33083100000E+005,  0.27678203745E+007,  0.16500000000E+002,  0.00000000000E+000,  0.10000000000E+001
  0.33093100000E+005,  0.27717245107E+007,  0.16500000000E+002,  0.00000000000E+000,  0.10000000000E+001
  0.33103100000E+005,  0.27755617099E+007,  0.16500000000E+002,  0.00000000000E+000,  0.10000000000E+001
  0.33113100000E+005,  0.27793340282E+007,  0.16500000000E+002,  0.00000000000E+000,  0.10000000000E+001
  0.33123100000E+005,  0.27830434828E+007,  0.16500000000E+002,  0.00000000000E+000,  0.10000000000E+001
  0.33133100000E+005,  0.27866907932E+007,  0.16500000000E+002,  0.00000000000E+000,  0.10000000000E+001
  0.33143100000E+005,  0.27902795580E+007,  0.16500000000E+002,  0.00000000000E+000,  0.10000000000E+001
  0.33153100000E+005,  0.27938112227E+007,  0.16500000000E+002,  0.00000000000E+000,  0.10000000000E+001
  0.33163100000E+005,  0.27972871861E+007,  0.16500000000E+002,  0.00000000000E+000,  0.10000000000E+001
  0.33173100000E+005,  0.28007086844E+007,  0.16500000000E+002,  0.00000000000E+000,  0.10000000000E+001
  0.33183100000E+005,  0.28040781631E+007,  0.16500000000E+002,  0.00000000000E+000,  0.10000000000E+001
  0.33193100000E+005,  0.28073948111E+007,  0.16500000000E+002,  0.00000000000E+000,  0.10000000000E+001
  0.33203100000E+005,  0.28106630195E+007,  0.16500000000E+002,  0.00000000000E+000,  0.10000000000E+001
  0.33213100000E+005,  0.28138839359E+007,  0.16500000000E+002,  0.00000000000E+000,  0.10000000000E+001
  0.33223100000E+005,  0.28170582304E+007,  0.16500000000E+002,  0.00000000000E+000,  0.10000000000E+001
  0.33233100000E+005,  0.28201869820E+007,  0.16500000000E+002,  0.00000000000E+000,  0.10000000000E+001
  0.33243100000E+005,  0.28232713207E+007,  0.16500000000E+002,  0.00000000000E+000,  0.10000000000E+001
  0.33253100000E+005,  0.28263123544E+007,  0.16500000000E+002,  0.00000000000E+000,  0.10000000000E+001
  0.33263100000E+005,  0.28293111538E+007,  0.16500000000E+002,  0.00000000000E+000,  0.10000000000E+001
  0.33273100000E+005,  0.28322687503E+007,  0.16500000000E+002,  0.00000000000E+000,  0.10000000000E+001
  0.33283100000E+005,  0.28351861358E+007,  0.16500000000E+002,  0.00000000000E+000,  0.10000000000E+001
  0.33293100000E+005,  0.28380642642E+007,  0.16500000000E+002,  0.00000000000E+000,  0.10000000000E+001
  0.33303100000E+005,  0.28409040530E+007,  0.16500000000E+002,  0.00000000000E+000,  0.10000000000E+001
  0.33313100000E+005,  0.28437063728E+007,  0.16500000000E+002,  0.00000000000E+000,  0.10000000000E+001
  0.33323100000E+005,  0.28464719450E+007,  0.16500000000E+002,  0.00000000000E+000,  0.10000000000E+001
  0.33333100000E+005,  0.28492017552E+007,  0.16500000000E+002,  0.00000000000E+000,  0.10000000000E+001
  0.33343100000E+005,  0.28518966013E+007,  0.16500000000E+002,  0.00000000000E+000,  0.10000000000E+001
  0.33353100000E+005,  0.28545572311E+007,  0.16500000000E+002,  0.00000000000E+000,  0.10000000000E+001
  0.33363100000E+005,  0.28571843687E+007,  0.16500000000E+002,  0.00000000000E+000,  0.10000000000E+001
  0.33373100000E+005,  0.28597787155E+007,  0.16500000000E+002,  0.00000000000E+000,  0.10000000000E+001
  0.33383100000E+005,  0.28623409509E+007,  0.16500000000E+002,  0.00000000000E+000,  0.10000000000E+001
  0.33393100000E+005,  0.28648717321E+007,  0.16500000000E+002,  0.00000000000E+000,  0.10000000000E+001
  0.33403100000E+005,  0.28673716945E+007,  0.16500000000E+002,  0.00000000000E+000,  0.10000000000E+001
  0.33413100000E+005,  0.28698413567E+007,  0.16500000000E+002,  0.00000000000E+000,  0.10000000000E+001
  0.33423100000E+005,  0.28722813807E+007,  0.16500000000E+002,  0.00000000000E+000,  0.10000000000E+001
  0.33433100000E+005,  0.28746924037E+007,  0.16500000000E+002,  0.00000000000E+000,  0.10000000000E+001
  0.33443100000E+005,  0.28770749802E+007,  0.16500000000E+002,  0.00000000000E+000,  0.10000000000E+001
  0.33453100000E+005,  0.28794296410E+007,  0.16500000000E+002,  0.00000000000E+000,  0.10000000000E+001
  0.33463100000E+005,  0.28817569035E+007,  0.16500000000E+002,  0.00000000000E+000,  0.10000000000E+001
  0.33473100000E+005,  0.28840572714E+007,  0.16500000000E+002,  0.00000000000E+000,  0.10000000000E+001
  0.33483100000E+005,  0.28863312349E+007,  0.16500000000E+002,  0.00000000000E+000,  0.10000000000E+001
  0.33493100000E+005,  0.28885792703E+007,  0.16500000000E+002,  0.00000000000E+000,  0.10000000000E+001
  0.33503100000E+005,  0.28908018283E+007,  0.16500000000E+002,  0.00000000000E+000,  0.10000000000E+001
  0.33513100000E+005,  0.28929983073E+007,  0.16500000000E+002,  0.00000000000E+000,  0.10000000000E+001
  0.33523100000E+005,  0.28951709234E+007,  0.16500000000E+002,  0.00000000000E+000,  0.10000000000E+001
  0.33533100000E+005,  0.28973195946E+007,  0.16500000000E+002,  0.00000000000E+000,  0.10000000000E+001
  0.33543100000E+005,  0.28994445784E+007,  0.16500000000E+002,  0.00000000000E+000,  0.10000000000E+001
  0.33553100000E+005,  0.29015461379E+007,  0.16500000000E+002,  0.00000000000E+000,  0.10000000000E+001
  0.33563100000E+005,  0.29036248037E+007,  0.16500000000E+002,  0.00000000000E+000,  0.10000000000E+001
  0.33573100000E+005,  0.29056809552E+007,  0.16500000000E+002,  0.00000000000E+000,  0.10000000000E+001
  0.33583100000E+005,  0.29077149468E+007,  0.16500000000E+002,  0.00000000000E+000,  0.10000000000E+001
  0.33593100000E+005,  0.29097271295E+007,  0.16500000000E+002,  0.00000000000E+000,  0.10000000000E+001
  0.33603100000E+005,  0.29117178491E+007,  0.16500000000E+002,  0.00000000000E+000,  0.10000000000E+001
  0.33613100000E+005,  0.29136874455E+007,  0.16500000000E+002,  0.00000000000E+000,  0.10000000000E+001
  0.33623100000E+005,  0.29156362513E+007,  0.16500000000E+002,  0.00000000000E+000,  0.10000000000E+001
  0.33633100000E+005,  0.29175645917E+007,  0.16500000000E+002,  0.00000000000E+000,  0.10000000000E+001
  0.33643100000E+005,  0.29194727815E+007,  0.16500000000E+002,  0.00000000000E+000,  0.10000000000E+001
  0.33653100000E+005,  0.29213610332E+007,  0.16500000000E+002,  0.00000000000E+000,  0.10000000000E+001
  0.33663100000E+005,  0.29232297730E+007,  0.16500000000E+002,  0.00000000000E+000,  0.10000000000E+001
  0.33673100000E+005,  0.29250793035E+007,  0.16500000000E+002,  0.00000000000E+000,  0.10000000000E+001
  0.33683100000E+005,  0.29269099049E+007,  0.16500000000E+002,  0.00000000000E+000,  0.10000000000E+001
  0.33693100000E+005,  0.29287218539E+007,  0.16500000000E+002,  0.00000000000E+000,  0.10000000000E+001
  0.33703100000E+005,  0.29305154238E+007,  0.16500000000E+002,  0.00000000000E+000,  0.10000000000E+001
  0.33713100000E+005,  0.29322908831E+007,  0.16500000000E+002,  0.00000000000E+000,  0.10000000000E+001
  0.33723100000E+005,  0.29340484954E+007,  0.16500000000E+002,  0.00000000000E+000,  0.10000000000E+001
  0.33733100000E+005,  0.29357885190E+007,  0.16500000000E+002,  0.00000000000E+000,  0.10000000000E+001
  0.33743100000E+005,  0.29375112070E+007,  0.16500000000E+002,  0.00000000000E+000,  0.10000000000E+001
  0.33753100000E+005,  0.29392168073E+007,  0.16500000000E+002,  0.00000000000E+000,  0.10000000000E+001
  0.33763100000E+005,  0.29409055628E+007,  0.16500000000E+002,  0.00000000000E+000,  0.10000000000E+001
  0.33773100000E+005,  0.29425777112E+007,  0.16500000000E+002,  0.00000000000E+000,  0.10000000000E+001
  0.33783100000E+005,  0.29442334857E+007,  0.16500000000E+002,  0.00000000000E+000,  0.10000000000E+001
  0.33793100000E+005,  0.29458731145E+007,  0.16500000000E+002,  0.00000000000E+000,  0.10000000000E+001
  0.33803100000E+005,  0.29474968214E+007,  0.16500000000E+002,  0.00000000000E+000,  0.10000000000E+001
  0.33813100000E+005,  0.29491048259E+007,  0.16500000000E+002,  0.00000000000E+000,  0.10000000000E+001
  0.33823100000E+005,  0.29506973428E+007,  0.16500000000E+002,  0.00000000000E+000,  0.10000000000E+001
  0.33833100000E+005,  0.29522745832E+007,  0.16500000000E+002,  0.00000000000E+000,  0.10000000000E+001
  0.33843100000E+005,  0.29538367537E+007,  0.16500000000E+002,  0.00000000000E+000,  0.10000000000E+001
  0.33853100000E+005,  0.29553840572E+007,  0.16500000000E+002,  0.00000000000E+000,  0.10000000000E+001
  0.33863100000E+005,  0.29569166927E+007,  0.16500000000E+002,  0.00000000000E+000,  0.10000000000E+001
  0.33873100000E+005,  0.29584348555E+007,  0.16500000000E+002,  0.00000000000E+000,  0.10000000000E+001
  0.33883100000E+005,  0.29599387371E+007,  0.16500000000E+002,  0.00000000000E+000,  0.10000000000E+001
  0.33893100000E+005,  0.29614285256E+007,  0.16500000000E+002,  0.00000000000E+000,  0.10000000000E+001
  0.33903100000E+005,  0.29629044056E+007,  0.16500000000E+002,  0.00000000000E+000,  0.10000000000E+001
  0.33913100000E+005,  0.29643665585E+007,  0.16500000000E+002,  0.00000000000E+000,  0.10000000000E+001
  0.33923100000E+005,  0.29658151621E+007,  0.16500000000E+002,  0.00000000000E+000,  0.10000000000E+001
  0.33933100000E+005,  0.29672503914E+007,  0.16500000000E+002,  0.00000000000E+000,  0.10000000000E+001
  0.33943100000E+005,  0.29686724180E+007,  0.16500000000E+002,  0.00000000000E+000,  0.10000000000E+001
  0.33953100000E+005,  0.29700814106E+007,  0.16500000000E+002,  0.00000000000E+000,  0.10000000000E+001
  0.33963100000E+005,  0.29714775349E+007,  0.16500000000E+002,  0.00000000000E+000,  0.10000000000E+001
  0.33973100000E+005,  0.29728609539E+007,  0.16500000000E+002,  0.00000000000E+000,  0.10000000000E+001
  0.33983100000E+005,  0.29742318276E+007,  0.16500000000E+002,  0.00000000000E+000,  0.10000000000E+001
  0.33993100000E+005,  0.29755903132E+007,  0.16500000000E+002,  0.00000000000E+000,  0.10000000000E+001
  0.34003100000E+005,  0.29769365655E+007,  0.16500000000E+002,  0.00000000000E+000,  0.10000000000E+001
  0.34013100000E+005,  0.29782707365E+007,  0.16500000000E+002,  0.00000000000E+000,  0.10000000000E+001
  0.34023100000E+005,  0.29795929757E+007,  0.16500000000E+002,  0.00000000000E+000,  0.10000000000E+001
  0.34033100000E+005,  0.29809034300E+007,  0.16500000000E+002,  0.00000000000E+000,  0.10000000000E+001
  0.34043100000E+005,  0.29822022441E+007,  0.16500000000E+002,  0.00000000000E+000,  0.10000000000E+001
  0.34053100000E+005,  0.29834895602E+007,  0.16500000000E+002,  0.00000000000E+000,  0.10000000000E+001
  0.34063100000E+005,  0.29847655181E+007,  0.16500000000E+002,  0.00000000000E+000,  0.10000000000E+001
  0.34073100000E+005,  0.29860302555E+007,  0.16500000000E+002,  0.00000000000E+000,  0.10000000000E+001
  0.34083100000E+005,  0.29872839078E+007,  0.16500000000E+002,  0.00000000000E+000,  0.10000000000E+001
  0.34093100000E+005,  0.29885266081E+007,  0.16500000000E+002,  0.00000000000E+000,  0.10000000000E+001
  0.34103100000E+005,  0.29897584875E+007,  0.16500000000E+002,  0.00000000000E+000,  0.10000000000E+001
  0.34113100000E+005,  0.29909796751E+007,  0.16500000000E+002,  0.00000000000E+000,  0.10000000000E+001
  0.34123100000E+005,  0.29921902979E+007,  0.16500000000E+002,  0.00000000000E+000,  0.10000000000E+001
  0.34133100000E+005,  0.29933904809E+007,  0.16500000000E+002,  0.00000000000E+000,  0.10000000000E+001
  0.34143100000E+005,  0.29945803471E+007,  0.16500000000E+002,  0.00000000000E+000,  0.10000000000E+001
  0.34153100000E+005,  0.29957600176E+007,  0.16500000000E+002,  0.00000000000E+000,  0.10000000000E+001
  0.34163100000E+005,  0.29969296117E+007,  0.16500000000E+002,  0.00000000000E+000,  0.10000000000E+001
  0.34173100000E+005,  0.29980892468E+007,  0.16500000000E+002,  0.00000000000E+000,  0.10000000000E+001
  0.34183100000E+005,  0.29992390387E+007,  0.16500000000E+002,  0.00000000000E+000,  0.10000000000E+001
  0.34193100000E+005,  0.30003791011E+007,  0.16500000000E+002,  0.00000000000E+000,  0.10000000000E+001
  0.34203100000E+005,  0.30015095462E+007,  0.16500000000E+002,  0.00000000000E+000,  0.10000000000E+001
  0.34213100000E+005,  0.30026304846E+007,  0.16500000000E+002,  0.00000000000E+000,  0.10000000000E+001
  0.34223100000E+005,  0.30037420249E+007,  0.16500000000E+002,  0.00000000000E+000,  0.10000000000E+001
  0.34233100000E+005,  0.30048442746E+007,  0.16500000000E+002,  0.00000000000E+000,  0.10000000000E+001
  0.34243100000E+005,  0.30059373390E+007,  0.16500000000E+002,  0.00000000000E+000,  0.10000000000E+001
  0.34253100000E+005,  0.30070213223E+007,  0.16500000000E+002,  0.00000000000E+000,  0.10000000000E+001
  0.34263100000E+005,  0.30080963270E+007,  0.16500000000E+002,  0.00000000000E+000,  0.10000000000E+001
  0.34273100000E+005,  0.30091624540E+007,  0.16500000000E+002,  0.00000000000E+000,  0.10000000000E+001
  0.34283100000E+005,  0.30102198030E+007,  0.16500000000E+002,  0.00000000000E+000,  0.10000000000E+001
  0.34293100000E+005,  0.30112684720E+007,  0.16500000000E+002,  0.00000000000E+000,  0.10000000000E+001
  0.34303100000E+005,  0.30123085577E+007,  0.16500000000E+002,  0.00000000000E+000,  0.10000000000E+001
  0.34313100000E+005,  0.30133401553E+007,  0.16500000000E+002,  0.00000000000E+000,  0.10000000000E+001
  0.34323100000E+005,  0.30143633587E+007,  0.16500000000E+002,  0.00000000000E+000,  0.10000000000E+001
  0.34333100000E+005,  0.30153782606E+007,  0.16500000000E+002,  0.00000000000E+000,  0.10000000000E+001
  0.34343100000E+005,  0.30163849521E+007,  0.16500000000E+002,  0.00000000000E+000,  0.10000000000E+001
  0.34353100000E+005,  0.30173835232E+007,  0.16500000000E+002,  0.00000000000E+000,  0.10000000000E+001
  0.34363100000E+005,  0.30183740626E+007,  0.16500000000E+002,  0.00000000000E+000,  0.10000000000E+001
  0.34373100000E+005,  0.30193566576E+007,  0.16500000000E+002,  0.00000000000E+000,  0.10000000000E+001
  0.34383100000E+005,  0.30203313946E+007,  0.16500000000E+002,  0.00000000000E+000,  0.10000000000E+001
  0.34393100000E+005,  0.30212983584E+007,  0.16500000000E+002,  0.00000000000E+000,  0.10000000000E+001
  0.34403100000E+005,  0.30222576328E+007,  0.16500000000E+002,  0.00000000000E+000,  0.10000000000E+001
