"           TIME(S)","              PRES","              TEMP","             SAT_G","             SAT_L"
  0.32470020000E+005,  0.18555343592E+006,  0.16500000000E+002,  0.00000000000E+000,  0.10000000000E+001
  0.32470120000E+005,  0.19058129799E+006,  0.16500000000E+002,  0.00000000000E+000,  0.10000000000E+001
  0.32470420000E+005,  0.20628989456E+006,  0.16500000000E+002,  0.00000000000E+000,  0.10000000000E+001
  0.32470720000E+005,  0.22191243292E+006,  0.16500000000E+002,  0.00000000000E+000,  0.10000000000E+001
  0.32471020000E+005,  0.23742928907E+006,  0.16500000000E+002,  0.00000000000E+000,  0.10000000000E+001
  0.32471320000E+005,  0.25286869145E+006,  0.16500000000E+002,  0.00000000000E+000,  0.10000000000E+001
  0.32471620000E+005,  0.26824671154E+006,  0.16500000000E+002,  0.00000000000E+000,  0.10000000000E+001
  0.32471920000E+005,  0.28356988269E+006,  0.16500000000E+002,  0.00000000000E+000,  0.10000000000E+001
  0.32472220000E+005,  0.29884107268E+006,  0.16500000000E+002,  0.00000000000E+000,  0.10000000000E+001
  0.32472520000E+005,  0.31406162762E+006,  0.16500000000E+002,  0.00000000000E+000,  0.10000000000E+001
  0.32472820000E+005,  0.32923228706E+006,  0.16500000000E+002,  0.00000000000E+000,  0.10000000000E+001
  0.32473120000E+005,  0.34435355844E+006,  0.16500000000E+002,  0.00000000000E+000,  0.10000000000E+001
  0.32473420000E+005,  0.35942586172E+006,  0.16500000000E+002,  0.00000000000E+000,  0.10000000000E+001
  0.32473720000E+005,  0.37444958357E+006,  0.16500000000E+002,  0.00000000000E+000,  0.10000000000E+001
  0.32474020000E+005,  0.38942509695E+006,  0.16500000000E+002,  0.00000000000E+000,  0.10000000000E+001
  0.32474320000E+005,  0.40435276820E+006,  0.16500000000E+002,  0.00000000000E+000,  0.10000000000E+001
  0.32474620000E+005,  0.41923295982E+006,  0.16500000000E+002,  0.00000000000E+000,  0.10000000000E+001
  0.32474920000E+005,  0.43406603121E+006,  0.16500000000E+002,  0.00000000000E+000,  0.10000000000E+001
  0.32475220000E+005,  0.44885233890E+006,  0.16500000000E+002,  0.00000000000E+000,  0.10000000000E+001
  0.32475520000E+005,  0.46359223677E+006,  0.16500000000E+002,  0.00000000000E+000,  0.10000000000E+001
  0.32475820000E+005,  0.47828607595E+006,  0.16500000000E+002,  0.00000000000E+000,  0.10000000000E+001
  0.32476120000E+005,  0.49293420475E+006,  0.16500000000E+002,  0.00000000000E+000,  0.10000000000E+001
  0.32476420000E+005,  0.50753694458E+006,  0.16500000000E+002,  0.00000000000E+000,  0.10000000000E+001
  0.32476720000E+005,  0.52209444939E+006,  0.16500000000E+002,  0.00000000000E+000,  0.10000000000E+001
  0.32477020000E+005,  0.53660697165E+006,  0.16500000000E+002,  0.00000000000E+000,  0.10000000000E+001
  0.32477320000E+005,  0.55107482644E+006,  0.16500000000E+002,  0.00000000000E+000,  0.10000000000E+001
  0.32477620000E+005,  0.56549712547E+006,  0.16500000000E+002,  0.00000000000E+000,  0.10000000000E+001
  0.32477920000E+005,  0.57987439738E+006,  0.16500000000E+002,  0.00000000000E+000,  0.10000000000E+001
  0.32478220000E+005,  0.59420488699E+006,  0.16500000000E+002,  0.00000000000E+000,  0.10000000000E+001
  0.32478520000E+005,  0.60849037924E+006,  0.16500000000E+002,  0.00000000000E+000,  0.10000000000E+001
  0.32478820000E+005,  0.62271041853E+006,  0.16500000000E+002,  0.00000000000E+000,  0.10000000000E+001
  0.32479120000E+005,  0.63688325701E+006,  0.16500000000E+002,  0.00000000000E+000,  0.10000000000E+001
  0.32479420000E+005,  0.65101137661E+006,  0.16500000000E+002,  0.00000000000E+000,  0.10000000000E+001
  0.32479720000E+005,  0.66510929664E+006,  0.16500000000E+002,  0.00000000000E+000,  0.10000000000E+001
  0.32480020000E+005,  0.67917633670E+006,  0.16500000000E+002,  0.00000000000E+000,  0.10000000000E+001
  0.32480320000E+005,  0.69320181799E+006,  0.16500000000E+002,  0.00000000000E+000,  0.10000000000E+001
  0.32480620000E+005,  0.70801852750E+006,  0.16500000000E+002,  0.00000000000E+000,  0.10000000000E+001
  0.32480920000E+005,  0.72621356029E+006,  0.16500000000E+002,  0.00000000000E+000,  0.10000000000E+001
  0.32481220000E+005,  0.74443617571E+006,  0.16500000000E+002,  0.00000000000E+000,  0.10000000000E+001
  0.32481520000E+005,  0.76259505631E+006,  0.16500000000E+002,  0.00000000000E+000,  0.10000000000E+001
  0.32481820000E+005,  0.90536379692E+006,  0.16500000000E+002,  0.00000000000E+000,  0.10000000000E+001
  0.32482120000E+005,  0.10703730257E+007,  0.16500000000E+002,  0.00000000000E+000,  0.10000000000E+001
  0.32482420000E+005,  0.12350270080E+007,  0.16500000000E+002,  0.00000000000E+000,  0.10000000000E+001
  0.32482720000E+005,  0.13987682316E+007,  0.16500000000E+002,  0.00000000000E+000,  0.10000000000E+001
  0.32483020000E+005,  0.15617520670E+007,  0.16500000000E+002,  0.00000000000E+000,  0.10000000000E+001
  0.32483320000E+005,  0.17240926594E+007,  0.16500000000E+002,  0.00000000000E+000,  0.10000000000E+001
  0.32483620000E+005,  0.18858431752E+007,  0.16500000000E+002,  0.00000000000E+000,  0.10000000000E+001
  0.32483920000E+005,  0.20470271702E+007,  0.16500000000E+002,  0.00000000000E+000,  0.10000000000E+001
  0.32484220000E+005,  0.22076561396E+007,  0.16500000000E+002,  0.00000000000E+000,  0.10000000000E+001
  0.32484520000E+005,  0.23677369459E+007,  0.16500000000E+002,  0.00000000000E+000,  0.10000000000E+001
  0.32484820000E+005,  0.25272747099E+007,  0.16500000000E+002,  0.00000000000E+000,  0.10000000000E+001
  0.32485120000E+005,  0.26862738959E+007,  0.16500000000E+002,  0.00000000000E+000,  0.10000000000E+001
  0.32485420000E+005,  0.28447387118E+007,  0.16500000000E+002,  0.00000000000E+000,  0.10000000000E+001
  0.32485720000E+005,  0.30026732559E+007,  0.16500000000E+002,  0.00000000000E+000,  0.10000000000E+001
  0.32486020000E+005,  0.31600815696E+007,  0.16500000000E+002,  0.00000000000E+000,  0.10000000000E+001
  0.32486320000E+005,  0.33169676564E+007,  0.16500000000E+002,  0.00000000000E+000,  0.10000000000E+001
  0.32486620000E+005,  0.34733354875E+007,  0.16500000000E+002,  0.00000000000E+000,  0.10000000000E+001
  0.32486920000E+005,  0.36291890040E+007,  0.16500000000E+002,  0.00000000000E+000,  0.10000000000E+001
  0.32487220000E+005,  0.37845321172E+007,  0.16500000000E+002,  0.00000000000E+000,  0.10000000000E+001
  0.32487520000E+005,  0.39393684556E+007,  0.16500000000E+002,  0.00000000000E+000,  0.10000000000E+001
  0.32487820000E+005,  0.40936863186E+007,  0.16500000000E+002,  0.00000000000E+000,  0.10000000000E+001
  0.32488120000E+005,  0.42474937793E+007,  0.16500000000E+002,  0.00000000000E+000,  0.10000000000E+001
  0.32488420000E+005,  0.44007760837E+007,  0.16500000000E+002,  0.00000000000E+000,  0.10000000000E+001
  0.32488720000E+005,  0.45535482278E+007,  0.16500000000E+002,  0.00000000000E+000,  0.10000000000E+001
  0.32489020000E+005,  0.47058215198E+007,  0.16500000000E+002,  0.00000000000E+000,  0.10000000000E+001
  0.32489320000E+005,  0.48575979132E+007,  0.16500000000E+002,  0.00000000000E+000,  0.10000000000E+001
  0.32489620000E+005,  0.50088712745E+007,  0.16500000000E+002,  0.00000000000E+000,  0.10000000000E+001
  0.32489920000E+005,  0.51596600602E+007,  0.16500000000E+002,  0.00000000000E+000,  0.10000000000E+001
  0.32490220000E+005,  0.53099678421E+007,  0.16500000000E+002,  0.00000000000E+000,  0.10000000000E+001
  0.32490520000E+005,  0.54597977421E+007,  0.16500000000E+002,  0.00000000000E+000,  0.10000000000E+001
  0.32490820000E+005,  0.56091533079E+007,  0.16500000000E+002,  0.00000000000E+000,  0.10000000000E+001
  0.32491120000E+005,  0.57580382666E+007,  0.16500000000E+002,  0.00000000000E+000,  0.10000000000E+001
  0.32491420000E+005,  0.59064563840E+007,  0.16500000000E+002,  0.00000000000E+000,  0.10000000000E+001
  0.32491720000E+005,  0.60544114093E+007,  0.16500000000E+002,  0.00000000000E+000,  0.10000000000E+001
  0.32492020000E+005,  0.62019070554E+007,  0.16500000000E+002,  0.00000000000E+000,  0.10000000000E+001
  0.32492320000E+005,  0.63489469916E+007,  0.16500000000E+002,  0.00000000000E+000,  0.10000000000E+001
  0.32492620000E+005,  0.64955348422E+007,  0.16500000000E+002,  0.00000000000E+000,  0.10000000000E+001
  0.32492920000E+005,  0.66416741858E+007,  0.16500000000E+002,  0.00000000000E+000,  0.10000000000E+001
  0.32493220000E+005,  0.67873685558E+007,  0.16500000000E+002,  0.00000000000E+000,  0.10000000000E+001
  0.32493520000E+005,  0.69326214411E+007,  0.16500000000E+002,  0.00000000000E+000,  0.10000000000E+001
  0.32493820000E+005,  0.70774362867E+007,  0.16500000000E+002,  0.00000000000E+000,  0.10000000000E+001
  0.32494120000E+005,  0.72218164944E+007,  0.16500000000E+002,  0.00000000000E+000,  0.10000000000E+001
  0.32494420000E+005,  0.73657654235E+007,  0.16500000000E+002,  0.00000000000E+000,  0.10000000000E+001
  0.32494720000E+005,  0.75092863917E+007,  0.16500000000E+002,  0.00000000000E+000,  0.10000000000E+001
  0.32495020000E+005,  0.76523826754E+007,  0.16500000000E+002,  0.00000000000E+000,  0.10000000000E+001
  0.32495320000E+005,  0.77950575106E+007,  0.16500000000E+002,  0.00000000000E+000,  0.10000000000E+001
  0.32495620000E+005,  0.79373140936E+007,  0.16500000000E+002,  0.00000000000E+000,  0.10000000000E+001
  0.32495920000E+005,  0.80791555815E+007,  0.16500000000E+002,  0.00000000000E+000,  0.10000000000E+001
  0.32496220000E+005,  0.82205841749E+007,  0.16500000000E+002,  0.00000000000E+000,  0.10000000000E+001
  0.32496520000E+005,  0.83615744469E+007,  0.16500000000E+002,  0.00000000000E+000,  0.10000000000E+001
  0.32496820000E+005,  0.85021428349E+007,  0.16500000000E+002,  0.00000000000E+000,  0.10000000000E+001
  0.32497120000E+005,  0.86423018871E+007,  0.16500000000E+002,  0.00000000000E+000,  0.10000000000E+001
  0.32497420000E+005,  0.87820579645E+007,  0.16500000000E+002,  0.00000000000E+000,  0.10000000000E+001
  0.32497720000E+005,  0.89214152460E+007,  0.16500000000E+002,  0.00000000000E+000,  0.10000000000E+001
  0.32498020000E+005,  0.90603771134E+007,  0.16500000000E+002,  0.00000000000E+000,  0.10000000000E+001
  0.32498320000E+005,  0.91989466366E+007,  0.16500000000E+002,  0.00000000000E+000,  0.10000000000E+001
  0.32498620000E+005,  0.93371267495E+007,  0.16500000000E+002,  0.00000000000E+000,  0.10000000000E+001
  0.32498920000E+005,  0.94749203137E+007,  0.16500000000E+002,  0.00000000000E+000,  0.10000000000E+001
  0.32499220000E+005,  0.96123301432E+007,  0.16500000000E+002,  0.00000000000E+000,  0.10000000000E+001
  0.32499520000E+005,  0.97493588424E+007,  0.16500000000E+002,  0.00000000000E+000,  0.10000000000E+001
  0.32499820000E+005,  0.98860090487E+007,  0.16500000000E+002,  0.00000000000E+000,  0.10000000000E+001
  0.32500000000E+005,  0.99678595625E+007,  0.16500000000E+002,  0.00000000000E+000,  0.10000000000E+001
