"           TIME(S)","              PRES","              TEMP","             SAT_G","             SAT_L"
  0.32471000000E+005,  0.11713959634E+006,  0.16500000000E+002,  0.00000000000E+000,  0.10000000000E+001
  0.32476000000E+005,  0.11713957477E+006,  0.16500000000E+002,  0.00000000000E+000,  0.10000000000E+001
  0.32501000000E+005,  0.11713958285E+006,  0.16500000000E+002,  0.00000000000E+000,  0.10000000000E+001
  0.32561000000E+005,  0.11714656635E+006,  0.16500000000E+002,  0.00000000000E+000,  0.10000000000E+001
  0.32621000000E+005,  0.11718074418E+006,  0.16500000000E+002,  0.00000000000E+000,  0.10000000000E+001
  0.32681000000E+005,  0.11728188924E+006,  0.16500000000E+002,  0.00000000000E+000,  0.10000000000E+001
  0.32741000000E+005,  0.11750608574E+006,  0.16500000000E+002,  0.00000000000E+000,  0.10000000000E+001
  0.32801000000E+005,  0.11791946592E+006,  0.16500000000E+002,  0.00000000000E+000,  0.10000000000E+001
  0.32861000000E+005,  0.11859003032E+006,  0.16500000000E+002,  0.00000000000E+000,  0.10000000000E+001
  0.32921000000E+005,  0.11958035253E+006,  0.16500000000E+002,  0.00000000000E+000,  0.10000000000E+001
  0.32981000000E+005,  0.12094246272E+006,  0.16500000000E+002,  0.00000000000E+000,  0.10000000000E+001
  0.33041000000E+005,  0.12271515367E+006,  0.16500000000E+002,  0.00000000000E+000,  0.10000000000E+001
  0.33101000000E+005,  0.12492334382E+006,  0.16500000000E+002,  0.00000000000E+000,  0.10000000000E+001
  0.33161000000E+005,  0.12757889886E+006,  0.16500000000E+002,  0.00000000000E+000,  0.10000000000E+001
  0.33221000000E+005,  0.13068231762E+006,  0.16500000000E+002,  0.00000000000E+000,  0.10000000000E+001
  0.33281000000E+005,  0.13422480335E+006,  0.16500000000E+002,  0.00000000000E+000,  0.10000000000E+001
  0.33341000000E+005,  0.13819038506E+006,  0.16500000000E+002,  0.00000000000E+000,  0.10000000000E+001
  0.33401000000E+005,  0.14255788383E+006,  0.16500000000E+002,  0.00000000000E+000,  0.10000000000E+001
  0.33461000000E+005,  0.14730261844E+006,  0.16500000000E+002,  0.00000000000E+000,  0.10000000000E+001
  0.33521000000E+005,  0.15239781354E+006,  0.16500000000E+002,  0.00000000000E+000,  0.10000000000E+001
  0.33581000000E+005,  0.15781571547E+006,  0.16500000000E+002,  0.00000000000E+000,  0.10000000000E+001
  0.33641000000E+005,  0.16352844438E+006,  0.16500000000E+002,  0.00000000000E+000,  0.10000000000E+001
  0.33701000000E+005,  0.16950862087E+006,  0.16500000000E+002,  0.00000000000E+000,  0.10000000000E+001
  0.33761000000E+005,  0.17572980776E+006,  0.16500000000E+002,  0.00000000000E+000,  0.10000000000E+001
  0.33821000000E+005,  0.18216680473E+006,  0.16500000000E+002,  0.00000000000E+000,  0.10000000000E+001
  0.33881000000E+005,  0.18879582946E+006,  0.16500000000E+002,  0.00000000000E+000,  0.10000000000E+001
  0.33941000000E+005,  0.19559461286E+006,  0.16500000000E+002,  0.00000000000E+000,  0.10000000000E+001
  0.34001000000E+005,  0.20254243141E+006,  0.16500000000E+002,  0.00000000000E+000,  0.10000000000E+001
  0.34061000000E+005,  0.20962009441E+006,  0.16500000000E+002,  0.00000000000E+000,  0.10000000000E+001
  0.34121000000E+005,  0.21680990012E+006,  0.16500000000E+002,  0.00000000000E+000,  0.10000000000E+001
  0.34181000000E+005,  0.22409557151E+006,  0.16500000000E+002,  0.00000000000E+000,  0.10000000000E+001
  0.34241000000E+005,  0.23146217936E+006,  0.16500000000E+002,  0.00000000000E+000,  0.10000000000E+001
  0.34301000000E+005,  0.23889605868E+006,  0.16500000000E+002,  0.00000000000E+000,  0.10000000000E+001
  0.34361000000E+005,  0.24638472248E+006,  0.16500000000E+002,  0.00000000000E+000,  0.10000000000E+001
  0.34421000000E+005,  0.25391677602E+006,  0.16500000000E+002,  0.00000000000E+000,  0.10000000000E+001
  0.34481000000E+005,  0.26148183330E+006,  0.16500000000E+002,  0.00000000000E+000,  0.10000000000E+001
  0.34541000000E+005,  0.26907043723E+006,  0.16500000000E+002,  0.00000000000E+000,  0.10000000000E+001
  0.34601000000E+005,  0.27667398428E+006,  0.16500000000E+002,  0.00000000000E+000,  0.10000000000E+001
  0.34661000000E+005,  0.28428465381E+006,  0.16500000000E+002,  0.00000000000E+000,  0.10000000000E+001
  0.34721000000E+005,  0.29189534258E+006,  0.16500000000E+002,  0.00000000000E+000,  0.10000000000E+001
  0.34781000000E+005,  0.29949960411E+006,  0.16500000000E+002,  0.00000000000E+000,  0.10000000000E+001
  0.34841000000E+005,  0.30709159281E+006,  0.16500000000E+002,  0.00000000000E+000,  0.10000000000E+001
  0.34901000000E+005,  0.31466601285E+006,  0.16500000000E+002,  0.00000000000E+000,  0.10000000000E+001
  0.34961000000E+005,  0.32221807116E+006,  0.16500000000E+002,  0.00000000000E+000,  0.10000000000E+001
  0.35021000000E+005,  0.32974343462E+006,  0.16500000000E+002,  0.00000000000E+000,  0.10000000000E+001
  0.35081000000E+005,  0.33723819085E+006,  0.16500000000E+002,  0.00000000000E+000,  0.10000000000E+001
  0.35141000000E+005,  0.34469881250E+006,  0.16500000000E+002,  0.00000000000E+000,  0.10000000000E+001
  0.35201000000E+005,  0.35212212461E+006,  0.16500000000E+002,  0.00000000000E+000,  0.10000000000E+001
  0.35261000000E+005,  0.35950527491E+006,  0.16500000000E+002,  0.00000000000E+000,  0.10000000000E+001
  0.35321000000E+005,  0.36684570668E+006,  0.16500000000E+002,  0.00000000000E+000,  0.10000000000E+001
  0.35381000000E+005,  0.37414113401E+006,  0.16500000000E+002,  0.00000000000E+000,  0.10000000000E+001
  0.35441000000E+005,  0.38138951919E+006,  0.16500000000E+002,  0.00000000000E+000,  0.10000000000E+001
  0.35501000000E+005,  0.38858905209E+006,  0.16500000000E+002,  0.00000000000E+000,  0.10000000000E+001
  0.35561000000E+005,  0.39573813130E+006,  0.16500000000E+002,  0.00000000000E+000,  0.10000000000E+001
  0.35621000000E+005,  0.40283534688E+006,  0.16500000000E+002,  0.00000000000E+000,  0.10000000000E+001
  0.35681000000E+005,  0.40987946460E+006,  0.16500000000E+002,  0.00000000000E+000,  0.10000000000E+001
  0.35741000000E+005,  0.41686941146E+006,  0.16500000000E+002,  0.00000000000E+000,  0.10000000000E+001
  0.35801000000E+005,  0.42380426247E+006,  0.16500000000E+002,  0.00000000000E+000,  0.10000000000E+001
  0.35861000000E+005,  0.43068322850E+006,  0.16500000000E+002,  0.00000000000E+000,  0.10000000000E+001
  0.35921000000E+005,  0.43750564512E+006,  0.16500000000E+002,  0.00000000000E+000,  0.10000000000E+001
  0.35981000000E+005,  0.44427096237E+006,  0.16500000000E+002,  0.00000000000E+000,  0.10000000000E+001
  0.36041000000E+005,  0.45097863061E+006,  0.16500000000E+002,  0.00000000000E+000,  0.10000000000E+001
  0.36101000000E+005,  0.45762791675E+006,  0.16500000000E+002,  0.00000000000E+000,  0.10000000000E+001
  0.36161000000E+005,  0.46421778998E+006,  0.16500000000E+002,  0.00000000000E+000,  0.10000000000E+001
  0.36221000000E+005,  0.47074694150E+006,  0.16500000000E+002,  0.00000000000E+000,  0.10000000000E+001
  0.36281000000E+005,  0.47721390909E+006,  0.16500000000E+002,  0.00000000000E+000,  0.10000000000E+001
  0.36341000000E+005,  0.48361724140E+006,  0.16500000000E+002,  0.00000000000E+000,  0.10000000000E+001
  0.36401000000E+005,  0.48995564738E+006,  0.16500000000E+002,  0.00000000000E+000,  0.10000000000E+001
  0.36461000000E+005,  0.49622810211E+006,  0.16500000000E+002,  0.00000000000E+000,  0.10000000000E+001
  0.36521000000E+005,  0.50243390255E+006,  0.16500000000E+002,  0.00000000000E+000,  0.10000000000E+001
  0.36581000000E+005,  0.50857268003E+006,  0.16500000000E+002,  0.00000000000E+000,  0.10000000000E+001
  0.36641000000E+005,  0.51464438186E+006,  0.16500000000E+002,  0.00000000000E+000,  0.10000000000E+001
  0.36701000000E+005,  0.52064923421E+006,  0.16500000000E+002,  0.00000000000E+000,  0.10000000000E+001
  0.36761000000E+005,  0.52658769643E+006,  0.16500000000E+002,  0.00000000000E+000,  0.10000000000E+001
  0.36821000000E+005,  0.53246041401E+006,  0.16500000000E+002,  0.00000000000E+000,  0.10000000000E+001
  0.36881000000E+005,  0.53826817449E+006,  0.16500000000E+002,  0.00000000000E+000,  0.10000000000E+001
  0.36941000000E+005,  0.54401186885E+006,  0.16500000000E+002,  0.00000000000E+000,  0.10000000000E+001
  0.37001000000E+005,  0.54969245904E+006,  0.16500000000E+002,  0.00000000000E+000,  0.10000000000E+001
  0.37061000000E+005,  0.55531095176E+006,  0.16500000000E+002,  0.00000000000E+000,  0.10000000000E+001
  0.37121000000E+005,  0.56086837797E+006,  0.16500000000E+002,  0.00000000000E+000,  0.10000000000E+001
  0.37181000000E+005,  0.56636577723E+006,  0.16500000000E+002,  0.00000000000E+000,  0.10000000000E+001
  0.37241000000E+005,  0.57180418620E+006,  0.16500000000E+002,  0.00000000000E+000,  0.10000000000E+001
  0.37301000000E+005,  0.57718463025E+006,  0.16500000000E+002,  0.00000000000E+000,  0.10000000000E+001
  0.37361000000E+005,  0.58250811781E+006,  0.16500000000E+002,  0.00000000000E+000,  0.10000000000E+001
  0.37421000000E+005,  0.58777563660E+006,  0.16500000000E+002,  0.00000000000E+000,  0.10000000000E+001
  0.37481000000E+005,  0.59298811414E+006,  0.16500000000E+002,  0.00000000000E+000,  0.10000000000E+001
  0.37541000000E+005,  0.59814655934E+006,  0.16500000000E+002,  0.00000000000E+000,  0.10000000000E+001
  0.37601000000E+005,  0.60325227278E+006,  0.16500000000E+002,  0.00000000000E+000,  0.10000000000E+001
  0.37661000000E+005,  0.60830695240E+006,  0.16500000000E+002,  0.00000000000E+000,  0.10000000000E+001
  0.37721000000E+005,  0.61331264610E+006,  0.16500000000E+002,  0.00000000000E+000,  0.10000000000E+001
  0.37781000000E+005,  0.61827160082E+006,  0.16500000000E+002,  0.00000000000E+000,  0.10000000000E+001
  0.37841000000E+005,  0.62318608140E+006,  0.16500000000E+002,  0.00000000000E+000,  0.10000000000E+001
  0.37901000000E+005,  0.62805821357E+006,  0.16500000000E+002,  0.00000000000E+000,  0.10000000000E+001
  0.37961000000E+005,  0.63288987666E+006,  0.16500000000E+002,  0.00000000000E+000,  0.10000000000E+001
  0.38021000000E+005,  0.63768264927E+006,  0.16500000000E+002,  0.00000000000E+000,  0.10000000000E+001
  0.38081000000E+005,  0.64243779861E+006,  0.16500000000E+002,  0.00000000000E+000,  0.10000000000E+001
  0.38141000000E+005,  0.64715630018E+006,  0.16500000000E+002,  0.00000000000E+000,  0.10000000000E+001
  0.38201000000E+005,  0.65183887502E+006,  0.16500000000E+002,  0.00000000000E+000,  0.10000000000E+001
  0.38261000000E+005,  0.65648603443E+006,  0.16500000000E+002,  0.00000000000E+000,  0.10000000000E+001
  0.38321000000E+005,  0.66109812536E+006,  0.16500000000E+002,  0.00000000000E+000,  0.10000000000E+001
  0.38381000000E+005,  0.66567537213E+006,  0.16500000000E+002,  0.00000000000E+000,  0.10000000000E+001
  0.38441000000E+005,  0.67021791260E+006,  0.16500000000E+002,  0.00000000000E+000,  0.10000000000E+001
  0.38501000000E+005,  0.67472582797E+006,  0.16500000000E+002,  0.00000000000E+000,  0.10000000000E+001
  0.38561000000E+005,  0.67919916633E+006,  0.16500000000E+002,  0.00000000000E+000,  0.10000000000E+001
  0.38621000000E+005,  0.68363796086E+006,  0.16500000000E+002,  0.00000000000E+000,  0.10000000000E+001
  0.38681000000E+005,  0.68804224309E+006,  0.16500000000E+002,  0.00000000000E+000,  0.10000000000E+001
  0.38741000000E+005,  0.69241205250E+006,  0.16500000000E+002,  0.00000000000E+000,  0.10000000000E+001
  0.38801000000E+005,  0.69674744292E+006,  0.16500000000E+002,  0.00000000000E+000,  0.10000000000E+001
  0.38861000000E+005,  0.70104848661E+006,  0.16500000000E+002,  0.00000000000E+000,  0.10000000000E+001
  0.38921000000E+005,  0.70531527656E+006,  0.16500000000E+002,  0.00000000000E+000,  0.10000000000E+001
  0.38981000000E+005,  0.70954792739E+006,  0.16500000000E+002,  0.00000000000E+000,  0.10000000000E+001
  0.39041000000E+005,  0.71374657542E+006,  0.16500000000E+002,  0.00000000000E+000,  0.10000000000E+001
  0.39101000000E+005,  0.71791137803E+006,  0.16500000000E+002,  0.00000000000E+000,  0.10000000000E+001
  0.39161000000E+005,  0.72204251250E+006,  0.16500000000E+002,  0.00000000000E+000,  0.10000000000E+001
  0.39221000000E+005,  0.72614017474E+006,  0.16500000000E+002,  0.00000000000E+000,  0.10000000000E+001
  0.39281000000E+005,  0.73020457774E+006,  0.16500000000E+002,  0.00000000000E+000,  0.10000000000E+001
  0.39341000000E+005,  0.73423594997E+006,  0.16500000000E+002,  0.00000000000E+000,  0.10000000000E+001
  0.39401000000E+005,  0.73823453389E+006,  0.16500000000E+002,  0.00000000000E+000,  0.10000000000E+001
  0.39461000000E+005,  0.74220058431E+006,  0.16500000000E+002,  0.00000000000E+000,  0.10000000000E+001
  0.39521000000E+005,  0.74613436701E+006,  0.16500000000E+002,  0.00000000000E+000,  0.10000000000E+001
  0.39581000000E+005,  0.75003615729E+006,  0.16500000000E+002,  0.00000000000E+000,  0.10000000000E+001
  0.39641000000E+005,  0.75390623873E+006,  0.16500000000E+002,  0.00000000000E+000,  0.10000000000E+001
  0.39701000000E+005,  0.75774490194E+006,  0.16500000000E+002,  0.00000000000E+000,  0.10000000000E+001
  0.39761000000E+005,  0.76155244352E+006,  0.16500000000E+002,  0.00000000000E+000,  0.10000000000E+001
  0.39821000000E+005,  0.76532916502E+006,  0.16500000000E+002,  0.00000000000E+000,  0.10000000000E+001
  0.39881000000E+005,  0.76907537201E+006,  0.16500000000E+002,  0.00000000000E+000,  0.10000000000E+001
  0.39941000000E+005,  0.77279137330E+006,  0.16500000000E+002,  0.00000000000E+000,  0.10000000000E+001
  0.40001000000E+005,  0.77647748016E+006,  0.16500000000E+002,  0.00000000000E+000,  0.10000000000E+001
  0.40061000000E+005,  0.78013400564E+006,  0.16500000000E+002,  0.00000000000E+000,  0.10000000000E+001
  0.40121000000E+005,  0.78376126397E+006,  0.16500000000E+002,  0.00000000000E+000,  0.10000000000E+001
  0.40181000000E+005,  0.78735957001E+006,  0.16500000000E+002,  0.00000000000E+000,  0.10000000000E+001
  0.40241000000E+005,  0.79092923877E+006,  0.16500000000E+002,  0.00000000000E+000,  0.10000000000E+001
  0.40301000000E+005,  0.79447058494E+006,  0.16500000000E+002,  0.00000000000E+000,  0.10000000000E+001
  0.40361000000E+005,  0.79798392253E+006,  0.16500000000E+002,  0.00000000000E+000,  0.10000000000E+001
  0.40421000000E+005,  0.80146956451E+006,  0.16500000000E+002,  0.00000000000E+000,  0.10000000000E+001
  0.40481000000E+005,  0.80492782248E+006,  0.16500000000E+002,  0.00000000000E+000,  0.10000000000E+001
  0.40541000000E+005,  0.80835900641E+006,  0.16500000000E+002,  0.00000000000E+000,  0.10000000000E+001
  0.40601000000E+005,  0.81176342439E+006,  0.16500000000E+002,  0.00000000000E+000,  0.10000000000E+001
  0.40661000000E+005,  0.81514138241E+006,  0.16500000000E+002,  0.00000000000E+000,  0.10000000000E+001
  0.40721000000E+005,  0.81849318414E+006,  0.16500000000E+002,  0.00000000000E+000,  0.10000000000E+001
  0.40781000000E+005,  0.82181913081E+006,  0.16500000000E+002,  0.00000000000E+000,  0.10000000000E+001
  0.40841000000E+005,  0.82511952104E+006,  0.16500000000E+002,  0.00000000000E+000,  0.10000000000E+001
  0.40901000000E+005,  0.82839465067E+006,  0.16500000000E+002,  0.00000000000E+000,  0.10000000000E+001
  0.40961000000E+005,  0.83164481272E+006,  0.16500000000E+002,  0.00000000000E+000,  0.10000000000E+001
  0.41021000000E+005,  0.83487029722E+006,  0.16500000000E+002,  0.00000000000E+000,  0.10000000000E+001
  0.41081000000E+005,  0.83807139116E+006,  0.16500000000E+002,  0.00000000000E+000,  0.10000000000E+001
  0.41141000000E+005,  0.84124837844E+006,  0.16500000000E+002,  0.00000000000E+000,  0.10000000000E+001
  0.41201000000E+005,  0.84440153976E+006,  0.16500000000E+002,  0.00000000000E+000,  0.10000000000E+001
  0.41261000000E+005,  0.84753115260E+006,  0.16500000000E+002,  0.00000000000E+000,  0.10000000000E+001
  0.41321000000E+005,  0.85063749117E+006,  0.16500000000E+002,  0.00000000000E+000,  0.10000000000E+001
  0.41381000000E+005,  0.85372082639E+006,  0.16500000000E+002,  0.00000000000E+000,  0.10000000000E+001
  0.41441000000E+005,  0.85678142586E+006,  0.16500000000E+002,  0.00000000000E+000,  0.10000000000E+001
  0.41501000000E+005,  0.85981955380E+006,  0.16500000000E+002,  0.00000000000E+000,  0.10000000000E+001
  0.41561000000E+005,  0.86283547113E+006,  0.16500000000E+002,  0.00000000000E+000,  0.10000000000E+001
  0.41621000000E+005,  0.86582943536E+006,  0.16500000000E+002,  0.00000000000E+000,  0.10000000000E+001
  0.41681000000E+005,  0.86880170067E+006,  0.16500000000E+002,  0.00000000000E+000,  0.10000000000E+001
  0.41741000000E+005,  0.87175251787E+006,  0.16500000000E+002,  0.00000000000E+000,  0.10000000000E+001
  0.41801000000E+005,  0.87468213442E+006,  0.16500000000E+002,  0.00000000000E+000,  0.10000000000E+001
  0.41861000000E+005,  0.87759079444E+006,  0.16500000000E+002,  0.00000000000E+000,  0.10000000000E+001
  0.41921000000E+005,  0.88047873873E+006,  0.16500000000E+002,  0.00000000000E+000,  0.10000000000E+001
  0.41981000000E+005,  0.88334620477E+006,  0.16500000000E+002,  0.00000000000E+000,  0.10000000000E+001
  0.42041000000E+005,  0.88619336602E+006,  0.16500000000E+002,  0.00000000000E+000,  0.10000000000E+001
  0.42101000000E+005,  0.88902023031E+006,  0.16500000000E+002,  0.00000000000E+000,  0.10000000000E+001
  0.42161000000E+005,  0.89182657851E+006,  0.16500000000E+002,  0.00000000000E+000,  0.10000000000E+001
  0.42221000000E+005,  0.89461198088E+006,  0.16500000000E+002,  0.00000000000E+000,  0.10000000000E+001
  0.42281000000E+005,  0.89737587393E+006,  0.16500000000E+002,  0.00000000000E+000,  0.10000000000E+001
  0.42341000000E+005,  0.90011765960E+006,  0.16500000000E+002,  0.00000000000E+000,  0.10000000000E+001
  0.42401000000E+005,  0.90283679532E+006,  0.16500000000E+002,  0.00000000000E+000,  0.10000000000E+001
  0.42461000000E+005,  0.90553285780E+006,  0.16500000000E+002,  0.00000000000E+000,  0.10000000000E+001
  0.42521000000E+005,  0.90820557716E+006,  0.16500000000E+002,  0.00000000000E+000,  0.10000000000E+001
  0.42581000000E+005,  0.91085484602E+006,  0.16500000000E+002,  0.00000000000E+000,  0.10000000000E+001
  0.42641000000E+005,  0.91348071063E+006,  0.16500000000E+002,  0.00000000000E+000,  0.10000000000E+001
  0.42701000000E+005,  0.91608335144E+006,  0.16500000000E+002,  0.00000000000E+000,  0.10000000000E+001
  0.42761000000E+005,  0.91866305876E+006,  0.16500000000E+002,  0.00000000000E+000,  0.10000000000E+001
  0.42821000000E+005,  0.92122020758E+006,  0.16500000000E+002,  0.00000000000E+000,  0.10000000000E+001
  0.42881000000E+005,  0.92375523407E+006,  0.16500000000E+002,  0.00000000000E+000,  0.10000000000E+001
  0.42941000000E+005,  0.92626861511E+006,  0.16500000000E+002,  0.00000000000E+000,  0.10000000000E+001
  0.43001000000E+005,  0.92876085140E+006,  0.16500000000E+002,  0.00000000000E+000,  0.10000000000E+001
  0.43061000000E+005,  0.93123245379E+006,  0.16500000000E+002,  0.00000000000E+000,  0.10000000000E+001
  0.43121000000E+005,  0.93368393330E+006,  0.16500000000E+002,  0.00000000000E+000,  0.10000000000E+001
  0.43181000000E+005,  0.93611579331E+006,  0.16500000000E+002,  0.00000000000E+000,  0.10000000000E+001
  0.43241000000E+005,  0.93852852418E+006,  0.16500000000E+002,  0.00000000000E+000,  0.10000000000E+001
  0.43301000000E+005,  0.94092259963E+006,  0.16500000000E+002,  0.00000000000E+000,  0.10000000000E+001
  0.43361000000E+005,  0.94329847475E+006,  0.16500000000E+002,  0.00000000000E+000,  0.10000000000E+001
  0.43421000000E+005,  0.94565658403E+006,  0.16500000000E+002,  0.00000000000E+000,  0.10000000000E+001
  0.43481000000E+005,  0.94799734179E+006,  0.16500000000E+002,  0.00000000000E+000,  0.10000000000E+001
  0.43541000000E+005,  0.95032114172E+006,  0.16500000000E+002,  0.00000000000E+000,  0.10000000000E+001
  0.43601000000E+005,  0.95262835753E+006,  0.16500000000E+002,  0.00000000000E+000,  0.10000000000E+001
  0.43661000000E+005,  0.95491934361E+006,  0.16500000000E+002,  0.00000000000E+000,  0.10000000000E+001
