"           TIME(S)","              PRES","              TEMP","             SAT_G","             SAT_L"
  0.23301000000E+005,  0.39009267169E+006,  0.16500000000E+002,  0.00000000000E+000,  0.10000000000E+001
  0.23306000000E+005,  0.39009267174E+006,  0.16500000000E+002,  0.00000000000E+000,  0.10000000000E+001
  0.23331000000E+005,  0.39009267201E+006,  0.16500000000E+002,  0.00000000000E+000,  0.10000000000E+001
  0.23391000000E+005,  0.39009267286E+006,  0.16500000000E+002,  0.00000000000E+000,  0.10000000000E+001
  0.23451000000E+005,  0.39009267383E+006,  0.16500000000E+002,  0.00000000000E+000,  0.10000000000E+001
  0.23511000000E+005,  0.39009267487E+006,  0.16500000000E+002,  0.00000000000E+000,  0.10000000000E+001
  0.23571000000E+005,  0.39009267594E+006,  0.16500000000E+002,  0.00000000000E+000,  0.10000000000E+001
  0.23631000000E+005,  0.39009267704E+006,  0.16500000000E+002,  0.00000000000E+000,  0.10000000000E+001
  0.23691000000E+005,  0.39009267813E+006,  0.16500000000E+002,  0.00000000000E+000,  0.10000000000E+001
  0.23751000000E+005,  0.39009267921E+006,  0.16500000000E+002,  0.00000000000E+000,  0.10000000000E+001
  0.23811000000E+005,  0.39009268025E+006,  0.16500000000E+002,  0.00000000000E+000,  0.10000000000E+001
  0.23871000000E+005,  0.39009268127E+006,  0.16500000000E+002,  0.00000000000E+000,  0.10000000000E+001
  0.23931000000E+005,  0.39009268224E+006,  0.16500000000E+002,  0.00000000000E+000,  0.10000000000E+001
  0.23991000000E+005,  0.39009268318E+006,  0.16500000000E+002,  0.00000000000E+000,  0.10000000000E+001
  0.24051000000E+005,  0.39009268407E+006,  0.16500000000E+002,  0.00000000000E+000,  0.10000000000E+001
  0.24111000000E+005,  0.39009268492E+006,  0.16500000000E+002,  0.00000000000E+000,  0.10000000000E+001
  0.24171000000E+005,  0.39009268573E+006,  0.16500000000E+002,  0.00000000000E+000,  0.10000000000E+001
  0.24231000000E+005,  0.39009268650E+006,  0.16500000000E+002,  0.00000000000E+000,  0.10000000000E+001
  0.24291000000E+005,  0.39009268723E+006,  0.16500000000E+002,  0.00000000000E+000,  0.10000000000E+001
  0.24351000000E+005,  0.39009268792E+006,  0.16500000000E+002,  0.00000000000E+000,  0.10000000000E+001
  0.24411000000E+005,  0.39009268859E+006,  0.16500000000E+002,  0.00000000000E+000,  0.10000000000E+001
  0.24471000000E+005,  0.39009268922E+006,  0.16500000000E+002,  0.00000000000E+000,  0.10000000000E+001
  0.24531000000E+005,  0.39009268982E+006,  0.16500000000E+002,  0.00000000000E+000,  0.10000000000E+001
  0.24591000000E+005,  0.39009269039E+006,  0.16500000000E+002,  0.00000000000E+000,  0.10000000000E+001
  0.24651000000E+005,  0.39009269095E+006,  0.16500000000E+002,  0.00000000000E+000,  0.10000000000E+001
  0.24711000000E+005,  0.39009269148E+006,  0.16500000000E+002,  0.00000000000E+000,  0.10000000000E+001
  0.24771000000E+005,  0.39009269199E+006,  0.16500000000E+002,  0.00000000000E+000,  0.10000000000E+001
  0.24831000000E+005,  0.39009269248E+006,  0.16500000000E+002,  0.00000000000E+000,  0.10000000000E+001
  0.24891000000E+005,  0.39009269296E+006,  0.16500000000E+002,  0.00000000000E+000,  0.10000000000E+001
  0.24951000000E+005,  0.39009269343E+006,  0.16500000000E+002,  0.00000000000E+000,  0.10000000000E+001
  0.25011000000E+005,  0.39009269390E+006,  0.16500000000E+002,  0.00000000000E+000,  0.10000000000E+001
  0.25071000000E+005,  0.39009269436E+006,  0.16500000000E+002,  0.00000000000E+000,  0.10000000000E+001
  0.25131000000E+005,  0.39009269482E+006,  0.16500000000E+002,  0.00000000000E+000,  0.10000000000E+001
  0.25191000000E+005,  0.39009269529E+006,  0.16500000000E+002,  0.00000000000E+000,  0.10000000000E+001
  0.25251000000E+005,  0.39009269578E+006,  0.16500000000E+002,  0.00000000000E+000,  0.10000000000E+001
  0.25311000000E+005,  0.39009269629E+006,  0.16500000000E+002,  0.00000000000E+000,  0.10000000000E+001
  0.25371000000E+005,  0.39009269684E+006,  0.16500000000E+002,  0.00000000000E+000,  0.10000000000E+001
  0.25431000000E+005,  0.39009269745E+006,  0.16500000000E+002,  0.00000000000E+000,  0.10000000000E+001
  0.25491000000E+005,  0.39009269812E+006,  0.16500000000E+002,  0.00000000000E+000,  0.10000000000E+001
  0.25551000000E+005,  0.39009269889E+006,  0.16500000000E+002,  0.00000000000E+000,  0.10000000000E+001
  0.25611000000E+005,  0.39009269979E+006,  0.16500000000E+002,  0.00000000000E+000,  0.10000000000E+001
  0.25671000000E+005,  0.39009270083E+006,  0.16500000000E+002,  0.00000000000E+000,  0.10000000000E+001
  0.25731000000E+005,  0.39009270208E+006,  0.16500000000E+002,  0.00000000000E+000,  0.10000000000E+001
  0.25791000000E+005,  0.39009270357E+006,  0.16500000000E+002,  0.00000000000E+000,  0.10000000000E+001
  0.25851000000E+005,  0.39009270535E+006,  0.16500000000E+002,  0.00000000000E+000,  0.10000000000E+001
  0.25911000000E+005,  0.39009270751E+006,  0.16500000000E+002,  0.00000000000E+000,  0.10000000000E+001
  0.25971000000E+005,  0.39009271010E+006,  0.16500000000E+002,  0.00000000000E+000,  0.10000000000E+001
  0.26031000000E+005,  0.39009271322E+006,  0.16500000000E+002,  0.00000000000E+000,  0.10000000000E+001
  0.26091000000E+005,  0.39009271698E+006,  0.16500000000E+002,  0.00000000000E+000,  0.10000000000E+001
  0.26151000000E+005,  0.39009272148E+006,  0.16500000000E+002,  0.00000000000E+000,  0.10000000000E+001
  0.26211000000E+005,  0.39009272686E+006,  0.16500000000E+002,  0.00000000000E+000,  0.10000000000E+001
  0.26271000000E+005,  0.39009273326E+006,  0.16500000000E+002,  0.00000000000E+000,  0.10000000000E+001
  0.26331000000E+005,  0.39009274085E+006,  0.16500000000E+002,  0.00000000000E+000,  0.10000000000E+001
  0.26391000000E+005,  0.39009274980E+006,  0.16500000000E+002,  0.00000000000E+000,  0.10000000000E+001
  0.26451000000E+005,  0.39009276033E+006,  0.16500000000E+002,  0.00000000000E+000,  0.10000000000E+001
  0.26511000000E+005,  0.39009277265E+006,  0.16500000000E+002,  0.00000000000E+000,  0.10000000000E+001
  0.26571000000E+005,  0.39009278701E+006,  0.16500000000E+002,  0.00000000000E+000,  0.10000000000E+001
  0.26631000000E+005,  0.39009280367E+006,  0.16500000000E+002,  0.00000000000E+000,  0.10000000000E+001
  0.26691000000E+005,  0.39009282292E+006,  0.16500000000E+002,  0.00000000000E+000,  0.10000000000E+001
  0.26751000000E+005,  0.39009284508E+006,  0.16500000000E+002,  0.00000000000E+000,  0.10000000000E+001
  0.26811000000E+005,  0.39009287048E+006,  0.16500000000E+002,  0.00000000000E+000,  0.10000000000E+001
  0.26871000000E+005,  0.39009289948E+006,  0.16500000000E+002,  0.00000000000E+000,  0.10000000000E+001
  0.26931000000E+005,  0.39009293248E+006,  0.16500000000E+002,  0.00000000000E+000,  0.10000000000E+001
  0.26991000000E+005,  0.39009296987E+006,  0.16500000000E+002,  0.00000000000E+000,  0.10000000000E+001
  0.27051000000E+005,  0.39009301211E+006,  0.16500000000E+002,  0.00000000000E+000,  0.10000000000E+001
  0.27111000000E+005,  0.39009305965E+006,  0.16500000000E+002,  0.00000000000E+000,  0.10000000000E+001
  0.27171000000E+005,  0.39009311297E+006,  0.16500000000E+002,  0.00000000000E+000,  0.10000000000E+001
  0.27231000000E+005,  0.39009317260E+006,  0.16500000000E+002,  0.00000000000E+000,  0.10000000000E+001
  0.27291000000E+005,  0.39009323907E+006,  0.16500000000E+002,  0.00000000000E+000,  0.10000000000E+001
  0.27351000000E+005,  0.39009331295E+006,  0.16500000000E+002,  0.00000000000E+000,  0.10000000000E+001
  0.27411000000E+005,  0.39009339481E+006,  0.16500000000E+002,  0.00000000000E+000,  0.10000000000E+001
  0.27471000000E+005,  0.39009348527E+006,  0.16500000000E+002,  0.00000000000E+000,  0.10000000000E+001
  0.27531000000E+005,  0.39009358496E+006,  0.16500000000E+002,  0.00000000000E+000,  0.10000000000E+001
  0.27591000000E+005,  0.39009369453E+006,  0.16500000000E+002,  0.00000000000E+000,  0.10000000000E+001
  0.27651000000E+005,  0.39009381465E+006,  0.16500000000E+002,  0.00000000000E+000,  0.10000000000E+001
  0.27711000000E+005,  0.39009394602E+006,  0.16500000000E+002,  0.00000000000E+000,  0.10000000000E+001
  0.27771000000E+005,  0.39009408935E+006,  0.16500000000E+002,  0.00000000000E+000,  0.10000000000E+001
  0.27831000000E+005,  0.39009424536E+006,  0.16500000000E+002,  0.00000000000E+000,  0.10000000000E+001
  0.27891000000E+005,  0.39009441480E+006,  0.16500000000E+002,  0.00000000000E+000,  0.10000000000E+001
  0.27951000000E+005,  0.39009459843E+006,  0.16500000000E+002,  0.00000000000E+000,  0.10000000000E+001
  0.28011000000E+005,  0.39009479701E+006,  0.16500000000E+002,  0.00000000000E+000,  0.10000000000E+001
  0.28071000000E+005,  0.39009501133E+006,  0.16500000000E+002,  0.00000000000E+000,  0.10000000000E+001
  0.28131000000E+005,  0.39009524219E+006,  0.16500000000E+002,  0.00000000000E+000,  0.10000000000E+001
  0.28191000000E+005,  0.39009549038E+006,  0.16500000000E+002,  0.00000000000E+000,  0.10000000000E+001
  0.28251000000E+005,  0.39009575671E+006,  0.16500000000E+002,  0.00000000000E+000,  0.10000000000E+001
  0.28311000000E+005,  0.39009604200E+006,  0.16500000000E+002,  0.00000000000E+000,  0.10000000000E+001
  0.28371000000E+005,  0.39009634708E+006,  0.16500000000E+002,  0.00000000000E+000,  0.10000000000E+001
  0.28431000000E+005,  0.39009667275E+006,  0.16500000000E+002,  0.00000000000E+000,  0.10000000000E+001
  0.28491000000E+005,  0.39009701985E+006,  0.16500000000E+002,  0.00000000000E+000,  0.10000000000E+001
  0.28551000000E+005,  0.39009738920E+006,  0.16500000000E+002,  0.00000000000E+000,  0.10000000000E+001
  0.28611000000E+005,  0.39009778163E+006,  0.16500000000E+002,  0.00000000000E+000,  0.10000000000E+001
  0.28671000000E+005,  0.39009819795E+006,  0.16500000000E+002,  0.00000000000E+000,  0.10000000000E+001
  0.28731000000E+005,  0.39009863898E+006,  0.16500000000E+002,  0.00000000000E+000,  0.10000000000E+001
  0.28791000000E+005,  0.39009910553E+006,  0.16500000000E+002,  0.00000000000E+000,  0.10000000000E+001
  0.28851000000E+005,  0.39009959840E+006,  0.16500000000E+002,  0.00000000000E+000,  0.10000000000E+001
  0.28911000000E+005,  0.39010011841E+006,  0.16500000000E+002,  0.00000000000E+000,  0.10000000000E+001
  0.28971000000E+005,  0.39010066633E+006,  0.16500000000E+002,  0.00000000000E+000,  0.10000000000E+001
  0.29031000000E+005,  0.39010124294E+006,  0.16500000000E+002,  0.00000000000E+000,  0.10000000000E+001
  0.29091000000E+005,  0.39010184902E+006,  0.16500000000E+002,  0.00000000000E+000,  0.10000000000E+001
  0.29151000000E+005,  0.39010248532E+006,  0.16500000000E+002,  0.00000000000E+000,  0.10000000000E+001
  0.29211000000E+005,  0.39010315260E+006,  0.16500000000E+002,  0.00000000000E+000,  0.10000000000E+001
  0.29271000000E+005,  0.39010385159E+006,  0.16500000000E+002,  0.00000000000E+000,  0.10000000000E+001
  0.29331000000E+005,  0.39010458302E+006,  0.16500000000E+002,  0.00000000000E+000,  0.10000000000E+001
  0.29353750000E+005,  0.39010486506E+006,  0.16500000000E+002,  0.00000000000E+000,  0.10000000000E+001
