"           TIME(S)","              PRES","              TEMP","             SAT_G","             SAT_L"
  0.10000000000E+001,  0.49291698888E+006,  0.16500000000E+002,  0.00000000000E+000,  0.10000000000E+001
  0.60000000000E+001,  0.49464162526E+006,  0.16500000000E+002,  0.00000000000E+000,  0.10000000000E+001
  0.31000000000E+002,  0.51241519149E+006,  0.16500000000E+002,  0.00000000000E+000,  0.10000000000E+001
  0.15600000000E+003,  0.56672552210E+006,  0.16500000000E+002,  0.00000000000E+000,  0.10000000000E+001
  0.45600000000E+003,  0.64648248150E+006,  0.16500000000E+002,  0.00000000000E+000,  0.10000000000E+001
  0.75600000000E+003,  0.70355107171E+006,  0.16500000000E+002,  0.00000000000E+000,  0.10000000000E+001
  0.10560000000E+004,  0.74651616901E+006,  0.16500000000E+002,  0.00000000000E+000,  0.10000000000E+001
  0.13560000000E+004,  0.77991785237E+006,  0.16500000000E+002,  0.00000000000E+000,  0.10000000000E+001
  0.16560000000E+004,  0.80656235879E+006,  0.16500000000E+002,  0.00000000000E+000,  0.10000000000E+001
  0.19560000000E+004,  0.82828541290E+006,  0.16500000000E+002,  0.00000000000E+000,  0.10000000000E+001
  0.22560000000E+004,  0.84633279243E+006,  0.16500000000E+002,  0.00000000000E+000,  0.10000000000E+001
  0.25560000000E+004,  0.86157360266E+006,  0.16500000000E+002,  0.00000000000E+000,  0.10000000000E+001
  0.28560000000E+004,  0.87462983780E+006,  0.16500000000E+002,  0.00000000000E+000,  0.10000000000E+001
  0.31560000000E+004,  0.88595558344E+006,  0.16500000000E+002,  0.00000000000E+000,  0.10000000000E+001
  0.34560000000E+004,  0.89588876414E+006,  0.16500000000E+002,  0.00000000000E+000,  0.10000000000E+001
  0.37560000000E+004,  0.90468548260E+006,  0.16500000000E+002,  0.00000000000E+000,  0.10000000000E+001
  0.40560000000E+004,  0.91254232078E+006,  0.16500000000E+002,  0.00000000000E+000,  0.10000000000E+001
  0.43560000000E+004,  0.91961297831E+006,  0.16500000000E+002,  0.00000000000E+000,  0.10000000000E+001
  0.46560000000E+004,  0.92601908247E+006,  0.16500000000E+002,  0.00000000000E+000,  0.10000000000E+001
  0.49560000000E+004,  0.93185789695E+006,  0.16500000000E+002,  0.00000000000E+000,  0.10000000000E+001
  0.52560000000E+004,  0.93720823732E+006,  0.16500000000E+002,  0.00000000000E+000,  0.10000000000E+001
  0.55560000000E+004,  0.94213456556E+006,  0.16500000000E+002,  0.00000000000E+000,  0.10000000000E+001
  0.58560000000E+004,  0.94669026446E+006,  0.16500000000E+002,  0.00000000000E+000,  0.10000000000E+001
  0.61560000000E+004,  0.95093796038E+006,  0.16500000000E+002,  0.00000000000E+000,  0.10000000000E+001
  0.64560000000E+004,  0.95490900797E+006,  0.16500000000E+002,  0.00000000000E+000,  0.10000000000E+001
  0.67560000000E+004,  0.95861563370E+006,  0.16500000000E+002,  0.00000000000E+000,  0.10000000000E+001
  0.70560000000E+004,  0.96208748351E+006,  0.16500000000E+002,  0.00000000000E+000,  0.10000000000E+001
  0.73560000000E+004,  0.96534956808E+006,  0.16500000000E+002,  0.00000000000E+000,  0.10000000000E+001
  0.76560000000E+004,  0.96842317058E+006,  0.16500000000E+002,  0.00000000000E+000,  0.10000000000E+001
  0.79560000000E+004,  0.97132659626E+006,  0.16500000000E+002,  0.00000000000E+000,  0.10000000000E+001
  0.82560000000E+004,  0.97407570460E+006,  0.16500000000E+002,  0.00000000000E+000,  0.10000000000E+001
  0.85560000000E+004,  0.97668433239E+006,  0.16500000000E+002,  0.00000000000E+000,  0.10000000000E+001
  0.88560000000E+004,  0.97916461170E+006,  0.16500000000E+002,  0.00000000000E+000,  0.10000000000E+001
  0.91560000000E+004,  0.98152722237E+006,  0.16500000000E+002,  0.00000000000E+000,  0.10000000000E+001
  0.94560000000E+004,  0.98378164901E+006,  0.16500000000E+002,  0.00000000000E+000,  0.10000000000E+001
  0.97560000000E+004,  0.98593628536E+006,  0.16500000000E+002,  0.00000000000E+000,  0.10000000000E+001
  0.10056000000E+005,  0.98799876372E+006,  0.16500000000E+002,  0.00000000000E+000,  0.10000000000E+001
  0.10356000000E+005,  0.98997575667E+006,  0.16500000000E+002,  0.00000000000E+000,  0.10000000000E+001
  0.10656000000E+005,  0.99187332741E+006,  0.16500000000E+002,  0.00000000000E+000,  0.10000000000E+001
  0.10956000000E+005,  0.99369695705E+006,  0.16500000000E+002,  0.00000000000E+000,  0.10000000000E+001
  0.11256000000E+005,  0.99545161092E+006,  0.16500000000E+002,  0.00000000000E+000,  0.10000000000E+001
  0.11556000000E+005,  0.99714179091E+006,  0.16500000000E+002,  0.00000000000E+000,  0.10000000000E+001
  0.11856000000E+005,  0.99877161406E+006,  0.16500000000E+002,  0.00000000000E+000,  0.10000000000E+001
  0.12156000000E+005,  0.10002605309E+007,  0.16500000000E+002,  0.00000000000E+000,  0.10000000000E+001
  0.12456000000E+005,  0.10016409675E+007,  0.16500000000E+002,  0.00000000000E+000,  0.10000000000E+001
  0.12756000000E+005,  0.10030073867E+007,  0.16500000000E+002,  0.00000000000E+000,  0.10000000000E+001
  0.13056000000E+005,  0.10043508465E+007,  0.16500000000E+002,  0.00000000000E+000,  0.10000000000E+001
  0.13356000000E+005,  0.10056666324E+007,  0.16500000000E+002,  0.00000000000E+000,  0.10000000000E+001
  0.13656000000E+005,  0.10069521508E+007,  0.16500000000E+002,  0.00000000000E+000,  0.10000000000E+001
  0.13956000000E+005,  0.10082072992E+007,  0.16500000000E+002,  0.00000000000E+000,  0.10000000000E+001
  0.14256000000E+005,  0.10094315053E+007,  0.16500000000E+002,  0.00000000000E+000,  0.10000000000E+001
  0.14556000000E+005,  0.10106249663E+007,  0.16500000000E+002,  0.00000000000E+000,  0.10000000000E+001
  0.14856000000E+005,  0.10117884914E+007,  0.16500000000E+002,  0.00000000000E+000,  0.10000000000E+001
  0.15156000000E+005,  0.10129233842E+007,  0.16500000000E+002,  0.00000000000E+000,  0.10000000000E+001
  0.15456000000E+005,  0.10140300982E+007,  0.16500000000E+002,  0.00000000000E+000,  0.10000000000E+001
  0.15756000000E+005,  0.10151099156E+007,  0.16500000000E+002,  0.00000000000E+000,  0.10000000000E+001
  0.16056000000E+005,  0.10161639125E+007,  0.16500000000E+002,  0.00000000000E+000,  0.10000000000E+001
  0.16356000000E+005,  0.10171925231E+007,  0.16500000000E+002,  0.00000000000E+000,  0.10000000000E+001
  0.16656000000E+005,  0.10181974745E+007,  0.16500000000E+002,  0.00000000000E+000,  0.10000000000E+001
  0.16956000000E+005,  0.10191789920E+007,  0.16500000000E+002,  0.00000000000E+000,  0.10000000000E+001
  0.17256000000E+005,  0.10201387826E+007,  0.16500000000E+002,  0.00000000000E+000,  0.10000000000E+001
  0.17556000000E+005,  0.10210771246E+007,  0.16500000000E+002,  0.00000000000E+000,  0.10000000000E+001
  0.17856000000E+005,  0.10219943071E+007,  0.16500000000E+002,  0.00000000000E+000,  0.10000000000E+001
  0.18156000000E+005,  0.10229788614E+007,  0.16500000000E+002,  0.00000000000E+000,  0.10000000000E+001
  0.18456000000E+005,  0.10240016493E+007,  0.16500000000E+002,  0.00000000000E+000,  0.10000000000E+001
  0.18756000000E+005,  0.10249692145E+007,  0.16500000000E+002,  0.00000000000E+000,  0.10000000000E+001
  0.19056000000E+005,  0.10258947921E+007,  0.16500000000E+002,  0.00000000000E+000,  0.10000000000E+001
  0.19356000000E+005,  0.10267854388E+007,  0.16500000000E+002,  0.00000000000E+000,  0.10000000000E+001
  0.19656000000E+005,  0.10276476755E+007,  0.16500000000E+002,  0.00000000000E+000,  0.10000000000E+001
  0.19956000000E+005,  0.10284848407E+007,  0.16500000000E+002,  0.00000000000E+000,  0.10000000000E+001
  0.20256000000E+005,  0.10292996933E+007,  0.16500000000E+002,  0.00000000000E+000,  0.10000000000E+001
  0.20556000000E+005,  0.10300944470E+007,  0.16500000000E+002,  0.00000000000E+000,  0.10000000000E+001
  0.20856000000E+005,  0.10308709588E+007,  0.16500000000E+002,  0.00000000000E+000,  0.10000000000E+001
  0.21156000000E+005,  0.10316297982E+007,  0.16500000000E+002,  0.00000000000E+000,  0.10000000000E+001
  0.21456000000E+005,  0.10323730677E+007,  0.16500000000E+002,  0.00000000000E+000,  0.10000000000E+001
  0.21756000000E+005,  0.10331012099E+007,  0.16500000000E+002,  0.00000000000E+000,  0.10000000000E+001
  0.22056000000E+005,  0.10338150916E+007,  0.16500000000E+002,  0.00000000000E+000,  0.10000000000E+001
  0.22356000000E+005,  0.10345151361E+007,  0.16500000000E+002,  0.00000000000E+000,  0.10000000000E+001
  0.22656000000E+005,  0.10352024075E+007,  0.16500000000E+002,  0.00000000000E+000,  0.10000000000E+001
  0.22956000000E+005,  0.10358765407E+007,  0.16500000000E+002,  0.00000000000E+000,  0.10000000000E+001
  0.23256000000E+005,  0.10365390903E+007,  0.16500000000E+002,  0.00000000000E+000,  0.10000000000E+001
  0.23556000000E+005,  0.10371898168E+007,  0.16500000000E+002,  0.00000000000E+000,  0.10000000000E+001
  0.23856000000E+005,  0.10378295633E+007,  0.16500000000E+002,  0.00000000000E+000,  0.10000000000E+001
  0.24156000000E+005,  0.10384860335E+007,  0.16500000000E+002,  0.00000000000E+000,  0.10000000000E+001
  0.24456000000E+005,  0.10391496915E+007,  0.16500000000E+002,  0.00000000000E+000,  0.10000000000E+001
  0.24756000000E+005,  0.10397918112E+007,  0.16500000000E+002,  0.00000000000E+000,  0.10000000000E+001
  0.25056000000E+005,  0.10404165787E+007,  0.16500000000E+002,  0.00000000000E+000,  0.10000000000E+001
  0.25356000000E+005,  0.10410264239E+007,  0.16500000000E+002,  0.00000000000E+000,  0.10000000000E+001
  0.25656000000E+005,  0.10416229441E+007,  0.16500000000E+002,  0.00000000000E+000,  0.10000000000E+001
  0.25956000000E+005,  0.10422078907E+007,  0.16500000000E+002,  0.00000000000E+000,  0.10000000000E+001
  0.26256000000E+005,  0.10427822750E+007,  0.16500000000E+002,  0.00000000000E+000,  0.10000000000E+001
  0.26556000000E+005,  0.10433467946E+007,  0.16500000000E+002,  0.00000000000E+000,  0.10000000000E+001
  0.26856000000E+005,  0.10439015932E+007,  0.16500000000E+002,  0.00000000000E+000,  0.10000000000E+001
  0.27156000000E+005,  0.10444475147E+007,  0.16500000000E+002,  0.00000000000E+000,  0.10000000000E+001
  0.27456000000E+005,  0.10449850871E+007,  0.16500000000E+002,  0.00000000000E+000,  0.10000000000E+001
  0.27756000000E+005,  0.10455144425E+007,  0.16500000000E+002,  0.00000000000E+000,  0.10000000000E+001
  0.28056000000E+005,  0.10460358399E+007,  0.16500000000E+002,  0.00000000000E+000,  0.10000000000E+001
  0.28356000000E+005,  0.10465497097E+007,  0.16500000000E+002,  0.00000000000E+000,  0.10000000000E+001
  0.28656000000E+005,  0.10470564289E+007,  0.16500000000E+002,  0.00000000000E+000,  0.10000000000E+001
  0.28956000000E+005,  0.10475558368E+007,  0.16500000000E+002,  0.00000000000E+000,  0.10000000000E+001
  0.29256000000E+005,  0.10480484384E+007,  0.16500000000E+002,  0.00000000000E+000,  0.10000000000E+001
  0.29556000000E+005,  0.10485344384E+007,  0.16500000000E+002,  0.00000000000E+000,  0.10000000000E+001
  0.29856000000E+005,  0.10490137709E+007,  0.16500000000E+002,  0.00000000000E+000,  0.10000000000E+001
  0.30156000000E+005,  0.10495227534E+007,  0.16500000000E+002,  0.00000000000E+000,  0.10000000000E+001
  0.30456000000E+005,  0.10500488866E+007,  0.16500000000E+002,  0.00000000000E+000,  0.10000000000E+001
  0.30756000000E+005,  0.10505541200E+007,  0.16500000000E+002,  0.00000000000E+000,  0.10000000000E+001
  0.31056000000E+005,  0.10510429377E+007,  0.16500000000E+002,  0.00000000000E+000,  0.10000000000E+001
  0.31356000000E+005,  0.10515190645E+007,  0.16500000000E+002,  0.00000000000E+000,  0.10000000000E+001
  0.31656000000E+005,  0.10519845663E+007,  0.16500000000E+002,  0.00000000000E+000,  0.10000000000E+001
  0.31956000000E+005,  0.10524408639E+007,  0.16500000000E+002,  0.00000000000E+000,  0.10000000000E+001
  0.32256000000E+005,  0.10528889646E+007,  0.16500000000E+002,  0.00000000000E+000,  0.10000000000E+001
  0.32556000000E+005,  0.15116586035E+007,  0.16500000000E+002,  0.00000000000E+000,  0.10000000000E+001
  0.32856000000E+005,  0.51290868419E+007,  0.16500000000E+002,  0.00000000000E+000,  0.10000000000E+001
  0.33156000000E+005,  0.77691355998E+007,  0.16500000000E+002,  0.00000000000E+000,  0.10000000000E+001
  0.33456000000E+005,  0.97631730768E+007,  0.16500000000E+002,  0.00000000000E+000,  0.10000000000E+001
  0.33756000000E+005,  0.11318931079E+008,  0.16500000000E+002,  0.00000000000E+000,  0.10000000000E+001
  0.34056000000E+005,  0.12564796866E+008,  0.16500000000E+002,  0.00000000000E+000,  0.10000000000E+001
  0.34356000000E+005,  0.13584529957E+008,  0.16500000000E+002,  0.00000000000E+000,  0.10000000000E+001
  0.34656000000E+005,  0.14434882853E+008,  0.16500000000E+002,  0.00000000000E+000,  0.10000000000E+001
  0.34956000000E+005,  0.15155483239E+008,  0.16500000000E+002,  0.00000000000E+000,  0.10000000000E+001
  0.35256000000E+005,  0.15774728490E+008,  0.16500000000E+002,  0.00000000000E+000,  0.10000000000E+001
  0.35556000000E+005,  0.16313441714E+008,  0.16500000000E+002,  0.00000000000E+000,  0.10000000000E+001
  0.35856000000E+005,  0.16787152254E+008,  0.16500000000E+002,  0.00000000000E+000,  0.10000000000E+001
  0.36156000000E+005,  0.17167825615E+008,  0.16500000000E+002,  0.00000000000E+000,  0.10000000000E+001
  0.36456000000E+005,  0.17478153343E+008,  0.16500000000E+002,  0.00000000000E+000,  0.10000000000E+001
  0.36756000000E+005,  0.17768292210E+008,  0.16500000000E+002,  0.00000000000E+000,  0.10000000000E+001
  0.37056000000E+005,  0.18038533429E+008,  0.16500000000E+002,  0.00000000000E+000,  0.10000000000E+001
  0.37356000000E+005,  0.18289911627E+008,  0.16500000000E+002,  0.00000000000E+000,  0.10000000000E+001
  0.37656000000E+005,  0.18564351629E+008,  0.16500000000E+002,  0.00000000000E+000,  0.10000000000E+001
  0.37956000000E+005,  0.18847541855E+008,  0.16500000000E+002,  0.00000000000E+000,  0.10000000000E+001
  0.38256000000E+005,  0.19099795608E+008,  0.16500000000E+002,  0.00000000000E+000,  0.10000000000E+001
  0.38556000000E+005,  0.19327747044E+008,  0.16500000000E+002,  0.00000000000E+000,  0.10000000000E+001
  0.38856000000E+005,  0.19536068400E+008,  0.16500000000E+002,  0.00000000000E+000,  0.10000000000E+001
  0.39156000000E+005,  0.19728059444E+008,  0.16500000000E+002,  0.00000000000E+000,  0.10000000000E+001
  0.39456000000E+005,  0.19906172234E+008,  0.16500000000E+002,  0.00000000000E+000,  0.10000000000E+001
  0.39756000000E+005,  0.20072297247E+008,  0.16500000000E+002,  0.00000000000E+000,  0.10000000000E+001
  0.40056000000E+005,  0.20227932690E+008,  0.16500000000E+002,  0.00000000000E+000,  0.10000000000E+001
  0.40356000000E+005,  0.20374292456E+008,  0.16500000000E+002,  0.00000000000E+000,  0.10000000000E+001
  0.40656000000E+005,  0.20512377921E+008,  0.16500000000E+002,  0.00000000000E+000,  0.10000000000E+001
  0.40956000000E+005,  0.20643028509E+008,  0.16500000000E+002,  0.00000000000E+000,  0.10000000000E+001
  0.41256000000E+005,  0.20766957368E+008,  0.16500000000E+002,  0.00000000000E+000,  0.10000000000E+001
  0.41556000000E+005,  0.20884776626E+008,  0.16500000000E+002,  0.00000000000E+000,  0.10000000000E+001
  0.41856000000E+005,  0.20997017475E+008,  0.16500000000E+002,  0.00000000000E+000,  0.10000000000E+001
  0.42156000000E+005,  0.21081403040E+008,  0.16500000000E+002,  0.00000000000E+000,  0.10000000000E+001
  0.42456000000E+005,  0.21146063037E+008,  0.16500000000E+002,  0.00000000000E+000,  0.10000000000E+001
  0.42756000000E+005,  0.21215943312E+008,  0.16500000000E+002,  0.00000000000E+000,  0.10000000000E+001
  0.43056000000E+005,  0.21288318194E+008,  0.16500000000E+002,  0.00000000000E+000,  0.10000000000E+001
  0.43356000000E+005,  0.21361483873E+008,  0.16500000000E+002,  0.00000000000E+000,  0.10000000000E+001
  0.43656000000E+005,  0.21434429028E+008,  0.16500000000E+002,  0.00000000000E+000,  0.10000000000E+001
  0.43956000000E+005,  0.21506540004E+008,  0.16500000000E+002,  0.00000000000E+000,  0.10000000000E+001
  0.44256000000E+005,  0.21577444242E+008,  0.16500000000E+002,  0.00000000000E+000,  0.10000000000E+001
  0.44556000000E+005,  0.21646919402E+008,  0.16500000000E+002,  0.00000000000E+000,  0.10000000000E+001
  0.44856000000E+005,  0.21714840811E+008,  0.16500000000E+002,  0.00000000000E+000,  0.10000000000E+001
  0.45156000000E+005,  0.21781147532E+008,  0.16500000000E+002,  0.00000000000E+000,  0.10000000000E+001
  0.45456000000E+005,  0.21845819349E+008,  0.16500000000E+002,  0.00000000000E+000,  0.10000000000E+001
  0.45756000000E+005,  0.21908863300E+008,  0.16500000000E+002,  0.00000000000E+000,  0.10000000000E+001
  0.46056000000E+005,  0.21970304538E+008,  0.16500000000E+002,  0.00000000000E+000,  0.10000000000E+001
  0.46356000000E+005,  0.22030178748E+008,  0.16500000000E+002,  0.00000000000E+000,  0.10000000000E+001
  0.46656000000E+005,  0.22088529427E+008,  0.16500000000E+002,  0.00000000000E+000,  0.10000000000E+001
  0.46956000000E+005,  0.22145405402E+008,  0.16500000000E+002,  0.00000000000E+000,  0.10000000000E+001
  0.47256000000E+005,  0.22200857425E+008,  0.16500000000E+002,  0.00000000000E+000,  0.10000000000E+001
  0.47556000000E+005,  0.22254936756E+008,  0.16500000000E+002,  0.00000000000E+000,  0.10000000000E+001
  0.47856000000E+005,  0.18927479843E+008,  0.16500000000E+002,  0.00000000000E+000,  0.10000000000E+001
  0.48156000000E+005,  0.16310540779E+008,  0.16500000000E+002,  0.00000000000E+000,  0.10000000000E+001
  0.48456000000E+005,  0.14314094738E+008,  0.16500000000E+002,  0.00000000000E+000,  0.10000000000E+001
  0.48756000000E+005,  0.12751508743E+008,  0.16500000000E+002,  0.00000000000E+000,  0.10000000000E+001
  0.49056000000E+005,  0.11503377047E+008,  0.16500000000E+002,  0.00000000000E+000,  0.10000000000E+001
  0.49356000000E+005,  0.10488349810E+008,  0.16500000000E+002,  0.00000000000E+000,  0.10000000000E+001
  0.49656000000E+005,  0.96497963006E+007,  0.16500000000E+002,  0.00000000000E+000,  0.10000000000E+001
  0.49956000000E+005,  0.89472429683E+007,  0.16500000000E+002,  0.00000000000E+000,  0.10000000000E+001
  0.50256000000E+005,  0.83512309563E+007,  0.16500000000E+002,  0.00000000000E+000,  0.10000000000E+001
  0.50556000000E+005,  0.78399286157E+007,  0.16500000000E+002,  0.00000000000E+000,  0.10000000000E+001
  0.50856000000E+005,  0.73967959053E+007,  0.16500000000E+002,  0.00000000000E+000,  0.10000000000E+001
  0.51156000000E+005,  0.70091872258E+007,  0.16500000000E+002,  0.00000000000E+000,  0.10000000000E+001
  0.51456000000E+005,  0.66672917910E+007,  0.16500000000E+002,  0.00000000000E+000,  0.10000000000E+001
  0.51756000000E+005,  0.63634136765E+007,  0.16500000000E+002,  0.00000000000E+000,  0.10000000000E+001
  0.52056000000E+005,  0.60914714599E+007,  0.16500000000E+002,  0.00000000000E+000,  0.10000000000E+001
  0.52356000000E+005,  0.58465990899E+007,  0.16500000000E+002,  0.00000000000E+000,  0.10000000000E+001
  0.52656000000E+005,  0.56248681861E+007,  0.16500000000E+002,  0.00000000000E+000,  0.10000000000E+001
  0.52956000000E+005,  0.54230753130E+007,  0.16500000000E+002,  0.00000000000E+000,  0.10000000000E+001
  0.53256000000E+005,  0.52385866704E+007,  0.16500000000E+002,  0.00000000000E+000,  0.10000000000E+001
  0.53556000000E+005,  0.50692146046E+007,  0.16500000000E+002,  0.00000000000E+000,  0.10000000000E+001
  0.53856000000E+005,  0.49131311539E+007,  0.16500000000E+002,  0.00000000000E+000,  0.10000000000E+001
  0.54156000000E+005,  0.47690533703E+007,  0.16500000000E+002,  0.00000000000E+000,  0.10000000000E+001
  0.54456000000E+005,  0.46355905624E+007,  0.16500000000E+002,  0.00000000000E+000,  0.10000000000E+001
  0.54756000000E+005,  0.45113476942E+007,  0.16500000000E+002,  0.00000000000E+000,  0.10000000000E+001
  0.55056000000E+005,  0.43953926480E+007,  0.16500000000E+002,  0.00000000000E+000,  0.10000000000E+001
  0.55356000000E+005,  0.42869141800E+007,  0.16500000000E+002,  0.00000000000E+000,  0.10000000000E+001
  0.55656000000E+005,  0.41852084047E+007,  0.16500000000E+002,  0.00000000000E+000,  0.10000000000E+001
