"           TIME(S)","              PRES","              TEMP","             SAT_G","             SAT_L"
  0.94934000000E+005,  0.77036290438E+006,  0.16500000000E+002,  0.00000000000E+000,  0.10000000000E+001
  0.94939000000E+005,  0.77036290664E+006,  0.16500000000E+002,  0.00000000000E+000,  0.10000000000E+001
  0.94964000000E+005,  0.77036292978E+006,  0.16500000000E+002,  0.00000000000E+000,  0.10000000000E+001
  0.94994000000E+005,  0.77036296289E+006,  0.16500000000E+002,  0.00000000000E+000,  0.10000000000E+001
  0.95024000000E+005,  0.77036299658E+006,  0.16500000000E+002,  0.00000000000E+000,  0.10000000000E+001
  0.95054000000E+005,  0.77036302889E+006,  0.16500000000E+002,  0.00000000000E+000,  0.10000000000E+001
  0.95084000000E+005,  0.77036305903E+006,  0.16500000000E+002,  0.00000000000E+000,  0.10000000000E+001
  0.95114000000E+005,  0.77036308683E+006,  0.16500000000E+002,  0.00000000000E+000,  0.10000000000E+001
  0.95144000000E+005,  0.77036311250E+006,  0.16500000000E+002,  0.00000000000E+000,  0.10000000000E+001
  0.95174000000E+005,  0.77036313655E+006,  0.16500000000E+002,  0.00000000000E+000,  0.10000000000E+001
  0.95204000000E+005,  0.77036315985E+006,  0.16500000000E+002,  0.00000000000E+000,  0.10000000000E+001
  0.95234000000E+005,  0.77036318384E+006,  0.16500000000E+002,  0.00000000000E+000,  0.10000000000E+001
  0.95264000000E+005,  0.77036321065E+006,  0.16500000000E+002,  0.00000000000E+000,  0.10000000000E+001
  0.95294000000E+005,  0.77036324349E+006,  0.16500000000E+002,  0.00000000000E+000,  0.10000000000E+001
  0.95324000000E+005,  0.77036328696E+006,  0.16500000000E+002,  0.00000000000E+000,  0.10000000000E+001
  0.95354000000E+005,  0.77036334741E+006,  0.16500000000E+002,  0.00000000000E+000,  0.10000000000E+001
  0.95384000000E+005,  0.77036343341E+006,  0.16500000000E+002,  0.00000000000E+000,  0.10000000000E+001
  0.95414000000E+005,  0.77036355626E+006,  0.16500000000E+002,  0.00000000000E+000,  0.10000000000E+001
  0.95444000000E+005,  0.77036373033E+006,  0.16500000000E+002,  0.00000000000E+000,  0.10000000000E+001
  0.95474000000E+005,  0.77036397361E+006,  0.16500000000E+002,  0.00000000000E+000,  0.10000000000E+001
  0.95504000000E+005,  0.77036430821E+006,  0.16500000000E+002,  0.00000000000E+000,  0.10000000000E+001
  0.95534000000E+005,  0.77036476075E+006,  0.16500000000E+002,  0.00000000000E+000,  0.10000000000E+001
  0.95564000000E+005,  0.77036536281E+006,  0.16500000000E+002,  0.00000000000E+000,  0.10000000000E+001
  0.95594000000E+005,  0.77036615119E+006,  0.16500000000E+002,  0.00000000000E+000,  0.10000000000E+001
  0.95624000000E+005,  0.77036716835E+006,  0.16500000000E+002,  0.00000000000E+000,  0.10000000000E+001
  0.95654000000E+005,  0.77036846255E+006,  0.16500000000E+002,  0.00000000000E+000,  0.10000000000E+001
  0.95684000000E+005,  0.77037008813E+006,  0.16500000000E+002,  0.00000000000E+000,  0.10000000000E+001
  0.95714000000E+005,  0.77037210553E+006,  0.16500000000E+002,  0.00000000000E+000,  0.10000000000E+001
  0.95744000000E+005,  0.77037458142E+006,  0.16500000000E+002,  0.00000000000E+000,  0.10000000000E+001
  0.95774000000E+005,  0.77037758869E+006,  0.16500000000E+002,  0.00000000000E+000,  0.10000000000E+001
  0.95804000000E+005,  0.77038120636E+006,  0.16500000000E+002,  0.00000000000E+000,  0.10000000000E+001
  0.95834000000E+005,  0.77038551955E+006,  0.16500000000E+002,  0.00000000000E+000,  0.10000000000E+001
  0.95864000000E+005,  0.77039061927E+006,  0.16500000000E+002,  0.00000000000E+000,  0.10000000000E+001
  0.95894000000E+005,  0.77039660226E+006,  0.16500000000E+002,  0.00000000000E+000,  0.10000000000E+001
  0.95924000000E+005,  0.77040357075E+006,  0.16500000000E+002,  0.00000000000E+000,  0.10000000000E+001
  0.95954000000E+005,  0.77041163222E+006,  0.16500000000E+002,  0.00000000000E+000,  0.10000000000E+001
  0.95984000000E+005,  0.77042089905E+006,  0.16500000000E+002,  0.00000000000E+000,  0.10000000000E+001
  0.96014000000E+005,  0.77043148827E+006,  0.16500000000E+002,  0.00000000000E+000,  0.10000000000E+001
  0.96044000000E+005,  0.77044352121E+006,  0.16500000000E+002,  0.00000000000E+000,  0.10000000000E+001
  0.96074000000E+005,  0.77045712311E+006,  0.16500000000E+002,  0.00000000000E+000,  0.10000000000E+001
  0.96104000000E+005,  0.77047242283E+006,  0.16500000000E+002,  0.00000000000E+000,  0.10000000000E+001
  0.96134000000E+005,  0.77048955241E+006,  0.16500000000E+002,  0.00000000000E+000,  0.10000000000E+001
  0.96164000000E+005,  0.77050864673E+006,  0.16500000000E+002,  0.00000000000E+000,  0.10000000000E+001
  0.96194000000E+005,  0.77052984314E+006,  0.16500000000E+002,  0.00000000000E+000,  0.10000000000E+001
  0.96224000000E+005,  0.77055328108E+006,  0.16500000000E+002,  0.00000000000E+000,  0.10000000000E+001
  0.96254000000E+005,  0.77057910167E+006,  0.16500000000E+002,  0.00000000000E+000,  0.10000000000E+001
  0.96284000000E+005,  0.77060744740E+006,  0.16500000000E+002,  0.00000000000E+000,  0.10000000000E+001
  0.96314000000E+005,  0.77063846172E+006,  0.16500000000E+002,  0.00000000000E+000,  0.10000000000E+001
  0.96344000000E+005,  0.77067228872E+006,  0.16500000000E+002,  0.00000000000E+000,  0.10000000000E+001
  0.96374000000E+005,  0.77070907277E+006,  0.16500000000E+002,  0.00000000000E+000,  0.10000000000E+001
  0.96404000000E+005,  0.77074895819E+006,  0.16500000000E+002,  0.00000000000E+000,  0.10000000000E+001
  0.96434000000E+005,  0.77079208890E+006,  0.16500000000E+002,  0.00000000000E+000,  0.10000000000E+001
  0.96464000000E+005,  0.77083860818E+006,  0.16500000000E+002,  0.00000000000E+000,  0.10000000000E+001
  0.96494000000E+005,  0.77088865830E+006,  0.16500000000E+002,  0.00000000000E+000,  0.10000000000E+001
  0.96524000000E+005,  0.77094238029E+006,  0.16500000000E+002,  0.00000000000E+000,  0.10000000000E+001
  0.96554000000E+005,  0.77099991366E+006,  0.16500000000E+002,  0.00000000000E+000,  0.10000000000E+001
  0.96584000000E+005,  0.77106139615E+006,  0.16500000000E+002,  0.00000000000E+000,  0.10000000000E+001
  0.96614000000E+005,  0.77112696348E+006,  0.16500000000E+002,  0.00000000000E+000,  0.10000000000E+001
  0.96644000000E+005,  0.77119674917E+006,  0.16500000000E+002,  0.00000000000E+000,  0.10000000000E+001
  0.96674000000E+005,  0.77127088431E+006,  0.16500000000E+002,  0.00000000000E+000,  0.10000000000E+001
  0.96704000000E+005,  0.77134949736E+006,  0.16500000000E+002,  0.00000000000E+000,  0.10000000000E+001
  0.96734000000E+005,  0.77143271404E+006,  0.16500000000E+002,  0.00000000000E+000,  0.10000000000E+001
  0.96764000000E+005,  0.77152065710E+006,  0.16500000000E+002,  0.00000000000E+000,  0.10000000000E+001
  0.96794000000E+005,  0.77161344623E+006,  0.16500000000E+002,  0.00000000000E+000,  0.10000000000E+001
  0.96824000000E+005,  0.77171119793E+006,  0.16500000000E+002,  0.00000000000E+000,  0.10000000000E+001
  0.96854000000E+005,  0.77181402539E+006,  0.16500000000E+002,  0.00000000000E+000,  0.10000000000E+001
  0.96884000000E+005,  0.77192203838E+006,  0.16500000000E+002,  0.00000000000E+000,  0.10000000000E+001
  0.96914000000E+005,  0.77203534319E+006,  0.16500000000E+002,  0.00000000000E+000,  0.10000000000E+001
  0.96944000000E+005,  0.77215404257E+006,  0.16500000000E+002,  0.00000000000E+000,  0.10000000000E+001
  0.96974000000E+005,  0.77227823562E+006,  0.16500000000E+002,  0.00000000000E+000,  0.10000000000E+001
  0.97004000000E+005,  0.77240801780E+006,  0.16500000000E+002,  0.00000000000E+000,  0.10000000000E+001
  0.97034000000E+005,  0.77254348086E+006,  0.16500000000E+002,  0.00000000000E+000,  0.10000000000E+001
  0.97064000000E+005,  0.77268471281E+006,  0.16500000000E+002,  0.00000000000E+000,  0.10000000000E+001
  0.97094000000E+005,  0.77283179794E+006,  0.16500000000E+002,  0.00000000000E+000,  0.10000000000E+001
  0.97124000000E+005,  0.77298481676E+006,  0.16500000000E+002,  0.00000000000E+000,  0.10000000000E+001
  0.97154000000E+005,  0.77314384606E+006,  0.16500000000E+002,  0.00000000000E+000,  0.10000000000E+001
  0.97184000000E+005,  0.77330895886E+006,  0.16500000000E+002,  0.00000000000E+000,  0.10000000000E+001
  0.97214000000E+005,  0.77348022447E+006,  0.16500000000E+002,  0.00000000000E+000,  0.10000000000E+001
  0.97244000000E+005,  0.77365770849E+006,  0.16500000000E+002,  0.00000000000E+000,  0.10000000000E+001
  0.97274000000E+005,  0.77384147284E+006,  0.16500000000E+002,  0.00000000000E+000,  0.10000000000E+001
  0.97304000000E+005,  0.77403157580E+006,  0.16500000000E+002,  0.00000000000E+000,  0.10000000000E+001
  0.97334000000E+005,  0.77422807205E+006,  0.16500000000E+002,  0.00000000000E+000,  0.10000000000E+001
  0.97364000000E+005,  0.77443101273E+006,  0.16500000000E+002,  0.00000000000E+000,  0.10000000000E+001
  0.97394000000E+005,  0.77464044544E+006,  0.16500000000E+002,  0.00000000000E+000,  0.10000000000E+001
  0.97424000000E+005,  0.77485641434E+006,  0.16500000000E+002,  0.00000000000E+000,  0.10000000000E+001
  0.97454000000E+005,  0.77507896021E+006,  0.16500000000E+002,  0.00000000000E+000,  0.10000000000E+001
  0.97484000000E+005,  0.77530812046E+006,  0.16500000000E+002,  0.00000000000E+000,  0.10000000000E+001
  0.97514000000E+005,  0.77554392923E+006,  0.16500000000E+002,  0.00000000000E+000,  0.10000000000E+001
  0.97544000000E+005,  0.77578641746E+006,  0.16500000000E+002,  0.00000000000E+000,  0.10000000000E+001
  0.97574000000E+005,  0.77603561294E+006,  0.16500000000E+002,  0.00000000000E+000,  0.10000000000E+001
  0.97604000000E+005,  0.77629154036E+006,  0.16500000000E+002,  0.00000000000E+000,  0.10000000000E+001
  0.97634000000E+005,  0.77655422144E+006,  0.16500000000E+002,  0.00000000000E+000,  0.10000000000E+001
  0.97664000000E+005,  0.77682367493E+006,  0.16500000000E+002,  0.00000000000E+000,  0.10000000000E+001
  0.97694000000E+005,  0.77709991672E+006,  0.16500000000E+002,  0.00000000000E+000,  0.10000000000E+001
  0.97724000000E+005,  0.77738295993E+006,  0.16500000000E+002,  0.00000000000E+000,  0.10000000000E+001
  0.97754000000E+005,  0.77767281494E+006,  0.16500000000E+002,  0.00000000000E+000,  0.10000000000E+001
  0.97784000000E+005,  0.77796948949E+006,  0.16500000000E+002,  0.00000000000E+000,  0.10000000000E+001
  0.97814000000E+005,  0.77827298875E+006,  0.16500000000E+002,  0.00000000000E+000,  0.10000000000E+001
  0.97844000000E+005,  0.77858331541E+006,  0.16500000000E+002,  0.00000000000E+000,  0.10000000000E+001
  0.97874000000E+005,  0.77890046971E+006,  0.16500000000E+002,  0.00000000000E+000,  0.10000000000E+001
  0.97904000000E+005,  0.77922444956E+006,  0.16500000000E+002,  0.00000000000E+000,  0.10000000000E+001
  0.97934000000E+005,  0.77955525060E+006,  0.16500000000E+002,  0.00000000000E+000,  0.10000000000E+001
  0.97964000000E+005,  0.77989286626E+006,  0.16500000000E+002,  0.00000000000E+000,  0.10000000000E+001
  0.97994000000E+005,  0.78023728783E+006,  0.16500000000E+002,  0.00000000000E+000,  0.10000000000E+001
  0.98024000000E+005,  0.78058850456E+006,  0.16500000000E+002,  0.00000000000E+000,  0.10000000000E+001
  0.98054000000E+005,  0.78094650370E+006,  0.16500000000E+002,  0.00000000000E+000,  0.10000000000E+001
  0.98084000000E+005,  0.78131127059E+006,  0.16500000000E+002,  0.00000000000E+000,  0.10000000000E+001
  0.98114000000E+005,  0.78168278872E+006,  0.16500000000E+002,  0.00000000000E+000,  0.10000000000E+001
  0.98144000000E+005,  0.78206103980E+006,  0.16500000000E+002,  0.00000000000E+000,  0.10000000000E+001
  0.98174000000E+005,  0.78244600381E+006,  0.16500000000E+002,  0.00000000000E+000,  0.10000000000E+001
  0.98204000000E+005,  0.78283765912E+006,  0.16500000000E+002,  0.00000000000E+000,  0.10000000000E+001
  0.98234000000E+005,  0.78323598247E+006,  0.16500000000E+002,  0.00000000000E+000,  0.10000000000E+001
  0.98264000000E+005,  0.78364094911E+006,  0.16500000000E+002,  0.00000000000E+000,  0.10000000000E+001
  0.98294000000E+005,  0.78405253282E+006,  0.16500000000E+002,  0.00000000000E+000,  0.10000000000E+001
  0.98324000000E+005,  0.78447070598E+006,  0.16500000000E+002,  0.00000000000E+000,  0.10000000000E+001
  0.98354000000E+005,  0.78489543964E+006,  0.16500000000E+002,  0.00000000000E+000,  0.10000000000E+001
  0.98384000000E+005,  0.78532670356E+006,  0.16500000000E+002,  0.00000000000E+000,  0.10000000000E+001
  0.98414000000E+005,  0.78576446627E+006,  0.16500000000E+002,  0.00000000000E+000,  0.10000000000E+001
  0.98444000000E+005,  0.78620869516E+006,  0.16500000000E+002,  0.00000000000E+000,  0.10000000000E+001
  0.98474000000E+005,  0.78665935648E+006,  0.16500000000E+002,  0.00000000000E+000,  0.10000000000E+001
  0.98504000000E+005,  0.78711641541E+006,  0.16500000000E+002,  0.00000000000E+000,  0.10000000000E+001
  0.98534000000E+005,  0.78757983615E+006,  0.16500000000E+002,  0.00000000000E+000,  0.10000000000E+001
  0.98564000000E+005,  0.78804958192E+006,  0.16500000000E+002,  0.00000000000E+000,  0.10000000000E+001
  0.98594000000E+005,  0.78852561503E+006,  0.16500000000E+002,  0.00000000000E+000,  0.10000000000E+001
  0.98624000000E+005,  0.78900789693E+006,  0.16500000000E+002,  0.00000000000E+000,  0.10000000000E+001
  0.98654000000E+005,  0.78949638825E+006,  0.16500000000E+002,  0.00000000000E+000,  0.10000000000E+001
  0.98684000000E+005,  0.78999104885E+006,  0.16500000000E+002,  0.00000000000E+000,  0.10000000000E+001
  0.98714000000E+005,  0.79049183785E+006,  0.16500000000E+002,  0.00000000000E+000,  0.10000000000E+001
  0.98744000000E+005,  0.79099871370E+006,  0.16500000000E+002,  0.00000000000E+000,  0.10000000000E+001
  0.98774000000E+005,  0.79151163418E+006,  0.16500000000E+002,  0.00000000000E+000,  0.10000000000E+001
  0.98804000000E+005,  0.79203055649E+006,  0.16500000000E+002,  0.00000000000E+000,  0.10000000000E+001
  0.98834000000E+005,  0.79255543724E+006,  0.16500000000E+002,  0.00000000000E+000,  0.10000000000E+001
  0.98864000000E+005,  0.79308623253E+006,  0.16500000000E+002,  0.00000000000E+000,  0.10000000000E+001
  0.98894000000E+005,  0.79362289793E+006,  0.16500000000E+002,  0.00000000000E+000,  0.10000000000E+001
  0.98924000000E+005,  0.79416538860E+006,  0.16500000000E+002,  0.00000000000E+000,  0.10000000000E+001
  0.98954000000E+005,  0.79471365923E+006,  0.16500000000E+002,  0.00000000000E+000,  0.10000000000E+001
  0.98984000000E+005,  0.79526766414E+006,  0.16500000000E+002,  0.00000000000E+000,  0.10000000000E+001
  0.99014000000E+005,  0.79582735728E+006,  0.16500000000E+002,  0.00000000000E+000,  0.10000000000E+001
  0.99044000000E+005,  0.79639269227E+006,  0.16500000000E+002,  0.00000000000E+000,  0.10000000000E+001
  0.99074000000E+005,  0.79696362244E+006,  0.16500000000E+002,  0.00000000000E+000,  0.10000000000E+001
  0.99104000000E+005,  0.79754010083E+006,  0.16500000000E+002,  0.00000000000E+000,  0.10000000000E+001
  0.99134000000E+005,  0.79812208024E+006,  0.16500000000E+002,  0.00000000000E+000,  0.10000000000E+001
  0.99164000000E+005,  0.79870951325E+006,  0.16500000000E+002,  0.00000000000E+000,  0.10000000000E+001
  0.99194000000E+005,  0.79930235226E+006,  0.16500000000E+002,  0.00000000000E+000,  0.10000000000E+001
  0.99224000000E+005,  0.79990054948E+006,  0.16500000000E+002,  0.00000000000E+000,  0.10000000000E+001
  0.99254000000E+005,  0.80050405699E+006,  0.16500000000E+002,  0.00000000000E+000,  0.10000000000E+001
  0.99284000000E+005,  0.80111282675E+006,  0.16500000000E+002,  0.00000000000E+000,  0.10000000000E+001
  0.99314000000E+005,  0.80172681060E+006,  0.16500000000E+002,  0.00000000000E+000,  0.10000000000E+001
  0.99344000000E+005,  0.80234596031E+006,  0.16500000000E+002,  0.00000000000E+000,  0.10000000000E+001
  0.99374000000E+005,  0.80297022761E+006,  0.16500000000E+002,  0.00000000000E+000,  0.10000000000E+001
  0.99404000000E+005,  0.80359956417E+006,  0.16500000000E+002,  0.00000000000E+000,  0.10000000000E+001
  0.99434000000E+005,  0.80423392164E+006,  0.16500000000E+002,  0.00000000000E+000,  0.10000000000E+001
  0.99464000000E+005,  0.80487325167E+006,  0.16500000000E+002,  0.00000000000E+000,  0.10000000000E+001
  0.99494000000E+005,  0.80551750593E+006,  0.16500000000E+002,  0.00000000000E+000,  0.10000000000E+001
  0.99524000000E+005,  0.80616663611E+006,  0.16500000000E+002,  0.00000000000E+000,  0.10000000000E+001
  0.99554000000E+005,  0.80682059397E+006,  0.16500000000E+002,  0.00000000000E+000,  0.10000000000E+001
  0.99584000000E+005,  0.80747933130E+006,  0.16500000000E+002,  0.00000000000E+000,  0.10000000000E+001
  0.99614000000E+005,  0.80814279998E+006,  0.16500000000E+002,  0.00000000000E+000,  0.10000000000E+001
  0.99644000000E+005,  0.80881095200E+006,  0.16500000000E+002,  0.00000000000E+000,  0.10000000000E+001
  0.99674000000E+005,  0.80948373942E+006,  0.16500000000E+002,  0.00000000000E+000,  0.10000000000E+001
  0.99704000000E+005,  0.81016111445E+006,  0.16500000000E+002,  0.00000000000E+000,  0.10000000000E+001
  0.99734000000E+005,  0.81084302940E+006,  0.16500000000E+002,  0.00000000000E+000,  0.10000000000E+001
  0.99764000000E+005,  0.81152943673E+006,  0.16500000000E+002,  0.00000000000E+000,  0.10000000000E+001
  0.99794000000E+005,  0.81222028905E+006,  0.16500000000E+002,  0.00000000000E+000,  0.10000000000E+001
  0.99824000000E+005,  0.81291553915E+006,  0.16500000000E+002,  0.00000000000E+000,  0.10000000000E+001
  0.99854000000E+005,  0.81361513997E+006,  0.16500000000E+002,  0.00000000000E+000,  0.10000000000E+001
  0.99884000000E+005,  0.81431904463E+006,  0.16500000000E+002,  0.00000000000E+000,  0.10000000000E+001
  0.99914000000E+005,  0.81502720646E+006,  0.16500000000E+002,  0.00000000000E+000,  0.10000000000E+001
  0.99944000000E+005,  0.81573957897E+006,  0.16500000000E+002,  0.00000000000E+000,  0.10000000000E+001
  0.99974000000E+005,  0.81645611587E+006,  0.16500000000E+002,  0.00000000000E+000,  0.10000000000E+001
  0.10000400000E+006,  0.81717677112E+006,  0.16500000000E+002,  0.00000000000E+000,  0.10000000000E+001
  0.10003400000E+006,  0.81790149886E+006,  0.16500000000E+002,  0.00000000000E+000,  0.10000000000E+001
  0.10006400000E+006,  0.81863025346E+006,  0.16500000000E+002,  0.00000000000E+000,  0.10000000000E+001
  0.10009400000E+006,  0.81936298952E+006,  0.16500000000E+002,  0.00000000000E+000,  0.10000000000E+001
  0.10012400000E+006,  0.82009966185E+006,  0.16500000000E+002,  0.00000000000E+000,  0.10000000000E+001
  0.10015400000E+006,  0.82084022547E+006,  0.16500000000E+002,  0.00000000000E+000,  0.10000000000E+001
  0.10018400000E+006,  0.82158463561E+006,  0.16500000000E+002,  0.00000000000E+000,  0.10000000000E+001
  0.10021400000E+006,  0.82233284766E+006,  0.16500000000E+002,  0.00000000000E+000,  0.10000000000E+001
  0.10024400000E+006,  0.82308481720E+006,  0.16500000000E+002,  0.00000000000E+000,  0.10000000000E+001
  0.10027400000E+006,  0.82384049995E+006,  0.16500000000E+002,  0.00000000000E+000,  0.10000000000E+001
  0.10030400000E+006,  0.82459985172E+006,  0.16500000000E+002,  0.00000000000E+000,  0.10000000000E+001
  0.10033400000E+006,  0.82536282844E+006,  0.16500000000E+002,  0.00000000000E+000,  0.10000000000E+001
  0.10036400000E+006,  0.82612938611E+006,  0.16500000000E+002,  0.00000000000E+000,  0.10000000000E+001
  0.10039400000E+006,  0.82689948073E+006,  0.16500000000E+002,  0.00000000000E+000,  0.10000000000E+001
  0.10042400000E+006,  0.82767306835E+006,  0.16500000000E+002,  0.00000000000E+000,  0.10000000000E+001
  0.10045400000E+006,  0.82845010497E+006,  0.16500000000E+002,  0.00000000000E+000,  0.10000000000E+001
  0.10048400000E+006,  0.82923054658E+006,  0.16500000000E+002,  0.00000000000E+000,  0.10000000000E+001
  0.10051400000E+006,  0.83001434910E+006,  0.16500000000E+002,  0.00000000000E+000,  0.10000000000E+001
  0.10054400000E+006,  0.83080146839E+006,  0.16500000000E+002,  0.00000000000E+000,  0.10000000000E+001
