"           TIME(S)","              PRES","              TEMP","             SAT_G","             SAT_L"
  0.32540100000E+005,  0.59084704873E+007,  0.16500000000E+002,  0.00000000000E+000,  0.10000000000E+001
  0.32540600000E+005,  0.41596105116E+007,  0.16500000000E+002,  0.00000000000E+000,  0.10000000000E+001
  0.32543100000E+005,  0.29198449390E+007,  0.16500000000E+002,  0.00000000000E+000,  0.10000000000E+001
  0.32553100000E+005,  0.24557778606E+007,  0.16500000000E+002,  0.00000000000E+000,  0.10000000000E+001
  0.32563100000E+005,  0.23312553749E+007,  0.16500000000E+002,  0.00000000000E+000,  0.10000000000E+001
  0.32573100000E+005,  0.23206494883E+007,  0.16500000000E+002,  0.00000000000E+000,  0.10000000000E+001
  0.32583100000E+005,  0.23364704822E+007,  0.16500000000E+002,  0.00000000000E+000,  0.10000000000E+001
  0.32593100000E+005,  0.23629197472E+007,  0.16500000000E+002,  0.00000000000E+000,  0.10000000000E+001
  0.32603100000E+005,  0.24070928597E+007,  0.16500000000E+002,  0.00000000000E+000,  0.10000000000E+001
  0.32613100000E+005,  0.24247905656E+007,  0.16500000000E+002,  0.00000000000E+000,  0.10000000000E+001
  0.32623100000E+005,  0.24504625779E+007,  0.16500000000E+002,  0.00000000000E+000,  0.10000000000E+001
  0.32633100000E+005,  0.24494807924E+007,  0.16500000000E+002,  0.00000000000E+000,  0.10000000000E+001
  0.32643100000E+005,  0.24625730183E+007,  0.16500000000E+002,  0.00000000000E+000,  0.10000000000E+001
  0.32653100000E+005,  0.24774281275E+007,  0.16500000000E+002,  0.00000000000E+000,  0.10000000000E+001
  0.32663100000E+005,  0.24919558847E+007,  0.16500000000E+002,  0.00000000000E+000,  0.10000000000E+001
  0.32673100000E+005,  0.25058777025E+007,  0.16500000000E+002,  0.00000000000E+000,  0.10000000000E+001
  0.32683100000E+005,  0.25191272225E+007,  0.16500000000E+002,  0.00000000000E+000,  0.10000000000E+001
  0.32693100000E+005,  0.25317321873E+007,  0.16500000000E+002,  0.00000000000E+000,  0.10000000000E+001
  0.32703100000E+005,  0.25437358849E+007,  0.16500000000E+002,  0.00000000000E+000,  0.10000000000E+001
  0.32713100000E+005,  0.25551831637E+007,  0.16500000000E+002,  0.00000000000E+000,  0.10000000000E+001
  0.32723100000E+005,  0.25661116334E+007,  0.16500000000E+002,  0.00000000000E+000,  0.10000000000E+001
  0.32733100000E+005,  0.25765529867E+007,  0.16500000000E+002,  0.00000000000E+000,  0.10000000000E+001
  0.32743100000E+005,  0.25865459328E+007,  0.16500000000E+002,  0.00000000000E+000,  0.10000000000E+001
  0.32753100000E+005,  0.25961246516E+007,  0.16500000000E+002,  0.00000000000E+000,  0.10000000000E+001
  0.32763100000E+005,  0.26053212997E+007,  0.16500000000E+002,  0.00000000000E+000,  0.10000000000E+001
  0.32773100000E+005,  0.26141614824E+007,  0.16500000000E+002,  0.00000000000E+000,  0.10000000000E+001
  0.32783100000E+005,  0.26226672881E+007,  0.16500000000E+002,  0.00000000000E+000,  0.10000000000E+001
  0.32793100000E+005,  0.26308619008E+007,  0.16500000000E+002,  0.00000000000E+000,  0.10000000000E+001
  0.32803100000E+005,  0.26387713790E+007,  0.16500000000E+002,  0.00000000000E+000,  0.10000000000E+001
  0.32813100000E+005,  0.26464074011E+007,  0.16500000000E+002,  0.00000000000E+000,  0.10000000000E+001
  0.32823100000E+005,  0.26537788927E+007,  0.16500000000E+002,  0.00000000000E+000,  0.10000000000E+001
  0.32833100000E+005,  0.26609251404E+007,  0.16500000000E+002,  0.00000000000E+000,  0.10000000000E+001
  0.32843100000E+005,  0.26678460821E+007,  0.16500000000E+002,  0.00000000000E+000,  0.10000000000E+001
  0.32853100000E+005,  0.26745667427E+007,  0.16500000000E+002,  0.00000000000E+000,  0.10000000000E+001
  0.32863100000E+005,  0.26810922966E+007,  0.16500000000E+002,  0.00000000000E+000,  0.10000000000E+001
  0.32873100000E+005,  0.26874312337E+007,  0.16500000000E+002,  0.00000000000E+000,  0.10000000000E+001
  0.32883100000E+005,  0.26935955981E+007,  0.16500000000E+002,  0.00000000000E+000,  0.10000000000E+001
  0.32893100000E+005,  0.26995980166E+007,  0.16500000000E+002,  0.00000000000E+000,  0.10000000000E+001
  0.32903100000E+005,  0.27054446686E+007,  0.16500000000E+002,  0.00000000000E+000,  0.10000000000E+001
  0.32913100000E+005,  0.27111420279E+007,  0.16500000000E+002,  0.00000000000E+000,  0.10000000000E+001
  0.32923100000E+005,  0.27166862683E+007,  0.16500000000E+002,  0.00000000000E+000,  0.10000000000E+001
  0.32933100000E+005,  0.27221023841E+007,  0.16500000000E+002,  0.00000000000E+000,  0.10000000000E+001
  0.32943100000E+005,  0.27273895200E+007,  0.16500000000E+002,  0.00000000000E+000,  0.10000000000E+001
  0.32953100000E+005,  0.27325552249E+007,  0.16500000000E+002,  0.00000000000E+000,  0.10000000000E+001
  0.32963100000E+005,  0.27376078865E+007,  0.16500000000E+002,  0.00000000000E+000,  0.10000000000E+001
  0.32973100000E+005,  0.27425502118E+007,  0.16500000000E+002,  0.00000000000E+000,  0.10000000000E+001
  0.32983100000E+005,  0.27473857381E+007,  0.16500000000E+002,  0.00000000000E+000,  0.10000000000E+001
  0.32993100000E+005,  0.27521135237E+007,  0.16500000000E+002,  0.00000000000E+000,  0.10000000000E+001
  0.33003100000E+005,  0.27567440986E+007,  0.16500000000E+002,  0.00000000000E+000,  0.10000000000E+001
  0.33013100000E+005,  0.27612832604E+007,  0.16500000000E+002,  0.00000000000E+000,  0.10000000000E+001
  0.33023100000E+005,  0.27657321856E+007,  0.16500000000E+002,  0.00000000000E+000,  0.10000000000E+001
  0.33033100000E+005,  0.27700949279E+007,  0.16500000000E+002,  0.00000000000E+000,  0.10000000000E+001
  0.33043100000E+005,  0.27743740815E+007,  0.16500000000E+002,  0.00000000000E+000,  0.10000000000E+001
  0.33053100000E+005,  0.27785676135E+007,  0.16500000000E+002,  0.00000000000E+000,  0.10000000000E+001
  0.33063100000E+005,  0.27826817733E+007,  0.16500000000E+002,  0.00000000000E+000,  0.10000000000E+001
  0.33073100000E+005,  0.27867258727E+007,  0.16500000000E+002,  0.00000000000E+000,  0.10000000000E+001
  0.33083100000E+005,  0.27906997301E+007,  0.16500000000E+002,  0.00000000000E+000,  0.10000000000E+001
  0.33093100000E+005,  0.27946046558E+007,  0.16500000000E+002,  0.00000000000E+000,  0.10000000000E+001
  0.33103100000E+005,  0.27984426119E+007,  0.16500000000E+002,  0.00000000000E+000,  0.10000000000E+001
  0.33113100000E+005,  0.28022156562E+007,  0.16500000000E+002,  0.00000000000E+000,  0.10000000000E+001
  0.33123100000E+005,  0.28059258071E+007,  0.16500000000E+002,  0.00000000000E+000,  0.10000000000E+001
  0.33133100000E+005,  0.28095738412E+007,  0.16500000000E+002,  0.00000000000E+000,  0.10000000000E+001
  0.33143100000E+005,  0.28131632501E+007,  0.16500000000E+002,  0.00000000000E+000,  0.10000000000E+001
  0.33153100000E+005,  0.28166955181E+007,  0.16500000000E+002,  0.00000000000E+000,  0.10000000000E+001
  0.33163100000E+005,  0.28201720504E+007,  0.16500000000E+002,  0.00000000000E+000,  0.10000000000E+001
  0.33173100000E+005,  0.28235941078E+007,  0.16500000000E+002,  0.00000000000E+000,  0.10000000000E+001
  0.33183100000E+005,  0.28269641337E+007,  0.16500000000E+002,  0.00000000000E+000,  0.10000000000E+001
  0.33193100000E+005,  0.28302813896E+007,  0.16500000000E+002,  0.00000000000E+000,  0.10000000000E+001
  0.33203100000E+005,  0.28335501388E+007,  0.16500000000E+002,  0.00000000000E+000,  0.10000000000E+001
  0.33213100000E+005,  0.28367715509E+007,  0.16500000000E+002,  0.00000000000E+000,  0.10000000000E+001
  0.33223100000E+005,  0.28399463217E+007,  0.16500000000E+002,  0.00000000000E+000,  0.10000000000E+001
  0.33233100000E+005,  0.28430755337E+007,  0.16500000000E+002,  0.00000000000E+000,  0.10000000000E+001
  0.33243100000E+005,  0.28461603183E+007,  0.16500000000E+002,  0.00000000000E+000,  0.10000000000E+001
  0.33253100000E+005,  0.28492017840E+007,  0.16500000000E+002,  0.00000000000E+000,  0.10000000000E+001
  0.33263100000E+005,  0.28522010025E+007,  0.16500000000E+002,  0.00000000000E+000,  0.10000000000E+001
  0.33273100000E+005,  0.28551590058E+007,  0.16500000000E+002,  0.00000000000E+000,  0.10000000000E+001
  0.33283100000E+005,  0.28580767864E+007,  0.16500000000E+002,  0.00000000000E+000,  0.10000000000E+001
  0.33293100000E+005,  0.28609552990E+007,  0.16500000000E+002,  0.00000000000E+000,  0.10000000000E+001
  0.33303100000E+005,  0.28637954615E+007,  0.16500000000E+002,  0.00000000000E+000,  0.10000000000E+001
  0.33313100000E+005,  0.28665981438E+007,  0.16500000000E+002,  0.00000000000E+000,  0.10000000000E+001
  0.33323100000E+005,  0.28693640632E+007,  0.16500000000E+002,  0.00000000000E+000,  0.10000000000E+001
  0.33333100000E+005,  0.28720942158E+007,  0.16500000000E+002,  0.00000000000E+000,  0.10000000000E+001
  0.33343100000E+005,  0.28747893980E+007,  0.16500000000E+002,  0.00000000000E+000,  0.10000000000E+001
  0.33353100000E+005,  0.28774503567E+007,  0.16500000000E+002,  0.00000000000E+000,  0.10000000000E+001
  0.33363100000E+005,  0.28800778159E+007,  0.16500000000E+002,  0.00000000000E+000,  0.10000000000E+001
  0.33373100000E+005,  0.28826724773E+007,  0.16500000000E+002,  0.00000000000E+000,  0.10000000000E+001
  0.33383100000E+005,  0.28852350206E+007,  0.16500000000E+002,  0.00000000000E+000,  0.10000000000E+001
  0.33393100000E+005,  0.28877661031E+007,  0.16500000000E+002,  0.00000000000E+000,  0.10000000000E+001
  0.33403100000E+005,  0.28902663608E+007,  0.16500000000E+002,  0.00000000000E+000,  0.10000000000E+001
  0.33413100000E+005,  0.28927363069E+007,  0.16500000000E+002,  0.00000000000E+000,  0.10000000000E+001
  0.33423100000E+005,  0.28951766099E+007,  0.16500000000E+002,  0.00000000000E+000,  0.10000000000E+001
  0.33433100000E+005,  0.28975879097E+007,  0.16500000000E+002,  0.00000000000E+000,  0.10000000000E+001
  0.33443100000E+005,  0.28999707593E+007,  0.16500000000E+002,  0.00000000000E+000,  0.10000000000E+001
  0.33453100000E+005,  0.29023256889E+007,  0.16500000000E+002,  0.00000000000E+000,  0.10000000000E+001
  0.33463100000E+005,  0.29046532158E+007,  0.16500000000E+002,  0.00000000000E+000,  0.10000000000E+001
  0.33473100000E+005,  0.29069538439E+007,  0.16500000000E+002,  0.00000000000E+000,  0.10000000000E+001
  0.33483100000E+005,  0.29092280635E+007,  0.16500000000E+002,  0.00000000000E+000,  0.10000000000E+001
  0.33493100000E+005,  0.29114763510E+007,  0.16500000000E+002,  0.00000000000E+000,  0.10000000000E+001
  0.33503100000E+005,  0.29136991562E+007,  0.16500000000E+002,  0.00000000000E+000,  0.10000000000E+001
  0.33513100000E+005,  0.29158959385E+007,  0.16500000000E+002,  0.00000000000E+000,  0.10000000000E+001
  0.33523100000E+005,  0.29180688001E+007,  0.16500000000E+002,  0.00000000000E+000,  0.10000000000E+001
  0.33533100000E+005,  0.29202177073E+007,  0.16500000000E+002,  0.00000000000E+000,  0.10000000000E+001
  0.33543100000E+005,  0.29223429224E+007,  0.16500000000E+002,  0.00000000000E+000,  0.10000000000E+001
  0.33553100000E+005,  0.29244447037E+007,  0.16500000000E+002,  0.00000000000E+000,  0.10000000000E+001
  0.33563100000E+005,  0.29265235931E+007,  0.16500000000E+002,  0.00000000000E+000,  0.10000000000E+001
  0.33573100000E+005,  0.29285799676E+007,  0.16500000000E+002,  0.00000000000E+000,  0.10000000000E+001
  0.33583100000E+005,  0.29306141805E+007,  0.16500000000E+002,  0.00000000000E+000,  0.10000000000E+001
  0.33593100000E+005,  0.29326265820E+007,  0.16500000000E+002,  0.00000000000E+000,  0.10000000000E+001
  0.33603100000E+005,  0.29346175181E+007,  0.16500000000E+002,  0.00000000000E+000,  0.10000000000E+001
  0.33613100000E+005,  0.29365873288E+007,  0.16500000000E+002,  0.00000000000E+000,  0.10000000000E+001
  0.33623100000E+005,  0.29385363466E+007,  0.16500000000E+002,  0.00000000000E+000,  0.10000000000E+001
  0.33633100000E+005,  0.29404648969E+007,  0.16500000000E+002,  0.00000000000E+000,  0.10000000000E+001
  0.33643100000E+005,  0.29423732943E+007,  0.16500000000E+002,  0.00000000000E+000,  0.10000000000E+001
  0.33653100000E+005,  0.29442617455E+007,  0.16500000000E+002,  0.00000000000E+000,  0.10000000000E+001
  0.33663100000E+005,  0.29461306867E+007,  0.16500000000E+002,  0.00000000000E+000,  0.10000000000E+001
  0.33673100000E+005,  0.29479804184E+007,  0.16500000000E+002,  0.00000000000E+000,  0.10000000000E+001
  0.33683100000E+005,  0.29498112198E+007,  0.16500000000E+002,  0.00000000000E+000,  0.10000000000E+001
  0.33693100000E+005,  0.29516233673E+007,  0.16500000000E+002,  0.00000000000E+000,  0.10000000000E+001
  0.33703100000E+005,  0.29534171340E+007,  0.16500000000E+002,  0.00000000000E+000,  0.10000000000E+001
  0.33713100000E+005,  0.29551927885E+007,  0.16500000000E+002,  0.00000000000E+000,  0.10000000000E+001
  0.33723100000E+005,  0.29569505944E+007,  0.16500000000E+002,  0.00000000000E+000,  0.10000000000E+001
  0.33733100000E+005,  0.29586908101E+007,  0.16500000000E+002,  0.00000000000E+000,  0.10000000000E+001
  0.33743100000E+005,  0.29604136886E+007,  0.16500000000E+002,  0.00000000000E+000,  0.10000000000E+001
  0.33753100000E+005,  0.29621194780E+007,  0.16500000000E+002,  0.00000000000E+000,  0.10000000000E+001
  0.33763100000E+005,  0.29638084211E+007,  0.16500000000E+002,  0.00000000000E+000,  0.10000000000E+001
  0.33773100000E+005,  0.29654807557E+007,  0.16500000000E+002,  0.00000000000E+000,  0.10000000000E+001
  0.33783100000E+005,  0.29671367150E+007,  0.16500000000E+002,  0.00000000000E+000,  0.10000000000E+001
  0.33793100000E+005,  0.29687765273E+007,  0.16500000000E+002,  0.00000000000E+000,  0.10000000000E+001
  0.33803100000E+005,  0.29704004164E+007,  0.16500000000E+002,  0.00000000000E+000,  0.10000000000E+001
  0.33813100000E+005,  0.29720086018E+007,  0.16500000000E+002,  0.00000000000E+000,  0.10000000000E+001
  0.33823100000E+005,  0.29736012984E+007,  0.16500000000E+002,  0.00000000000E+000,  0.10000000000E+001
  0.33833100000E+005,  0.29751787172E+007,  0.16500000000E+002,  0.00000000000E+000,  0.10000000000E+001
  0.33843100000E+005,  0.29767410649E+007,  0.16500000000E+002,  0.00000000000E+000,  0.10000000000E+001
  0.33853100000E+005,  0.29782885445E+007,  0.16500000000E+002,  0.00000000000E+000,  0.10000000000E+001
  0.33863100000E+005,  0.29798213550E+007,  0.16500000000E+002,  0.00000000000E+000,  0.10000000000E+001
  0.33873100000E+005,  0.29813396916E+007,  0.16500000000E+002,  0.00000000000E+000,  0.10000000000E+001
  0.33883100000E+005,  0.29828437459E+007,  0.16500000000E+002,  0.00000000000E+000,  0.10000000000E+001
  0.33893100000E+005,  0.29843337060E+007,  0.16500000000E+002,  0.00000000000E+000,  0.10000000000E+001
  0.33903100000E+005,  0.29858097566E+007,  0.16500000000E+002,  0.00000000000E+000,  0.10000000000E+001
  0.33913100000E+005,  0.29872720790E+007,  0.16500000000E+002,  0.00000000000E+000,  0.10000000000E+001
  0.33923100000E+005,  0.29887208512E+007,  0.16500000000E+002,  0.00000000000E+000,  0.10000000000E+001
  0.33933100000E+005,  0.29901562479E+007,  0.16500000000E+002,  0.00000000000E+000,  0.10000000000E+001
  0.33943100000E+005,  0.29915784410E+007,  0.16500000000E+002,  0.00000000000E+000,  0.10000000000E+001
  0.33953100000E+005,  0.29929875992E+007,  0.16500000000E+002,  0.00000000000E+000,  0.10000000000E+001
  0.33963100000E+005,  0.29943838881E+007,  0.16500000000E+002,  0.00000000000E+000,  0.10000000000E+001
  0.33973100000E+005,  0.29957674708E+007,  0.16500000000E+002,  0.00000000000E+000,  0.10000000000E+001
  0.33983100000E+005,  0.29971385071E+007,  0.16500000000E+002,  0.00000000000E+000,  0.10000000000E+001
  0.33993100000E+005,  0.29984971546E+007,  0.16500000000E+002,  0.00000000000E+000,  0.10000000000E+001
  0.34003100000E+005,  0.29998435678E+007,  0.16500000000E+002,  0.00000000000E+000,  0.10000000000E+001
  0.34013100000E+005,  0.30011778987E+007,  0.16500000000E+002,  0.00000000000E+000,  0.10000000000E+001
  0.34023100000E+005,  0.30025002970E+007,  0.16500000000E+002,  0.00000000000E+000,  0.10000000000E+001
  0.34033100000E+005,  0.30038109096E+007,  0.16500000000E+002,  0.00000000000E+000,  0.10000000000E+001
  0.34043100000E+005,  0.30051098811E+007,  0.16500000000E+002,  0.00000000000E+000,  0.10000000000E+001
  0.34053100000E+005,  0.30063973538E+007,  0.16500000000E+002,  0.00000000000E+000,  0.10000000000E+001
  0.34063100000E+005,  0.30076734674E+007,  0.16500000000E+002,  0.00000000000E+000,  0.10000000000E+001
  0.34073100000E+005,  0.30089383597E+007,  0.16500000000E+002,  0.00000000000E+000,  0.10000000000E+001
  0.34083100000E+005,  0.30101921659E+007,  0.16500000000E+002,  0.00000000000E+000,  0.10000000000E+001
  0.34093100000E+005,  0.30114350195E+007,  0.16500000000E+002,  0.00000000000E+000,  0.10000000000E+001
  0.34103100000E+005,  0.30126670514E+007,  0.16500000000E+002,  0.00000000000E+000,  0.10000000000E+001
  0.34113100000E+005,  0.30138883907E+007,  0.16500000000E+002,  0.00000000000E+000,  0.10000000000E+001
  0.34123100000E+005,  0.30150991643E+007,  0.16500000000E+002,  0.00000000000E+000,  0.10000000000E+001
  0.34133100000E+005,  0.30162994974E+007,  0.16500000000E+002,  0.00000000000E+000,  0.10000000000E+001
  0.34143100000E+005,  0.30174895128E+007,  0.16500000000E+002,  0.00000000000E+000,  0.10000000000E+001
  0.34153100000E+005,  0.30186693319E+007,  0.16500000000E+002,  0.00000000000E+000,  0.10000000000E+001
  0.34163100000E+005,  0.30198390738E+007,  0.16500000000E+002,  0.00000000000E+000,  0.10000000000E+001
  0.34173100000E+005,  0.30209988560E+007,  0.16500000000E+002,  0.00000000000E+000,  0.10000000000E+001
  0.34183100000E+005,  0.30221487941E+007,  0.16500000000E+002,  0.00000000000E+000,  0.10000000000E+001
  0.34193100000E+005,  0.30232890021E+007,  0.16500000000E+002,  0.00000000000E+000,  0.10000000000E+001
  0.34203100000E+005,  0.30244195921E+007,  0.16500000000E+002,  0.00000000000E+000,  0.10000000000E+001
  0.34213100000E+005,  0.30255406745E+007,  0.16500000000E+002,  0.00000000000E+000,  0.10000000000E+001
  0.34223100000E+005,  0.30266523583E+007,  0.16500000000E+002,  0.00000000000E+000,  0.10000000000E+001
  0.34233100000E+005,  0.30277547506E+007,  0.16500000000E+002,  0.00000000000E+000,  0.10000000000E+001
  0.34243100000E+005,  0.30288479570E+007,  0.16500000000E+002,  0.00000000000E+000,  0.10000000000E+001
  0.34253100000E+005,  0.30299320815E+007,  0.16500000000E+002,  0.00000000000E+000,  0.10000000000E+001
  0.34263100000E+005,  0.30310072268E+007,  0.16500000000E+002,  0.00000000000E+000,  0.10000000000E+001
  0.34273100000E+005,  0.30320734937E+007,  0.16500000000E+002,  0.00000000000E+000,  0.10000000000E+001
  0.34283100000E+005,  0.30331309819E+007,  0.16500000000E+002,  0.00000000000E+000,  0.10000000000E+001
  0.34293100000E+005,  0.30341797894E+007,  0.16500000000E+002,  0.00000000000E+000,  0.10000000000E+001
  0.34303100000E+005,  0.30352200129E+007,  0.16500000000E+002,  0.00000000000E+000,  0.10000000000E+001
  0.34313100000E+005,  0.30362517476E+007,  0.16500000000E+002,  0.00000000000E+000,  0.10000000000E+001
  0.34323100000E+005,  0.30372750876E+007,  0.16500000000E+002,  0.00000000000E+000,  0.10000000000E+001
  0.34333100000E+005,  0.30382901252E+007,  0.16500000000E+002,  0.00000000000E+000,  0.10000000000E+001
  0.34343100000E+005,  0.30392969519E+007,  0.16500000000E+002,  0.00000000000E+000,  0.10000000000E+001
  0.34353100000E+005,  0.30402956575E+007,  0.16500000000E+002,  0.00000000000E+000,  0.10000000000E+001
  0.34363100000E+005,  0.30412863308E+007,  0.16500000000E+002,  0.00000000000E+000,  0.10000000000E+001
  0.34373100000E+005,  0.30422690590E+007,  0.16500000000E+002,  0.00000000000E+000,  0.10000000000E+001
  0.34383100000E+005,  0.30432439285E+007,  0.16500000000E+002,  0.00000000000E+000,  0.10000000000E+001
  0.34393100000E+005,  0.30442110243E+007,  0.16500000000E+002,  0.00000000000E+000,  0.10000000000E+001
  0.34403100000E+005,  0.30451704300E+007,  0.16500000000E+002,  0.00000000000E+000,  0.10000000000E+001
