"           TIME(S)","              PRES","              TEMP","             SAT_G","             SAT_L"
  0.32470020000E+005,  0.18182157375E+006,  0.16500000000E+002,  0.00000000000E+000,  0.10000000000E+001
  0.32470120000E+005,  0.18627459987E+006,  0.16500000000E+002,  0.00000000000E+000,  0.10000000000E+001
  0.32470420000E+005,  0.20128035786E+006,  0.16500000000E+002,  0.00000000000E+000,  0.10000000000E+001
  0.32470720000E+005,  0.21662957619E+006,  0.16500000000E+002,  0.00000000000E+000,  0.10000000000E+001
  0.32471020000E+005,  0.23204346915E+006,  0.16500000000E+002,  0.00000000000E+000,  0.10000000000E+001
  0.32471320000E+005,  0.24744449673E+006,  0.16500000000E+002,  0.00000000000E+000,  0.10000000000E+001
  0.32471620000E+005,  0.26280810401E+006,  0.16500000000E+002,  0.00000000000E+000,  0.10000000000E+001
  0.32471920000E+005,  0.27812576960E+006,  0.16500000000E+002,  0.00000000000E+000,  0.10000000000E+001
  0.32472220000E+005,  0.29339469270E+006,  0.16500000000E+002,  0.00000000000E+000,  0.10000000000E+001
  0.32472520000E+005,  0.30861412259E+006,  0.16500000000E+002,  0.00000000000E+000,  0.10000000000E+001
  0.32472820000E+005,  0.32378403249E+006,  0.16500000000E+002,  0.00000000000E+000,  0.10000000000E+001
  0.32473120000E+005,  0.33890465254E+006,  0.16500000000E+002,  0.00000000000E+000,  0.10000000000E+001
  0.32473420000E+005,  0.35397630348E+006,  0.16500000000E+002,  0.00000000000E+000,  0.10000000000E+001
  0.32473720000E+005,  0.36899933751E+006,  0.16500000000E+002,  0.00000000000E+000,  0.10000000000E+001
  0.32474020000E+005,  0.38397411657E+006,  0.16500000000E+002,  0.00000000000E+000,  0.10000000000E+001
  0.32474320000E+005,  0.39890100452E+006,  0.16500000000E+002,  0.00000000000E+000,  0.10000000000E+001
  0.32474620000E+005,  0.41378036434E+006,  0.16500000000E+002,  0.00000000000E+000,  0.10000000000E+001
  0.32474920000E+005,  0.42861255700E+006,  0.16500000000E+002,  0.00000000000E+000,  0.10000000000E+001
  0.32475220000E+005,  0.44339794086E+006,  0.16500000000E+002,  0.00000000000E+000,  0.10000000000E+001
  0.32475520000E+005,  0.45813687176E+006,  0.16500000000E+002,  0.00000000000E+000,  0.10000000000E+001
  0.32475820000E+005,  0.47282970271E+006,  0.16500000000E+002,  0.00000000000E+000,  0.10000000000E+001
  0.32476120000E+005,  0.48747678386E+006,  0.16500000000E+002,  0.00000000000E+000,  0.10000000000E+001
  0.32476420000E+005,  0.50207840270E+006,  0.16500000000E+002,  0.00000000000E+000,  0.10000000000E+001
  0.32476720000E+005,  0.51663446109E+006,  0.16500000000E+002,  0.00000000000E+000,  0.10000000000E+001
  0.32477020000E+005,  0.53114538901E+006,  0.16500000000E+002,  0.00000000000E+000,  0.10000000000E+001
  0.32477320000E+005,  0.54561159023E+006,  0.16500000000E+002,  0.00000000000E+000,  0.10000000000E+001
  0.32477620000E+005,  0.56003161883E+006,  0.16500000000E+002,  0.00000000000E+000,  0.10000000000E+001
  0.32477920000E+005,  0.57440665993E+006,  0.16500000000E+002,  0.00000000000E+000,  0.10000000000E+001
  0.32478220000E+005,  0.58873307517E+006,  0.16500000000E+002,  0.00000000000E+000,  0.10000000000E+001
  0.32478520000E+005,  0.60301512256E+006,  0.16500000000E+002,  0.00000000000E+000,  0.10000000000E+001
  0.32478820000E+005,  0.61723389284E+006,  0.16500000000E+002,  0.00000000000E+000,  0.10000000000E+001
  0.32479120000E+005,  0.63140498616E+006,  0.16500000000E+002,  0.00000000000E+000,  0.10000000000E+001
  0.32479420000E+005,  0.64553213178E+006,  0.16500000000E+002,  0.00000000000E+000,  0.10000000000E+001
  0.32479720000E+005,  0.65962750505E+006,  0.16500000000E+002,  0.00000000000E+000,  0.10000000000E+001
  0.32480020000E+005,  0.67369133006E+006,  0.16500000000E+002,  0.00000000000E+000,  0.10000000000E+001
  0.32480320000E+005,  0.68771414820E+006,  0.16500000000E+002,  0.00000000000E+000,  0.10000000000E+001
  0.32480620000E+005,  0.70246589505E+006,  0.16500000000E+002,  0.00000000000E+000,  0.10000000000E+001
  0.32480920000E+005,  0.72037863316E+006,  0.16500000000E+002,  0.00000000000E+000,  0.10000000000E+001
  0.32481220000E+005,  0.73848911314E+006,  0.16500000000E+002,  0.00000000000E+000,  0.10000000000E+001
  0.32481520000E+005,  0.75660285762E+006,  0.16500000000E+002,  0.00000000000E+000,  0.10000000000E+001
  0.32481820000E+005,  0.88976228254E+006,  0.16500000000E+002,  0.00000000000E+000,  0.10000000000E+001
  0.32482120000E+005,  0.10494846919E+007,  0.16500000000E+002,  0.00000000000E+000,  0.10000000000E+001
  0.32482420000E+005,  0.12120959742E+007,  0.16500000000E+002,  0.00000000000E+000,  0.10000000000E+001
  0.32482720000E+005,  0.13750650110E+007,  0.16500000000E+002,  0.00000000000E+000,  0.10000000000E+001
  0.32483020000E+005,  0.15377610293E+007,  0.16500000000E+002,  0.00000000000E+000,  0.10000000000E+001
  0.32483320000E+005,  0.16999939838E+007,  0.16500000000E+002,  0.00000000000E+000,  0.10000000000E+001
  0.32483620000E+005,  0.18617028373E+007,  0.16500000000E+002,  0.00000000000E+000,  0.10000000000E+001
  0.32483920000E+005,  0.20228689233E+007,  0.16500000000E+002,  0.00000000000E+000,  0.10000000000E+001
  0.32484220000E+005,  0.21834882534E+007,  0.16500000000E+002,  0.00000000000E+000,  0.10000000000E+001
  0.32484520000E+005,  0.23435620471E+007,  0.16500000000E+002,  0.00000000000E+000,  0.10000000000E+001
  0.32484820000E+005,  0.25030933826E+007,  0.16500000000E+002,  0.00000000000E+000,  0.10000000000E+001
  0.32485120000E+005,  0.26620859960E+007,  0.16500000000E+002,  0.00000000000E+000,  0.10000000000E+001
  0.32485420000E+005,  0.28205438461E+007,  0.16500000000E+002,  0.00000000000E+000,  0.10000000000E+001
  0.32485720000E+005,  0.29784709560E+007,  0.16500000000E+002,  0.00000000000E+000,  0.10000000000E+001
  0.32486020000E+005,  0.31358713542E+007,  0.16500000000E+002,  0.00000000000E+000,  0.10000000000E+001
  0.32486320000E+005,  0.32927490536E+007,  0.16500000000E+002,  0.00000000000E+000,  0.10000000000E+001
  0.32486620000E+005,  0.34491080422E+007,  0.16500000000E+002,  0.00000000000E+000,  0.10000000000E+001
  0.32486920000E+005,  0.36049522802E+007,  0.16500000000E+002,  0.00000000000E+000,  0.10000000000E+001
  0.32487220000E+005,  0.37602856979E+007,  0.16500000000E+002,  0.00000000000E+000,  0.10000000000E+001
  0.32487520000E+005,  0.39151115544E+007,  0.16500000000E+002,  0.00000000000E+000,  0.10000000000E+001
  0.32487820000E+005,  0.40694089961E+007,  0.16500000000E+002,  0.00000000000E+000,  0.10000000000E+001
  0.32488120000E+005,  0.42231965820E+007,  0.16500000000E+002,  0.00000000000E+000,  0.10000000000E+001
  0.32488420000E+005,  0.43764443000E+007,  0.16500000000E+002,  0.00000000000E+000,  0.10000000000E+001
  0.32488720000E+005,  0.45291870996E+007,  0.16500000000E+002,  0.00000000000E+000,  0.10000000000E+001
  0.32489020000E+005,  0.46814363506E+007,  0.16500000000E+002,  0.00000000000E+000,  0.10000000000E+001
  0.32489320000E+005,  0.48331937378E+007,  0.16500000000E+002,  0.00000000000E+000,  0.10000000000E+001
  0.32489620000E+005,  0.49844542207E+007,  0.16500000000E+002,  0.00000000000E+000,  0.10000000000E+001
  0.32489920000E+005,  0.51352242242E+007,  0.16500000000E+002,  0.00000000000E+000,  0.10000000000E+001
  0.32490220000E+005,  0.52855102656E+007,  0.16500000000E+002,  0.00000000000E+000,  0.10000000000E+001
  0.32490520000E+005,  0.54353173942E+007,  0.16500000000E+002,  0.00000000000E+000,  0.10000000000E+001
  0.32490820000E+005,  0.55846499390E+007,  0.16500000000E+002,  0.00000000000E+000,  0.10000000000E+001
  0.32491120000E+005,  0.57335119131E+007,  0.16500000000E+002,  0.00000000000E+000,  0.10000000000E+001
  0.32491420000E+005,  0.58819071816E+007,  0.16500000000E+002,  0.00000000000E+000,  0.10000000000E+001
  0.32491720000E+005,  0.60298395250E+007,  0.16500000000E+002,  0.00000000000E+000,  0.10000000000E+001
  0.32492020000E+005,  0.61773126625E+007,  0.16500000000E+002,  0.00000000000E+000,  0.10000000000E+001
  0.32492320000E+005,  0.63243302619E+007,  0.16500000000E+002,  0.00000000000E+000,  0.10000000000E+001
  0.32492620000E+005,  0.64708959423E+007,  0.16500000000E+002,  0.00000000000E+000,  0.10000000000E+001
  0.32492920000E+005,  0.66170132768E+007,  0.16500000000E+002,  0.00000000000E+000,  0.10000000000E+001
  0.32493220000E+005,  0.67626857931E+007,  0.16500000000E+002,  0.00000000000E+000,  0.10000000000E+001
  0.32493520000E+005,  0.69079169746E+007,  0.16500000000E+002,  0.00000000000E+000,  0.10000000000E+001
  0.32493820000E+005,  0.70527102611E+007,  0.16500000000E+002,  0.00000000000E+000,  0.10000000000E+001
  0.32494120000E+005,  0.71970690493E+007,  0.16500000000E+002,  0.00000000000E+000,  0.10000000000E+001
  0.32494420000E+005,  0.73409966941E+007,  0.16500000000E+002,  0.00000000000E+000,  0.10000000000E+001
  0.32494720000E+005,  0.74844965085E+007,  0.16500000000E+002,  0.00000000000E+000,  0.10000000000E+001
  0.32495020000E+005,  0.76275717648E+007,  0.16500000000E+002,  0.00000000000E+000,  0.10000000000E+001
  0.32495320000E+005,  0.77702256953E+007,  0.16500000000E+002,  0.00000000000E+000,  0.10000000000E+001
  0.32495620000E+005,  0.79124614924E+007,  0.16500000000E+002,  0.00000000000E+000,  0.10000000000E+001
  0.32495920000E+005,  0.80542823099E+007,  0.16500000000E+002,  0.00000000000E+000,  0.10000000000E+001
  0.32496220000E+005,  0.81956895170E+007,  0.16500000000E+002,  0.00000000000E+000,  0.10000000000E+001
  0.32496520000E+005,  0.83366196098E+007,  0.16500000000E+002,  0.00000000000E+000,  0.10000000000E+001
  0.32496820000E+005,  0.84771460611E+007,  0.16500000000E+002,  0.00000000000E+000,  0.10000000000E+001
  0.32497120000E+005,  0.86172757588E+007,  0.16500000000E+002,  0.00000000000E+000,  0.10000000000E+001
  0.32497420000E+005,  0.87570072869E+007,  0.16500000000E+002,  0.00000000000E+000,  0.10000000000E+001
  0.32497720000E+005,  0.88963417879E+007,  0.16500000000E+002,  0.00000000000E+000,  0.10000000000E+001
  0.32498020000E+005,  0.90352815911E+007,  0.16500000000E+002,  0.00000000000E+000,  0.10000000000E+001
  0.32498320000E+005,  0.91738293984E+007,  0.16500000000E+002,  0.00000000000E+000,  0.10000000000E+001
  0.32498620000E+005,  0.93119880109E+007,  0.16500000000E+002,  0.00000000000E+000,  0.10000000000E+001
  0.32498920000E+005,  0.94497602407E+007,  0.16500000000E+002,  0.00000000000E+000,  0.10000000000E+001
  0.32499220000E+005,  0.95871488815E+007,  0.16500000000E+002,  0.00000000000E+000,  0.10000000000E+001
  0.32499520000E+005,  0.97241563670E+007,  0.16500000000E+002,  0.00000000000E+000,  0.10000000000E+001
  0.32499820000E+005,  0.98607853889E+007,  0.16500000000E+002,  0.00000000000E+000,  0.10000000000E+001
  0.32500000000E+005,  0.99426230090E+007,  0.16500000000E+002,  0.00000000000E+000,  0.10000000000E+001
