"           TIME(S)","              PRES","              TEMP","             SAT_G","             SAT_L"
  0.23620500000E+005,  0.81122216719E+006,  0.16500000000E+002,  0.00000000000E+000,  0.10000000000E+001
  0.23623000000E+005,  0.10719428782E+007,  0.16500000000E+002,  0.00000000000E+000,  0.10000000000E+001
  0.23628000000E+005,  0.15338053294E+007,  0.16500000000E+002,  0.00000000000E+000,  0.10000000000E+001
  0.23633000000E+005,  0.19546221892E+007,  0.16500000000E+002,  0.00000000000E+000,  0.10000000000E+001
  0.23638000000E+005,  0.23482153746E+007,  0.16500000000E+002,  0.00000000000E+000,  0.10000000000E+001
  0.23643000000E+005,  0.26996726778E+007,  0.16500000000E+002,  0.00000000000E+000,  0.10000000000E+001
  0.23648000000E+005,  0.25900562777E+007,  0.16500000000E+002,  0.00000000000E+000,  0.10000000000E+001
  0.23653000000E+005,  0.25108998729E+007,  0.16500000000E+002,  0.00000000000E+000,  0.10000000000E+001
  0.23658000000E+005,  0.24541166536E+007,  0.16500000000E+002,  0.00000000000E+000,  0.10000000000E+001
  0.23663000000E+005,  0.24112333518E+007,  0.16500000000E+002,  0.00000000000E+000,  0.10000000000E+001
  0.23668000000E+005,  0.23773420133E+007,  0.16500000000E+002,  0.00000000000E+000,  0.10000000000E+001
  0.23673000000E+005,  0.23495745578E+007,  0.16500000000E+002,  0.00000000000E+000,  0.10000000000E+001
  0.23678000000E+005,  0.23261700169E+007,  0.16500000000E+002,  0.00000000000E+000,  0.10000000000E+001
  0.23683000000E+005,  0.23059847471E+007,  0.16500000000E+002,  0.00000000000E+000,  0.10000000000E+001
  0.23688000000E+005,  0.22882376885E+007,  0.16500000000E+002,  0.00000000000E+000,  0.10000000000E+001
  0.23693000000E+005,  0.22723738299E+007,  0.16500000000E+002,  0.00000000000E+000,  0.10000000000E+001
  0.23698000000E+005,  0.22579871897E+007,  0.16500000000E+002,  0.00000000000E+000,  0.10000000000E+001
  0.23703000000E+005,  0.22447746428E+007,  0.16500000000E+002,  0.00000000000E+000,  0.10000000000E+001
  0.23708000000E+005,  0.22325065222E+007,  0.16500000000E+002,  0.00000000000E+000,  0.10000000000E+001
  0.23713000000E+005,  0.22210069063E+007,  0.16500000000E+002,  0.00000000000E+000,  0.10000000000E+001
  0.23718000000E+005,  0.22101398579E+007,  0.16500000000E+002,  0.00000000000E+000,  0.10000000000E+001
  0.23723000000E+005,  0.21997995364E+007,  0.16500000000E+002,  0.00000000000E+000,  0.10000000000E+001
  0.23728000000E+005,  0.21899029490E+007,  0.16500000000E+002,  0.00000000000E+000,  0.10000000000E+001
  0.23733000000E+005,  0.21803845635E+007,  0.16500000000E+002,  0.00000000000E+000,  0.10000000000E+001
  0.23738000000E+005,  0.21711922658E+007,  0.16500000000E+002,  0.00000000000E+000,  0.10000000000E+001
  0.23743000000E+005,  0.21622843065E+007,  0.16500000000E+002,  0.00000000000E+000,  0.10000000000E+001
  0.23748000000E+005,  0.21536269815E+007,  0.16500000000E+002,  0.00000000000E+000,  0.10000000000E+001
  0.23753000000E+005,  0.21451928622E+007,  0.16500000000E+002,  0.00000000000E+000,  0.10000000000E+001
  0.23758000000E+005,  0.21369594404E+007,  0.16500000000E+002,  0.00000000000E+000,  0.10000000000E+001
  0.23763000000E+005,  0.21289080858E+007,  0.16500000000E+002,  0.00000000000E+000,  0.10000000000E+001
  0.23768000000E+005,  0.21210232420E+007,  0.16500000000E+002,  0.00000000000E+000,  0.10000000000E+001
  0.23773000000E+005,  0.21132918034E+007,  0.16500000000E+002,  0.00000000000E+000,  0.10000000000E+001
  0.23778000000E+005,  0.21057026301E+007,  0.16500000000E+002,  0.00000000000E+000,  0.10000000000E+001
  0.23783000000E+005,  0.20982461697E+007,  0.16500000000E+002,  0.00000000000E+000,  0.10000000000E+001
  0.23788000000E+005,  0.20909141602E+007,  0.16500000000E+002,  0.00000000000E+000,  0.10000000000E+001
  0.23793000000E+005,  0.20836993957E+007,  0.16500000000E+002,  0.00000000000E+000,  0.10000000000E+001
  0.23798000000E+005,  0.20765955409E+007,  0.16500000000E+002,  0.00000000000E+000,  0.10000000000E+001
  0.23803000000E+005,  0.20695969839E+007,  0.16500000000E+002,  0.00000000000E+000,  0.10000000000E+001
  0.23808000000E+005,  0.20626987176E+007,  0.16500000000E+002,  0.00000000000E+000,  0.10000000000E+001
  0.23813000000E+005,  0.20558962449E+007,  0.16500000000E+002,  0.00000000000E+000,  0.10000000000E+001
  0.23818000000E+005,  0.20491855014E+007,  0.16500000000E+002,  0.00000000000E+000,  0.10000000000E+001
  0.23823000000E+005,  0.20425627930E+007,  0.16500000000E+002,  0.00000000000E+000,  0.10000000000E+001
  0.23828000000E+005,  0.20360247443E+007,  0.16500000000E+002,  0.00000000000E+000,  0.10000000000E+001
  0.23833000000E+005,  0.20295682563E+007,  0.16500000000E+002,  0.00000000000E+000,  0.10000000000E+001
  0.23838000000E+005,  0.20231904711E+007,  0.16500000000E+002,  0.00000000000E+000,  0.10000000000E+001
  0.23843000000E+005,  0.20168887429E+007,  0.16500000000E+002,  0.00000000000E+000,  0.10000000000E+001
  0.23848000000E+005,  0.20106606128E+007,  0.16500000000E+002,  0.00000000000E+000,  0.10000000000E+001
  0.23853000000E+005,  0.20045037884E+007,  0.16500000000E+002,  0.00000000000E+000,  0.10000000000E+001
  0.23858000000E+005,  0.19984161256E+007,  0.16500000000E+002,  0.00000000000E+000,  0.10000000000E+001
  0.23863000000E+005,  0.19923956140E+007,  0.16500000000E+002,  0.00000000000E+000,  0.10000000000E+001
  0.23868000000E+005,  0.19864403630E+007,  0.16500000000E+002,  0.00000000000E+000,  0.10000000000E+001
  0.23873000000E+005,  0.19805485910E+007,  0.16500000000E+002,  0.00000000000E+000,  0.10000000000E+001
  0.23878000000E+005,  0.19747186154E+007,  0.16500000000E+002,  0.00000000000E+000,  0.10000000000E+001
  0.23883000000E+005,  0.19689488440E+007,  0.16500000000E+002,  0.00000000000E+000,  0.10000000000E+001
  0.23888000000E+005,  0.19632377672E+007,  0.16500000000E+002,  0.00000000000E+000,  0.10000000000E+001
  0.23893000000E+005,  0.19575839514E+007,  0.16500000000E+002,  0.00000000000E+000,  0.10000000000E+001
  0.23898000000E+005,  0.19519860330E+007,  0.16500000000E+002,  0.00000000000E+000,  0.10000000000E+001
  0.23903000000E+005,  0.19464427132E+007,  0.16500000000E+002,  0.00000000000E+000,  0.10000000000E+001
  0.23908000000E+005,  0.19409527528E+007,  0.16500000000E+002,  0.00000000000E+000,  0.10000000000E+001
  0.23913000000E+005,  0.19355149685E+007,  0.16500000000E+002,  0.00000000000E+000,  0.10000000000E+001
  0.23918000000E+005,  0.19301282287E+007,  0.16500000000E+002,  0.00000000000E+000,  0.10000000000E+001
  0.23923000000E+005,  0.19247914499E+007,  0.16500000000E+002,  0.00000000000E+000,  0.10000000000E+001
  0.23928000000E+005,  0.19195035937E+007,  0.16500000000E+002,  0.00000000000E+000,  0.10000000000E+001
  0.23933000000E+005,  0.19142636641E+007,  0.16500000000E+002,  0.00000000000E+000,  0.10000000000E+001
  0.23938000000E+005,  0.19090707043E+007,  0.16500000000E+002,  0.00000000000E+000,  0.10000000000E+001
  0.23943000000E+005,  0.19039237950E+007,  0.16500000000E+002,  0.00000000000E+000,  0.10000000000E+001
  0.23948000000E+005,  0.18988220514E+007,  0.16500000000E+002,  0.00000000000E+000,  0.10000000000E+001
  0.23953000000E+005,  0.18937646219E+007,  0.16500000000E+002,  0.00000000000E+000,  0.10000000000E+001
  0.23958000000E+005,  0.18887506858E+007,  0.16500000000E+002,  0.00000000000E+000,  0.10000000000E+001
  0.23963000000E+005,  0.18837794516E+007,  0.16500000000E+002,  0.00000000000E+000,  0.10000000000E+001
  0.23968000000E+005,  0.18788501556E+007,  0.16500000000E+002,  0.00000000000E+000,  0.10000000000E+001
  0.23973000000E+005,  0.18739620602E+007,  0.16500000000E+002,  0.00000000000E+000,  0.10000000000E+001
  0.23978000000E+005,  0.18691144526E+007,  0.16500000000E+002,  0.00000000000E+000,  0.10000000000E+001
  0.23983000000E+005,  0.18643066436E+007,  0.16500000000E+002,  0.00000000000E+000,  0.10000000000E+001
  0.23988000000E+005,  0.18595379664E+007,  0.16500000000E+002,  0.00000000000E+000,  0.10000000000E+001
  0.23993000000E+005,  0.18548077752E+007,  0.16500000000E+002,  0.00000000000E+000,  0.10000000000E+001
  0.23998000000E+005,  0.18501154446E+007,  0.16500000000E+002,  0.00000000000E+000,  0.10000000000E+001
  0.24003000000E+005,  0.18454603684E+007,  0.16500000000E+002,  0.00000000000E+000,  0.10000000000E+001
  0.24008000000E+005,  0.18408419586E+007,  0.16500000000E+002,  0.00000000000E+000,  0.10000000000E+001
  0.24013000000E+005,  0.18362596450E+007,  0.16500000000E+002,  0.00000000000E+000,  0.10000000000E+001
  0.24018000000E+005,  0.18317128736E+007,  0.16500000000E+002,  0.00000000000E+000,  0.10000000000E+001
  0.24023000000E+005,  0.18272011067E+007,  0.16500000000E+002,  0.00000000000E+000,  0.10000000000E+001
  0.24028000000E+005,  0.18227238217E+007,  0.16500000000E+002,  0.00000000000E+000,  0.10000000000E+001
  0.24033000000E+005,  0.18182805105E+007,  0.16500000000E+002,  0.00000000000E+000,  0.10000000000E+001
  0.24038000000E+005,  0.18138706791E+007,  0.16500000000E+002,  0.00000000000E+000,  0.10000000000E+001
  0.24043000000E+005,  0.18094938466E+007,  0.16500000000E+002,  0.00000000000E+000,  0.10000000000E+001
  0.24048000000E+005,  0.18051495451E+007,  0.16500000000E+002,  0.00000000000E+000,  0.10000000000E+001
  0.24053000000E+005,  0.18008373190E+007,  0.16500000000E+002,  0.00000000000E+000,  0.10000000000E+001
  0.24058000000E+005,  0.17965567243E+007,  0.16500000000E+002,  0.00000000000E+000,  0.10000000000E+001
  0.24063000000E+005,  0.17923073284E+007,  0.16500000000E+002,  0.00000000000E+000,  0.10000000000E+001
  0.24068000000E+005,  0.17880887096E+007,  0.16500000000E+002,  0.00000000000E+000,  0.10000000000E+001
  0.24073000000E+005,  0.17839004565E+007,  0.16500000000E+002,  0.00000000000E+000,  0.10000000000E+001
  0.24078000000E+005,  0.17797421679E+007,  0.16500000000E+002,  0.00000000000E+000,  0.10000000000E+001
  0.24083000000E+005,  0.17756134521E+007,  0.16500000000E+002,  0.00000000000E+000,  0.10000000000E+001
  0.24088000000E+005,  0.17715139269E+007,  0.16500000000E+002,  0.00000000000E+000,  0.10000000000E+001
  0.24093000000E+005,  0.17674432188E+007,  0.16500000000E+002,  0.00000000000E+000,  0.10000000000E+001
  0.24098000000E+005,  0.17634009632E+007,  0.16500000000E+002,  0.00000000000E+000,  0.10000000000E+001
  0.24103000000E+005,  0.17593868037E+007,  0.16500000000E+002,  0.00000000000E+000,  0.10000000000E+001
  0.24108000000E+005,  0.17554003918E+007,  0.16500000000E+002,  0.00000000000E+000,  0.10000000000E+001
  0.24113000000E+005,  0.17514413870E+007,  0.16500000000E+002,  0.00000000000E+000,  0.10000000000E+001
  0.24118000000E+005,  0.17475094561E+007,  0.16500000000E+002,  0.00000000000E+000,  0.10000000000E+001
  0.24123000000E+005,  0.17436042732E+007,  0.16500000000E+002,  0.00000000000E+000,  0.10000000000E+001
  0.24128000000E+005,  0.17397255193E+007,  0.16500000000E+002,  0.00000000000E+000,  0.10000000000E+001
  0.24133000000E+005,  0.17358728822E+007,  0.16500000000E+002,  0.00000000000E+000,  0.10000000000E+001
  0.24138000000E+005,  0.17320460563E+007,  0.16500000000E+002,  0.00000000000E+000,  0.10000000000E+001
  0.24143000000E+005,  0.17282447423E+007,  0.16500000000E+002,  0.00000000000E+000,  0.10000000000E+001
  0.24148000000E+005,  0.17244686467E+007,  0.16500000000E+002,  0.00000000000E+000,  0.10000000000E+001
  0.24153000000E+005,  0.17207174824E+007,  0.16500000000E+002,  0.00000000000E+000,  0.10000000000E+001
  0.24158000000E+005,  0.17169909677E+007,  0.16500000000E+002,  0.00000000000E+000,  0.10000000000E+001
  0.24163000000E+005,  0.17132888265E+007,  0.16500000000E+002,  0.00000000000E+000,  0.10000000000E+001
  0.24168000000E+005,  0.17096107882E+007,  0.16500000000E+002,  0.00000000000E+000,  0.10000000000E+001
  0.24173000000E+005,  0.17059565872E+007,  0.16500000000E+002,  0.00000000000E+000,  0.10000000000E+001
  0.24178000000E+005,  0.17023259632E+007,  0.16500000000E+002,  0.00000000000E+000,  0.10000000000E+001
  0.24183000000E+005,  0.16987186607E+007,  0.16500000000E+002,  0.00000000000E+000,  0.10000000000E+001
  0.24188000000E+005,  0.16951344289E+007,  0.16500000000E+002,  0.00000000000E+000,  0.10000000000E+001
  0.24193000000E+005,  0.16915730217E+007,  0.16500000000E+002,  0.00000000000E+000,  0.10000000000E+001
  0.24198000000E+005,  0.16880341974E+007,  0.16500000000E+002,  0.00000000000E+000,  0.10000000000E+001
  0.24203000000E+005,  0.16845177189E+007,  0.16500000000E+002,  0.00000000000E+000,  0.10000000000E+001
  0.24208000000E+005,  0.16810233530E+007,  0.16500000000E+002,  0.00000000000E+000,  0.10000000000E+001
  0.24213000000E+005,  0.16775508708E+007,  0.16500000000E+002,  0.00000000000E+000,  0.10000000000E+001
  0.24218000000E+005,  0.16741000474E+007,  0.16500000000E+002,  0.00000000000E+000,  0.10000000000E+001
  0.24223000000E+005,  0.16706706619E+007,  0.16500000000E+002,  0.00000000000E+000,  0.10000000000E+001
  0.24228000000E+005,  0.16672624970E+007,  0.16500000000E+002,  0.00000000000E+000,  0.10000000000E+001
  0.24233000000E+005,  0.16638753391E+007,  0.16500000000E+002,  0.00000000000E+000,  0.10000000000E+001
  0.24238000000E+005,  0.16605089783E+007,  0.16500000000E+002,  0.00000000000E+000,  0.10000000000E+001
  0.24243000000E+005,  0.16571632081E+007,  0.16500000000E+002,  0.00000000000E+000,  0.10000000000E+001
  0.24248000000E+005,  0.16538378256E+007,  0.16500000000E+002,  0.00000000000E+000,  0.10000000000E+001
  0.24253000000E+005,  0.16505326309E+007,  0.16500000000E+002,  0.00000000000E+000,  0.10000000000E+001
  0.24258000000E+005,  0.16472474275E+007,  0.16500000000E+002,  0.00000000000E+000,  0.10000000000E+001
  0.24263000000E+005,  0.16439820222E+007,  0.16500000000E+002,  0.00000000000E+000,  0.10000000000E+001
  0.24268000000E+005,  0.16407362246E+007,  0.16500000000E+002,  0.00000000000E+000,  0.10000000000E+001
  0.24273000000E+005,  0.16375098474E+007,  0.16500000000E+002,  0.00000000000E+000,  0.10000000000E+001
  0.24278000000E+005,  0.16343027062E+007,  0.16500000000E+002,  0.00000000000E+000,  0.10000000000E+001
  0.24283000000E+005,  0.16311146196E+007,  0.16500000000E+002,  0.00000000000E+000,  0.10000000000E+001
  0.24288000000E+005,  0.16279454088E+007,  0.16500000000E+002,  0.00000000000E+000,  0.10000000000E+001
  0.24293000000E+005,  0.16247948977E+007,  0.16500000000E+002,  0.00000000000E+000,  0.10000000000E+001
  0.24298000000E+005,  0.16216629131E+007,  0.16500000000E+002,  0.00000000000E+000,  0.10000000000E+001
  0.24303000000E+005,  0.16185492840E+007,  0.16500000000E+002,  0.00000000000E+000,  0.10000000000E+001
  0.24308000000E+005,  0.16154538423E+007,  0.16500000000E+002,  0.00000000000E+000,  0.10000000000E+001
  0.24313000000E+005,  0.16123764221E+007,  0.16500000000E+002,  0.00000000000E+000,  0.10000000000E+001
  0.24318000000E+005,  0.16093168601E+007,  0.16500000000E+002,  0.00000000000E+000,  0.10000000000E+001
  0.24323000000E+005,  0.16062749952E+007,  0.16500000000E+002,  0.00000000000E+000,  0.10000000000E+001
  0.24328000000E+005,  0.16032506688E+007,  0.16500000000E+002,  0.00000000000E+000,  0.10000000000E+001
  0.24333000000E+005,  0.16002437242E+007,  0.16500000000E+002,  0.00000000000E+000,  0.10000000000E+001
  0.24338000000E+005,  0.15972540074E+007,  0.16500000000E+002,  0.00000000000E+000,  0.10000000000E+001
  0.24343000000E+005,  0.15942813662E+007,  0.16500000000E+002,  0.00000000000E+000,  0.10000000000E+001
  0.24348000000E+005,  0.15913256505E+007,  0.16500000000E+002,  0.00000000000E+000,  0.10000000000E+001
  0.24353000000E+005,  0.15883867125E+007,  0.16500000000E+002,  0.00000000000E+000,  0.10000000000E+001
  0.24358000000E+005,  0.15854644062E+007,  0.16500000000E+002,  0.00000000000E+000,  0.10000000000E+001
  0.24363000000E+005,  0.15825585878E+007,  0.16500000000E+002,  0.00000000000E+000,  0.10000000000E+001
  0.24368000000E+005,  0.15796691151E+007,  0.16500000000E+002,  0.00000000000E+000,  0.10000000000E+001
  0.24373000000E+005,  0.15767958481E+007,  0.16500000000E+002,  0.00000000000E+000,  0.10000000000E+001
  0.24378000000E+005,  0.15739386487E+007,  0.16500000000E+002,  0.00000000000E+000,  0.10000000000E+001
  0.24383000000E+005,  0.15710973802E+007,  0.16500000000E+002,  0.00000000000E+000,  0.10000000000E+001
  0.24388000000E+005,  0.15682719081E+007,  0.16500000000E+002,  0.00000000000E+000,  0.10000000000E+001
  0.24393000000E+005,  0.15654620995E+007,  0.16500000000E+002,  0.00000000000E+000,  0.10000000000E+001
  0.24398000000E+005,  0.15626678233E+007,  0.16500000000E+002,  0.00000000000E+000,  0.10000000000E+001
  0.24403000000E+005,  0.15598889498E+007,  0.16500000000E+002,  0.00000000000E+000,  0.10000000000E+001
  0.24408000000E+005,  0.15571253512E+007,  0.16500000000E+002,  0.00000000000E+000,  0.10000000000E+001
  0.24413000000E+005,  0.15543769014E+007,  0.16500000000E+002,  0.00000000000E+000,  0.10000000000E+001
  0.24418000000E+005,  0.15516434755E+007,  0.16500000000E+002,  0.00000000000E+000,  0.10000000000E+001
  0.24423000000E+005,  0.15489249506E+007,  0.16500000000E+002,  0.00000000000E+000,  0.10000000000E+001
  0.24428000000E+005,  0.15462212050E+007,  0.16500000000E+002,  0.00000000000E+000,  0.10000000000E+001
  0.24433000000E+005,  0.15435321186E+007,  0.16500000000E+002,  0.00000000000E+000,  0.10000000000E+001
  0.24438000000E+005,  0.15408575728E+007,  0.16500000000E+002,  0.00000000000E+000,  0.10000000000E+001
  0.24443000000E+005,  0.15381974504E+007,  0.16500000000E+002,  0.00000000000E+000,  0.10000000000E+001
  0.24448000000E+005,  0.15355516356E+007,  0.16500000000E+002,  0.00000000000E+000,  0.10000000000E+001
  0.24453000000E+005,  0.15329200141E+007,  0.16500000000E+002,  0.00000000000E+000,  0.10000000000E+001
  0.24458000000E+005,  0.15303024727E+007,  0.16500000000E+002,  0.00000000000E+000,  0.10000000000E+001
  0.24463000000E+005,  0.15276988999E+007,  0.16500000000E+002,  0.00000000000E+000,  0.10000000000E+001
  0.24468000000E+005,  0.15251091853E+007,  0.16500000000E+002,  0.00000000000E+000,  0.10000000000E+001
  0.24473000000E+005,  0.15225332197E+007,  0.16500000000E+002,  0.00000000000E+000,  0.10000000000E+001
  0.24478000000E+005,  0.15199708953E+007,  0.16500000000E+002,  0.00000000000E+000,  0.10000000000E+001
  0.24483000000E+005,  0.15174221056E+007,  0.16500000000E+002,  0.00000000000E+000,  0.10000000000E+001
  0.24488000000E+005,  0.15148867453E+007,  0.16500000000E+002,  0.00000000000E+000,  0.10000000000E+001
  0.24493000000E+005,  0.15123647101E+007,  0.16500000000E+002,  0.00000000000E+000,  0.10000000000E+001
  0.24498000000E+005,  0.15098558972E+007,  0.16500000000E+002,  0.00000000000E+000,  0.10000000000E+001
  0.24503000000E+005,  0.15073602047E+007,  0.16500000000E+002,  0.00000000000E+000,  0.10000000000E+001
  0.24508000000E+005,  0.15048775320E+007,  0.16500000000E+002,  0.00000000000E+000,  0.10000000000E+001
  0.24513000000E+005,  0.15024077796E+007,  0.16500000000E+002,  0.00000000000E+000,  0.10000000000E+001
  0.24518000000E+005,  0.14999508490E+007,  0.16500000000E+002,  0.00000000000E+000,  0.10000000000E+001
  0.24520000000E+005,  0.14989700802E+007,  0.16500000000E+002,  0.00000000000E+000,  0.10000000000E+001
