"           TIME(S)","              PRES","              TEMP","             SAT_G","             SAT_L"
  0.10000000000E+001,  0.59078867297E+006,  0.16500000000E+002,  0.00000000000E+000,  0.10000000000E+001
  0.60000000000E+001,  0.59078867174E+006,  0.16500000000E+002,  0.00000000000E+000,  0.10000000000E+001
  0.31000000000E+002,  0.59078867079E+006,  0.16500000000E+002,  0.00000000000E+000,  0.10000000000E+001
  0.15600000000E+003,  0.59078866950E+006,  0.16500000000E+002,  0.00000000000E+000,  0.10000000000E+001
  0.45600000000E+003,  0.59078866815E+006,  0.16500000000E+002,  0.00000000000E+000,  0.10000000000E+001
  0.75600000000E+003,  0.59078866727E+006,  0.16500000000E+002,  0.00000000000E+000,  0.10000000000E+001
  0.10560000000E+004,  0.59078866670E+006,  0.16500000000E+002,  0.00000000000E+000,  0.10000000000E+001
  0.13560000000E+004,  0.59078866633E+006,  0.16500000000E+002,  0.00000000000E+000,  0.10000000000E+001
  0.16560000000E+004,  0.59078866610E+006,  0.16500000000E+002,  0.00000000000E+000,  0.10000000000E+001
  0.19560000000E+004,  0.59078866597E+006,  0.16500000000E+002,  0.00000000000E+000,  0.10000000000E+001
  0.22560000000E+004,  0.59078866589E+006,  0.16500000000E+002,  0.00000000000E+000,  0.10000000000E+001
  0.25560000000E+004,  0.59078866586E+006,  0.16500000000E+002,  0.00000000000E+000,  0.10000000000E+001
  0.28560000000E+004,  0.59078866585E+006,  0.16500000000E+002,  0.00000000000E+000,  0.10000000000E+001
  0.31560000000E+004,  0.59078866587E+006,  0.16500000000E+002,  0.00000000000E+000,  0.10000000000E+001
  0.34560000000E+004,  0.59078866590E+006,  0.16500000000E+002,  0.00000000000E+000,  0.10000000000E+001
  0.37560000000E+004,  0.59078866595E+006,  0.16500000000E+002,  0.00000000000E+000,  0.10000000000E+001
  0.40560000000E+004,  0.59078866600E+006,  0.16500000000E+002,  0.00000000000E+000,  0.10000000000E+001
  0.43560000000E+004,  0.59078866607E+006,  0.16500000000E+002,  0.00000000000E+000,  0.10000000000E+001
  0.46560000000E+004,  0.59078866614E+006,  0.16500000000E+002,  0.00000000000E+000,  0.10000000000E+001
  0.49560000000E+004,  0.59078866621E+006,  0.16500000000E+002,  0.00000000000E+000,  0.10000000000E+001
  0.52560000000E+004,  0.59078866630E+006,  0.16500000000E+002,  0.00000000000E+000,  0.10000000000E+001
  0.55560000000E+004,  0.59078866639E+006,  0.16500000000E+002,  0.00000000000E+000,  0.10000000000E+001
  0.58560000000E+004,  0.59078866648E+006,  0.16500000000E+002,  0.00000000000E+000,  0.10000000000E+001
  0.61560000000E+004,  0.59078866658E+006,  0.16500000000E+002,  0.00000000000E+000,  0.10000000000E+001
  0.64560000000E+004,  0.59078866669E+006,  0.16500000000E+002,  0.00000000000E+000,  0.10000000000E+001
  0.67560000000E+004,  0.59078866681E+006,  0.16500000000E+002,  0.00000000000E+000,  0.10000000000E+001
  0.70560000000E+004,  0.59078866695E+006,  0.16500000000E+002,  0.00000000000E+000,  0.10000000000E+001
  0.73560000000E+004,  0.59078866710E+006,  0.16500000000E+002,  0.00000000000E+000,  0.10000000000E+001
  0.76560000000E+004,  0.59078866726E+006,  0.16500000000E+002,  0.00000000000E+000,  0.10000000000E+001
  0.79560000000E+004,  0.59078866744E+006,  0.16500000000E+002,  0.00000000000E+000,  0.10000000000E+001
  0.82560000000E+004,  0.59078866763E+006,  0.16500000000E+002,  0.00000000000E+000,  0.10000000000E+001
  0.85560000000E+004,  0.59078866787E+006,  0.16500000000E+002,  0.00000000000E+000,  0.10000000000E+001
  0.88560000000E+004,  0.59078866815E+006,  0.16500000000E+002,  0.00000000000E+000,  0.10000000000E+001
  0.91560000000E+004,  0.59078866846E+006,  0.16500000000E+002,  0.00000000000E+000,  0.10000000000E+001
  0.94560000000E+004,  0.59078866887E+006,  0.16500000000E+002,  0.00000000000E+000,  0.10000000000E+001
  0.97560000000E+004,  0.59078866943E+006,  0.16500000000E+002,  0.00000000000E+000,  0.10000000000E+001
  0.10056000000E+005,  0.59078867010E+006,  0.16500000000E+002,  0.00000000000E+000,  0.10000000000E+001
  0.10356000000E+005,  0.59078867104E+006,  0.16500000000E+002,  0.00000000000E+000,  0.10000000000E+001
  0.10656000000E+005,  0.59078867218E+006,  0.16500000000E+002,  0.00000000000E+000,  0.10000000000E+001
  0.10956000000E+005,  0.59078867376E+006,  0.16500000000E+002,  0.00000000000E+000,  0.10000000000E+001
  0.11256000000E+005,  0.59078867566E+006,  0.16500000000E+002,  0.00000000000E+000,  0.10000000000E+001
  0.11556000000E+005,  0.59078867824E+006,  0.16500000000E+002,  0.00000000000E+000,  0.10000000000E+001
  0.11856000000E+005,  0.59078868132E+006,  0.16500000000E+002,  0.00000000000E+000,  0.10000000000E+001
  0.12156000000E+005,  0.59078868533E+006,  0.16500000000E+002,  0.00000000000E+000,  0.10000000000E+001
  0.12456000000E+005,  0.59078869050E+006,  0.16500000000E+002,  0.00000000000E+000,  0.10000000000E+001
  0.12756000000E+005,  0.59078869652E+006,  0.16500000000E+002,  0.00000000000E+000,  0.10000000000E+001
  0.13056000000E+005,  0.59078870406E+006,  0.16500000000E+002,  0.00000000000E+000,  0.10000000000E+001
  0.13356000000E+005,  0.59078871331E+006,  0.16500000000E+002,  0.00000000000E+000,  0.10000000000E+001
  0.13656000000E+005,  0.59078872378E+006,  0.16500000000E+002,  0.00000000000E+000,  0.10000000000E+001
  0.13956000000E+005,  0.59078873764E+006,  0.16500000000E+002,  0.00000000000E+000,  0.10000000000E+001
  0.14256000000E+005,  0.59078875472E+006,  0.16500000000E+002,  0.00000000000E+000,  0.10000000000E+001
  0.14556000000E+005,  0.59078877806E+006,  0.16500000000E+002,  0.00000000000E+000,  0.10000000000E+001
  0.14856000000E+005,  0.59078881313E+006,  0.16500000000E+002,  0.00000000000E+000,  0.10000000000E+001
  0.15156000000E+005,  0.59078885803E+006,  0.16500000000E+002,  0.00000000000E+000,  0.10000000000E+001
  0.15456000000E+005,  0.59078890927E+006,  0.16500000000E+002,  0.00000000000E+000,  0.10000000000E+001
  0.15756000000E+005,  0.59078895991E+006,  0.16500000000E+002,  0.00000000000E+000,  0.10000000000E+001
  0.16056000000E+005,  0.59078902549E+006,  0.16500000000E+002,  0.00000000000E+000,  0.10000000000E+001
  0.16356000000E+005,  0.59078908920E+006,  0.16500000000E+002,  0.00000000000E+000,  0.10000000000E+001
  0.16656000000E+005,  0.59078915376E+006,  0.16500000000E+002,  0.00000000000E+000,  0.10000000000E+001
  0.16956000000E+005,  0.59078924416E+006,  0.16500000000E+002,  0.00000000000E+000,  0.10000000000E+001
  0.17256000000E+005,  0.59078930742E+006,  0.16500000000E+002,  0.00000000000E+000,  0.10000000000E+001
  0.17556000000E+005,  0.59078940151E+006,  0.16500000000E+002,  0.00000000000E+000,  0.10000000000E+001
  0.17856000000E+005,  0.59078949491E+006,  0.16500000000E+002,  0.00000000000E+000,  0.10000000000E+001
  0.18156000000E+005,  0.59078959031E+006,  0.16500000000E+002,  0.00000000000E+000,  0.10000000000E+001
  0.18456000000E+005,  0.59078968758E+006,  0.16500000000E+002,  0.00000000000E+000,  0.10000000000E+001
  0.18756000000E+005,  0.59078981988E+006,  0.16500000000E+002,  0.00000000000E+000,  0.10000000000E+001
  0.19056000000E+005,  0.59078991473E+006,  0.16500000000E+002,  0.00000000000E+000,  0.10000000000E+001
  0.19356000000E+005,  0.59079005262E+006,  0.16500000000E+002,  0.00000000000E+000,  0.10000000000E+001
  0.19656000000E+005,  0.59079018560E+006,  0.16500000000E+002,  0.00000000000E+000,  0.10000000000E+001
  0.19956000000E+005,  0.59079032120E+006,  0.16500000000E+002,  0.00000000000E+000,  0.10000000000E+001
  0.20256000000E+005,  0.59079046178E+006,  0.16500000000E+002,  0.00000000000E+000,  0.10000000000E+001
  0.20556000000E+005,  0.59079060865E+006,  0.16500000000E+002,  0.00000000000E+000,  0.10000000000E+001
  0.20856000000E+005,  0.59079078996E+006,  0.16500000000E+002,  0.00000000000E+000,  0.10000000000E+001
  0.21156000000E+005,  0.59079093744E+006,  0.16500000000E+002,  0.00000000000E+000,  0.10000000000E+001
  0.21456000000E+005,  0.59079112985E+006,  0.16500000000E+002,  0.00000000000E+000,  0.10000000000E+001
  0.21756000000E+005,  0.59079131759E+006,  0.16500000000E+002,  0.00000000000E+000,  0.10000000000E+001
  0.22056000000E+005,  0.59079150994E+006,  0.16500000000E+002,  0.00000000000E+000,  0.10000000000E+001
  0.22356000000E+005,  0.59079170947E+006,  0.16500000000E+002,  0.00000000000E+000,  0.10000000000E+001
  0.22656000000E+005,  0.59079191720E+006,  0.16500000000E+002,  0.00000000000E+000,  0.10000000000E+001
  0.22956000000E+005,  0.59079213366E+006,  0.16500000000E+002,  0.00000000000E+000,  0.10000000000E+001
  0.23256000000E+005,  0.59079238109E+006,  0.16500000000E+002,  0.00000000000E+000,  0.10000000000E+001
  0.23556000000E+005,  0.59079260210E+006,  0.16500000000E+002,  0.00000000000E+000,  0.10000000000E+001
  0.23856000000E+005,  0.59079286527E+006,  0.16500000000E+002,  0.00000000000E+000,  0.10000000000E+001
  0.24156000000E+005,  0.59079312555E+006,  0.16500000000E+002,  0.00000000000E+000,  0.10000000000E+001
  0.24456000000E+005,  0.59079339287E+006,  0.16500000000E+002,  0.00000000000E+000,  0.10000000000E+001
  0.24756000000E+005,  0.59079366918E+006,  0.16500000000E+002,  0.00000000000E+000,  0.10000000000E+001
  0.25056000000E+005,  0.59079395512E+006,  0.16500000000E+002,  0.00000000000E+000,  0.10000000000E+001
  0.25356000000E+005,  0.59079425102E+006,  0.16500000000E+002,  0.00000000000E+000,  0.10000000000E+001
  0.25656000000E+005,  0.59079455706E+006,  0.16500000000E+002,  0.00000000000E+000,  0.10000000000E+001
  0.25956000000E+005,  0.59079487337E+006,  0.16500000000E+002,  0.00000000000E+000,  0.10000000000E+001
  0.26256000000E+005,  0.59079521492E+006,  0.16500000000E+002,  0.00000000000E+000,  0.10000000000E+001
  0.26556000000E+005,  0.59079555627E+006,  0.16500000000E+002,  0.00000000000E+000,  0.10000000000E+001
  0.26856000000E+005,  0.59079590626E+006,  0.16500000000E+002,  0.00000000000E+000,  0.10000000000E+001
  0.27156000000E+005,  0.59079626628E+006,  0.16500000000E+002,  0.00000000000E+000,  0.10000000000E+001
  0.27456000000E+005,  0.59079663675E+006,  0.16500000000E+002,  0.00000000000E+000,  0.10000000000E+001
  0.27756000000E+005,  0.59079701788E+006,  0.16500000000E+002,  0.00000000000E+000,  0.10000000000E+001
  0.28056000000E+005,  0.59079740978E+006,  0.16500000000E+002,  0.00000000000E+000,  0.10000000000E+001
  0.28356000000E+005,  0.59079781253E+006,  0.16500000000E+002,  0.00000000000E+000,  0.10000000000E+001
  0.28656000000E+005,  0.59079822620E+006,  0.16500000000E+002,  0.00000000000E+000,  0.10000000000E+001
  0.28956000000E+005,  0.59079865083E+006,  0.16500000000E+002,  0.00000000000E+000,  0.10000000000E+001
  0.29256000000E+005,  0.59079908647E+006,  0.16500000000E+002,  0.00000000000E+000,  0.10000000000E+001
  0.29556000000E+005,  0.59079953314E+006,  0.16500000000E+002,  0.00000000000E+000,  0.10000000000E+001
  0.29856000000E+005,  0.59079999851E+006,  0.16500000000E+002,  0.00000000000E+000,  0.10000000000E+001
  0.30156000000E+005,  0.59080046942E+006,  0.16500000000E+002,  0.00000000000E+000,  0.10000000000E+001
  0.30456000000E+005,  0.59080095050E+006,  0.16500000000E+002,  0.00000000000E+000,  0.10000000000E+001
  0.30756000000E+005,  0.59080144240E+006,  0.16500000000E+002,  0.00000000000E+000,  0.10000000000E+001
  0.31056000000E+005,  0.59080194529E+006,  0.16500000000E+002,  0.00000000000E+000,  0.10000000000E+001
  0.31356000000E+005,  0.59080245922E+006,  0.16500000000E+002,  0.00000000000E+000,  0.10000000000E+001
  0.31656000000E+005,  0.59080298423E+006,  0.16500000000E+002,  0.00000000000E+000,  0.10000000000E+001
  0.31956000000E+005,  0.59080352032E+006,  0.16500000000E+002,  0.00000000000E+000,  0.10000000000E+001
  0.32256000000E+005,  0.59080406748E+006,  0.16500000000E+002,  0.00000000000E+000,  0.10000000000E+001
  0.32556000000E+005,  0.59080462570E+006,  0.16500000000E+002,  0.00000000000E+000,  0.10000000000E+001
  0.32856000000E+005,  0.59080519497E+006,  0.16500000000E+002,  0.00000000000E+000,  0.10000000000E+001
  0.33156000000E+005,  0.59080577865E+006,  0.16500000000E+002,  0.00000000000E+000,  0.10000000000E+001
  0.33456000000E+005,  0.59080637083E+006,  0.16500000000E+002,  0.00000000000E+000,  0.10000000000E+001
  0.33756000000E+005,  0.59080697357E+006,  0.16500000000E+002,  0.00000000000E+000,  0.10000000000E+001
  0.34056000000E+005,  0.59080758709E+006,  0.16500000000E+002,  0.00000000000E+000,  0.10000000000E+001
  0.34356000000E+005,  0.59080821144E+006,  0.16500000000E+002,  0.00000000000E+000,  0.10000000000E+001
  0.34656000000E+005,  0.59080884660E+006,  0.16500000000E+002,  0.00000000000E+000,  0.10000000000E+001
  0.34956000000E+005,  0.59080949253E+006,  0.16500000000E+002,  0.00000000000E+000,  0.10000000000E+001
  0.35256000000E+005,  0.59081014919E+006,  0.16500000000E+002,  0.00000000000E+000,  0.10000000000E+001
  0.35556000000E+005,  0.59081081653E+006,  0.16500000000E+002,  0.00000000000E+000,  0.10000000000E+001
  0.35856000000E+005,  0.59081149450E+006,  0.16500000000E+002,  0.00000000000E+000,  0.10000000000E+001
  0.36156000000E+005,  0.59081218304E+006,  0.16500000000E+002,  0.00000000000E+000,  0.10000000000E+001
  0.36456000000E+005,  0.59081288290E+006,  0.16500000000E+002,  0.00000000000E+000,  0.10000000000E+001
  0.36756000000E+005,  0.59081359264E+006,  0.16500000000E+002,  0.00000000000E+000,  0.10000000000E+001
  0.37056000000E+005,  0.59081431267E+006,  0.16500000000E+002,  0.00000000000E+000,  0.10000000000E+001
  0.37356000000E+005,  0.59081504298E+006,  0.16500000000E+002,  0.00000000000E+000,  0.10000000000E+001
  0.37656000000E+005,  0.59081578352E+006,  0.16500000000E+002,  0.00000000000E+000,  0.10000000000E+001
  0.37956000000E+005,  0.59081653424E+006,  0.16500000000E+002,  0.00000000000E+000,  0.10000000000E+001
  0.38256000000E+005,  0.59081729506E+006,  0.16500000000E+002,  0.00000000000E+000,  0.10000000000E+001
  0.38556000000E+005,  0.59081806591E+006,  0.16500000000E+002,  0.00000000000E+000,  0.10000000000E+001
  0.38856000000E+005,  0.59081884672E+006,  0.16500000000E+002,  0.00000000000E+000,  0.10000000000E+001
  0.39156000000E+005,  0.59081963658E+006,  0.16500000000E+002,  0.00000000000E+000,  0.10000000000E+001
  0.39456000000E+005,  0.59082043693E+006,  0.16500000000E+002,  0.00000000000E+000,  0.10000000000E+001
  0.39756000000E+005,  0.59082124706E+006,  0.16500000000E+002,  0.00000000000E+000,  0.10000000000E+001
  0.40056000000E+005,  0.59082206686E+006,  0.16500000000E+002,  0.00000000000E+000,  0.10000000000E+001
  0.40356000000E+005,  0.59082289622E+006,  0.16500000000E+002,  0.00000000000E+000,  0.10000000000E+001
  0.40656000000E+005,  0.59082373505E+006,  0.16500000000E+002,  0.00000000000E+000,  0.10000000000E+001
  0.40956000000E+005,  0.59082458328E+006,  0.16500000000E+002,  0.00000000000E+000,  0.10000000000E+001
  0.41256000000E+005,  0.59082544080E+006,  0.16500000000E+002,  0.00000000000E+000,  0.10000000000E+001
  0.41556000000E+005,  0.59082630754E+006,  0.16500000000E+002,  0.00000000000E+000,  0.10000000000E+001
  0.41856000000E+005,  0.59082718340E+006,  0.16500000000E+002,  0.00000000000E+000,  0.10000000000E+001
  0.42156000000E+005,  0.59082806830E+006,  0.16500000000E+002,  0.00000000000E+000,  0.10000000000E+001
  0.42456000000E+005,  0.59082896214E+006,  0.16500000000E+002,  0.00000000000E+000,  0.10000000000E+001
  0.42756000000E+005,  0.59082986338E+006,  0.16500000000E+002,  0.00000000000E+000,  0.10000000000E+001
  0.43056000000E+005,  0.59083077457E+006,  0.16500000000E+002,  0.00000000000E+000,  0.10000000000E+001
  0.43356000000E+005,  0.59083169458E+006,  0.16500000000E+002,  0.00000000000E+000,  0.10000000000E+001
  0.43656000000E+005,  0.59083262320E+006,  0.16500000000E+002,  0.00000000000E+000,  0.10000000000E+001
  0.43956000000E+005,  0.59083356033E+006,  0.16500000000E+002,  0.00000000000E+000,  0.10000000000E+001
  0.44256000000E+005,  0.59083450586E+006,  0.16500000000E+002,  0.00000000000E+000,  0.10000000000E+001
  0.44556000000E+005,  0.59083545970E+006,  0.16500000000E+002,  0.00000000000E+000,  0.10000000000E+001
  0.44856000000E+005,  0.59083642175E+006,  0.16500000000E+002,  0.00000000000E+000,  0.10000000000E+001
  0.45156000000E+005,  0.59083739191E+006,  0.16500000000E+002,  0.00000000000E+000,  0.10000000000E+001
  0.45456000000E+005,  0.59083837010E+006,  0.16500000000E+002,  0.00000000000E+000,  0.10000000000E+001
  0.45756000000E+005,  0.59083935621E+006,  0.16500000000E+002,  0.00000000000E+000,  0.10000000000E+001
  0.46056000000E+005,  0.59084035016E+006,  0.16500000000E+002,  0.00000000000E+000,  0.10000000000E+001
  0.46356000000E+005,  0.59084135184E+006,  0.16500000000E+002,  0.00000000000E+000,  0.10000000000E+001
  0.46656000000E+005,  0.59084236116E+006,  0.16500000000E+002,  0.00000000000E+000,  0.10000000000E+001
  0.46956000000E+005,  0.59084337804E+006,  0.16500000000E+002,  0.00000000000E+000,  0.10000000000E+001
  0.47256000000E+005,  0.59084440236E+006,  0.16500000000E+002,  0.00000000000E+000,  0.10000000000E+001
  0.47556000000E+005,  0.59084543405E+006,  0.16500000000E+002,  0.00000000000E+000,  0.10000000000E+001
  0.47856000000E+005,  0.59084647300E+006,  0.16500000000E+002,  0.00000000000E+000,  0.10000000000E+001
  0.48156000000E+005,  0.59084751782E+006,  0.16500000000E+002,  0.00000000000E+000,  0.10000000000E+001
  0.48456000000E+005,  0.59084857082E+006,  0.16500000000E+002,  0.00000000000E+000,  0.10000000000E+001
  0.48756000000E+005,  0.59084963090E+006,  0.16500000000E+002,  0.00000000000E+000,  0.10000000000E+001
  0.49056000000E+005,  0.59085069791E+006,  0.16500000000E+002,  0.00000000000E+000,  0.10000000000E+001
  0.49356000000E+005,  0.59085177173E+006,  0.16500000000E+002,  0.00000000000E+000,  0.10000000000E+001
  0.49656000000E+005,  0.59085285226E+006,  0.16500000000E+002,  0.00000000000E+000,  0.10000000000E+001
  0.49956000000E+005,  0.59085285226E+006,  0.16500000000E+002,  0.00000000000E+000,  0.10000000000E+001
  0.50256000000E+005,  0.59085285226E+006,  0.16500000000E+002,  0.00000000000E+000,  0.10000000000E+001
  0.50556000000E+005,  0.59085285226E+006,  0.16500000000E+002,  0.00000000000E+000,  0.10000000000E+001
  0.50856000000E+005,  0.59085285226E+006,  0.16500000000E+002,  0.00000000000E+000,  0.10000000000E+001
  0.51156000000E+005,  0.59085285226E+006,  0.16500000000E+002,  0.00000000000E+000,  0.10000000000E+001
  0.51456000000E+005,  0.59085285226E+006,  0.16500000000E+002,  0.00000000000E+000,  0.10000000000E+001
  0.51756000000E+005,  0.59085285226E+006,  0.16500000000E+002,  0.00000000000E+000,  0.10000000000E+001
  0.52056000000E+005,  0.59085285226E+006,  0.16500000000E+002,  0.00000000000E+000,  0.10000000000E+001
  0.52356000000E+005,  0.59085285226E+006,  0.16500000000E+002,  0.00000000000E+000,  0.10000000000E+001
  0.52656000000E+005,  0.59085285226E+006,  0.16500000000E+002,  0.00000000000E+000,  0.10000000000E+001
