"           TIME(S)","              PRES","              TEMP","             SAT_G","             SAT_L"
  0.10000000000E+001,  0.61088671757E+006,  0.16500000000E+002,  0.00000000000E+000,  0.10000000000E+001
  0.60000000000E+001,  0.71307663712E+006,  0.16500000000E+002,  0.00000000000E+000,  0.10000000000E+001
  0.31000000000E+002,  0.10914236304E+007,  0.16500000000E+002,  0.00000000000E+000,  0.10000000000E+001
  0.15600000000E+003,  0.21136703124E+007,  0.16500000000E+002,  0.00000000000E+000,  0.10000000000E+001
  0.45600000000E+003,  0.32421232904E+007,  0.16500000000E+002,  0.00000000000E+000,  0.10000000000E+001
  0.75600000000E+003,  0.38852317741E+007,  0.16500000000E+002,  0.00000000000E+000,  0.10000000000E+001
  0.10560000000E+004,  0.43101873952E+007,  0.16500000000E+002,  0.00000000000E+000,  0.10000000000E+001
  0.13560000000E+004,  0.46201356371E+007,  0.16500000000E+002,  0.00000000000E+000,  0.10000000000E+001
  0.16560000000E+004,  0.48614821507E+007,  0.16500000000E+002,  0.00000000000E+000,  0.10000000000E+001
  0.19560000000E+004,  0.50578703198E+007,  0.16500000000E+002,  0.00000000000E+000,  0.10000000000E+001
  0.22560000000E+004,  0.52226330553E+007,  0.16500000000E+002,  0.00000000000E+000,  0.10000000000E+001
  0.25560000000E+004,  0.53639365304E+007,  0.16500000000E+002,  0.00000000000E+000,  0.10000000000E+001
  0.28560000000E+004,  0.54871289548E+007,  0.16500000000E+002,  0.00000000000E+000,  0.10000000000E+001
  0.31560000000E+004,  0.55959074994E+007,  0.16500000000E+002,  0.00000000000E+000,  0.10000000000E+001
  0.34560000000E+004,  0.56929413048E+007,  0.16500000000E+002,  0.00000000000E+000,  0.10000000000E+001
  0.37560000000E+004,  0.57802255263E+007,  0.16500000000E+002,  0.00000000000E+000,  0.10000000000E+001
  0.40560000000E+004,  0.58592938076E+007,  0.16500000000E+002,  0.00000000000E+000,  0.10000000000E+001
  0.43560000000E+004,  0.59313521126E+007,  0.16500000000E+002,  0.00000000000E+000,  0.10000000000E+001
  0.46560000000E+004,  0.59973665968E+007,  0.16500000000E+002,  0.00000000000E+000,  0.10000000000E+001
  0.49560000000E+004,  0.60581234356E+007,  0.16500000000E+002,  0.00000000000E+000,  0.10000000000E+001
  0.52560000000E+004,  0.61142708422E+007,  0.16500000000E+002,  0.00000000000E+000,  0.10000000000E+001
  0.55560000000E+004,  0.61663493708E+007,  0.16500000000E+002,  0.00000000000E+000,  0.10000000000E+001
  0.58560000000E+004,  0.62148142719E+007,  0.16500000000E+002,  0.00000000000E+000,  0.10000000000E+001
  0.61560000000E+004,  0.62605450977E+007,  0.16500000000E+002,  0.00000000000E+000,  0.10000000000E+001
  0.64560000000E+004,  0.63035725172E+007,  0.16500000000E+002,  0.00000000000E+000,  0.10000000000E+001
  0.67560000000E+004,  0.63436530722E+007,  0.16500000000E+002,  0.00000000000E+000,  0.10000000000E+001
  0.70560000000E+004,  0.63812405680E+007,  0.16500000000E+002,  0.00000000000E+000,  0.10000000000E+001
  0.73560000000E+004,  0.64166180833E+007,  0.16500000000E+002,  0.00000000000E+000,  0.10000000000E+001
  0.76560000000E+004,  0.64500026635E+007,  0.16500000000E+002,  0.00000000000E+000,  0.10000000000E+001
  0.79560000000E+004,  0.64815745660E+007,  0.16500000000E+002,  0.00000000000E+000,  0.10000000000E+001
  0.82560000000E+004,  0.65114888455E+007,  0.16500000000E+002,  0.00000000000E+000,  0.10000000000E+001
  0.85560000000E+004,  0.65398708303E+007,  0.16500000000E+002,  0.00000000000E+000,  0.10000000000E+001
  0.88560000000E+004,  0.65668486803E+007,  0.16500000000E+002,  0.00000000000E+000,  0.10000000000E+001
  0.91560000000E+004,  0.65925321588E+007,  0.16500000000E+002,  0.00000000000E+000,  0.10000000000E+001
  0.94560000000E+004,  0.66170174310E+007,  0.16500000000E+002,  0.00000000000E+000,  0.10000000000E+001
  0.97560000000E+004,  0.66403906489E+007,  0.16500000000E+002,  0.00000000000E+000,  0.10000000000E+001
  0.10056000000E+005,  0.66627295059E+007,  0.16500000000E+002,  0.00000000000E+000,  0.10000000000E+001
  0.10356000000E+005,  0.66841043355E+007,  0.16500000000E+002,  0.00000000000E+000,  0.10000000000E+001
  0.10656000000E+005,  0.67045790049E+007,  0.16500000000E+002,  0.00000000000E+000,  0.10000000000E+001
  0.10956000000E+005,  0.67242116697E+007,  0.16500000000E+002,  0.00000000000E+000,  0.10000000000E+001
  0.11256000000E+005,  0.67430554181E+007,  0.16500000000E+002,  0.00000000000E+000,  0.10000000000E+001
  0.11556000000E+005,  0.67611588267E+007,  0.16500000000E+002,  0.00000000000E+000,  0.10000000000E+001
  0.11856000000E+005,  0.67785664427E+007,  0.16500000000E+002,  0.00000000000E+000,  0.10000000000E+001
  0.12156000000E+005,  0.67930313461E+007,  0.16500000000E+002,  0.00000000000E+000,  0.10000000000E+001
  0.12456000000E+005,  0.68059867030E+007,  0.16500000000E+002,  0.00000000000E+000,  0.10000000000E+001
  0.12756000000E+005,  0.68199230360E+007,  0.16500000000E+002,  0.00000000000E+000,  0.10000000000E+001
  0.13056000000E+005,  0.68339146941E+007,  0.16500000000E+002,  0.00000000000E+000,  0.10000000000E+001
  0.13356000000E+005,  0.68476805259E+007,  0.16500000000E+002,  0.00000000000E+000,  0.10000000000E+001
  0.13656000000E+005,  0.68611207084E+007,  0.16500000000E+002,  0.00000000000E+000,  0.10000000000E+001
  0.13956000000E+005,  0.68741998676E+007,  0.16500000000E+002,  0.00000000000E+000,  0.10000000000E+001
  0.14256000000E+005,  0.68869088866E+007,  0.16500000000E+002,  0.00000000000E+000,  0.10000000000E+001
  0.14556000000E+005,  0.68992503775E+007,  0.16500000000E+002,  0.00000000000E+000,  0.10000000000E+001
  0.14856000000E+005,  0.69112324829E+007,  0.16500000000E+002,  0.00000000000E+000,  0.10000000000E+001
  0.15156000000E+005,  0.69228659801E+007,  0.16500000000E+002,  0.00000000000E+000,  0.10000000000E+001
  0.15456000000E+005,  0.69341628384E+007,  0.16500000000E+002,  0.00000000000E+000,  0.10000000000E+001
  0.15756000000E+005,  0.69451354501E+007,  0.16500000000E+002,  0.00000000000E+000,  0.10000000000E+001
  0.16056000000E+005,  0.69557962150E+007,  0.16500000000E+002,  0.00000000000E+000,  0.10000000000E+001
  0.16356000000E+005,  0.69661573081E+007,  0.16500000000E+002,  0.00000000000E+000,  0.10000000000E+001
  0.16656000000E+005,  0.69762305499E+007,  0.16500000000E+002,  0.00000000000E+000,  0.10000000000E+001
  0.16956000000E+005,  0.69860273372E+007,  0.16500000000E+002,  0.00000000000E+000,  0.10000000000E+001
  0.17256000000E+005,  0.69955586085E+007,  0.16500000000E+002,  0.00000000000E+000,  0.10000000000E+001
  0.17556000000E+005,  0.70048348318E+007,  0.16500000000E+002,  0.00000000000E+000,  0.10000000000E+001
  0.17856000000E+005,  0.70138660052E+007,  0.16500000000E+002,  0.00000000000E+000,  0.10000000000E+001
  0.18156000000E+005,  0.70250136665E+007,  0.16500000000E+002,  0.00000000000E+000,  0.10000000000E+001
  0.18456000000E+005,  0.70368520581E+007,  0.16500000000E+002,  0.00000000000E+000,  0.10000000000E+001
  0.18756000000E+005,  0.70468654979E+007,  0.16500000000E+002,  0.00000000000E+000,  0.10000000000E+001
  0.19056000000E+005,  0.70560473776E+007,  0.16500000000E+002,  0.00000000000E+000,  0.10000000000E+001
  0.19356000000E+005,  0.70647249646E+007,  0.16500000000E+002,  0.00000000000E+000,  0.10000000000E+001
  0.19656000000E+005,  0.70730365725E+007,  0.16500000000E+002,  0.00000000000E+000,  0.10000000000E+001
  0.19956000000E+005,  0.70810519597E+007,  0.16500000000E+002,  0.00000000000E+000,  0.10000000000E+001
  0.20256000000E+005,  0.70888117579E+007,  0.16500000000E+002,  0.00000000000E+000,  0.10000000000E+001
  0.20556000000E+005,  0.70963425644E+007,  0.16500000000E+002,  0.00000000000E+000,  0.10000000000E+001
  0.20856000000E+005,  0.71036634667E+007,  0.16500000000E+002,  0.00000000000E+000,  0.10000000000E+001
  0.21156000000E+005,  0.71107891566E+007,  0.16500000000E+002,  0.00000000000E+000,  0.10000000000E+001
  0.21456000000E+005,  0.71177315494E+007,  0.16500000000E+002,  0.00000000000E+000,  0.10000000000E+001
  0.21756000000E+005,  0.71245006863E+007,  0.16500000000E+002,  0.00000000000E+000,  0.10000000000E+001
  0.22056000000E+005,  0.71311052715E+007,  0.16500000000E+002,  0.00000000000E+000,  0.10000000000E+001
  0.22356000000E+005,  0.71375530090E+007,  0.16500000000E+002,  0.00000000000E+000,  0.10000000000E+001
  0.22656000000E+005,  0.71438508250E+007,  0.16500000000E+002,  0.00000000000E+000,  0.10000000000E+001
  0.22956000000E+005,  0.71500050221E+007,  0.16500000000E+002,  0.00000000000E+000,  0.10000000000E+001
  0.23256000000E+005,  0.71560213879E+007,  0.16500000000E+002,  0.00000000000E+000,  0.10000000000E+001
  0.23556000000E+005,  0.71619052771E+007,  0.16500000000E+002,  0.00000000000E+000,  0.10000000000E+001
  0.23856000000E+005,  0.71676616725E+007,  0.16500000000E+002,  0.00000000000E+000,  0.10000000000E+001
  0.24156000000E+005,  0.71740242853E+007,  0.16500000000E+002,  0.00000000000E+000,  0.10000000000E+001
  0.24456000000E+005,  0.71805526062E+007,  0.16500000000E+002,  0.00000000000E+000,  0.10000000000E+001
  0.24756000000E+005,  0.71864683636E+007,  0.16500000000E+002,  0.00000000000E+000,  0.10000000000E+001
  0.25056000000E+005,  0.71920810121E+007,  0.16500000000E+002,  0.00000000000E+000,  0.10000000000E+001
  0.25356000000E+005,  0.71974931908E+007,  0.16500000000E+002,  0.00000000000E+000,  0.10000000000E+001
  0.25656000000E+005,  0.72027489010E+007,  0.16500000000E+002,  0.00000000000E+000,  0.10000000000E+001
  0.25956000000E+005,  0.72078708518E+007,  0.16500000000E+002,  0.00000000000E+000,  0.10000000000E+001
  0.26256000000E+005,  0.72128726814E+007,  0.16500000000E+002,  0.00000000000E+000,  0.10000000000E+001
  0.26556000000E+005,  0.72177636356E+007,  0.16500000000E+002,  0.00000000000E+000,  0.10000000000E+001
  0.26856000000E+005,  0.72225505925E+007,  0.16500000000E+002,  0.00000000000E+000,  0.10000000000E+001
  0.27156000000E+005,  0.72272390298E+007,  0.16500000000E+002,  0.00000000000E+000,  0.10000000000E+001
  0.27456000000E+005,  0.72318335296E+007,  0.16500000000E+002,  0.00000000000E+000,  0.10000000000E+001
  0.27756000000E+005,  0.72363380607E+007,  0.16500000000E+002,  0.00000000000E+000,  0.10000000000E+001
  0.28056000000E+005,  0.72407561475E+007,  0.16500000000E+002,  0.00000000000E+000,  0.10000000000E+001
  0.28356000000E+005,  0.72450909763E+007,  0.16500000000E+002,  0.00000000000E+000,  0.10000000000E+001
  0.28656000000E+005,  0.72493454660E+007,  0.16500000000E+002,  0.00000000000E+000,  0.10000000000E+001
  0.28956000000E+005,  0.72535223178E+007,  0.16500000000E+002,  0.00000000000E+000,  0.10000000000E+001
  0.29256000000E+005,  0.72576240499E+007,  0.16500000000E+002,  0.00000000000E+000,  0.10000000000E+001
  0.29556000000E+005,  0.72616530245E+007,  0.16500000000E+002,  0.00000000000E+000,  0.10000000000E+001
  0.29856000000E+005,  0.72656114676E+007,  0.16500000000E+002,  0.00000000000E+000,  0.10000000000E+001
  0.30156000000E+005,  0.72704685610E+007,  0.16500000000E+002,  0.00000000000E+000,  0.10000000000E+001
  0.30456000000E+005,  0.72756359756E+007,  0.16500000000E+002,  0.00000000000E+000,  0.10000000000E+001
  0.30756000000E+005,  0.72800778814E+007,  0.16500000000E+002,  0.00000000000E+000,  0.10000000000E+001
  0.31056000000E+005,  0.72842017019E+007,  0.16500000000E+002,  0.00000000000E+000,  0.10000000000E+001
  0.31356000000E+005,  0.72881403778E+007,  0.16500000000E+002,  0.00000000000E+000,  0.10000000000E+001
  0.31656000000E+005,  0.72919492378E+007,  0.16500000000E+002,  0.00000000000E+000,  0.10000000000E+001
  0.31956000000E+005,  0.72956555495E+007,  0.16500000000E+002,  0.00000000000E+000,  0.10000000000E+001
  0.32256000000E+005,  0.72992747114E+007,  0.16500000000E+002,  0.00000000000E+000,  0.10000000000E+001
  0.32556000000E+005,  0.19626163465E+008,  0.16500000000E+002,  0.00000000000E+000,  0.10000000000E+001
  0.32631000000E+005,  0.61243444853E+008,  0.16500000000E+002,  0.00000000000E+000,  0.10000000000E+001
  0.32706000000E+005,  0.86862727427E+008,  0.16500000000E+002,  0.00000000000E+000,  0.10000000000E+001
  0.32724750000E+005,  0.92413047407E+008,  0.16500000000E+002,  0.00000000000E+000,  0.10000000000E+001
  0.32730609375E+005,  0.94080186100E+008,  0.16500000000E+002,  0.00000000000E+000,  0.10000000000E+001
  0.32732440430E+005,  0.94594844936E+008,  0.16500000000E+002,  0.00000000000E+000,  0.10000000000E+001
  0.32734729248E+005,  0.95230554716E+008,  0.16500000000E+002,  0.00000000000E+000,  0.10000000000E+001
  0.32734740424E+005,  0.95233654552E+008,  0.16500000000E+002,  0.00000000000E+000,  0.10000000000E+001
  0.32734743916E+005,  0.95234623229E+008,  0.16500000000E+002,  0.00000000000E+000,  0.10000000000E+001
  0.32734748282E+005,  0.95235834047E+008,  0.16500000000E+002,  0.00000000000E+000,  0.10000000000E+001
  0.32734749646E+005,  0.95236212424E+008,  0.16500000000E+002,  0.00000000000E+000,  0.10000000000E+001
  0.32734751351E+005,  0.95236685391E+008,  0.16500000000E+002,  0.00000000000E+000,  0.10000000000E+001
  0.32734751884E+005,  0.95236833193E+008,  0.16500000000E+002,  0.00000000000E+000,  0.10000000000E+001
  0.32734752551E+005,  0.95237017945E+008,  0.16500000000E+002,  0.00000000000E+000,  0.10000000000E+001
  0.32734752759E+005,  0.95237075679E+008,  0.16500000000E+002,  0.00000000000E+000,  0.10000000000E+001
  0.32734753019E+005,  0.95237147848E+008,  0.16500000000E+002,  0.00000000000E+000,  0.10000000000E+001
  0.32734753039E+005,  0.95237153486E+008,  0.16500000000E+002,  0.00000000000E+000,  0.10000000000E+001
  0.32734753065E+005,  0.95237160534E+008,  0.16500000000E+002,  0.00000000000E+000,  0.10000000000E+001
  0.32734753067E+005,  0.95237160534E+008,  0.16500000000E+002,  0.00000000000E+000,  0.10000000000E+001
  0.32734753069E+005,  0.95237160534E+008,  0.16500000000E+002,  0.00000000000E+000,  0.10000000000E+001
  0.32734753072E+005,  0.95237160534E+008,  0.16500000000E+002,  0.00000000000E+000,  0.10000000000E+001
