"           TIME(S)","              PRES","              TEMP","             SAT_G","             SAT_L"
  0.50000000000E+001,  0.22215175924E+006,  0.16500000000E+002,  0.00000000000E+000,  0.10000000000E+001
  0.30000000000E+002,  0.35196954607E+006,  0.16500000000E+002,  0.00000000000E+000,  0.10000000000E+001
  0.90000000000E+002,  0.43674784850E+006,  0.16500000000E+002,  0.00000000000E+000,  0.10000000000E+001
  0.15000000000E+003,  0.47690187173E+006,  0.16500000000E+002,  0.00000000000E+000,  0.10000000000E+001
  0.21000000000E+003,  0.50241975860E+006,  0.16500000000E+002,  0.00000000000E+000,  0.10000000000E+001
  0.27000000000E+003,  0.52123383244E+006,  0.16500000000E+002,  0.00000000000E+000,  0.10000000000E+001
  0.33000000000E+003,  0.53623601821E+006,  0.16500000000E+002,  0.00000000000E+000,  0.10000000000E+001
  0.39000000000E+003,  0.54875515972E+006,  0.16500000000E+002,  0.00000000000E+000,  0.10000000000E+001
  0.45000000000E+003,  0.55951267692E+006,  0.16500000000E+002,  0.00000000000E+000,  0.10000000000E+001
  0.51000000000E+003,  0.56894861901E+006,  0.16500000000E+002,  0.00000000000E+000,  0.10000000000E+001
  0.57000000000E+003,  0.57735383751E+006,  0.16500000000E+002,  0.00000000000E+000,  0.10000000000E+001
  0.63000000000E+003,  0.58493170975E+006,  0.16500000000E+002,  0.00000000000E+000,  0.10000000000E+001
  0.69000000000E+003,  0.59183042549E+006,  0.16500000000E+002,  0.00000000000E+000,  0.10000000000E+001
  0.75000000000E+003,  0.59816143321E+006,  0.16500000000E+002,  0.00000000000E+000,  0.10000000000E+001
  0.81000000000E+003,  0.60401070217E+006,  0.16500000000E+002,  0.00000000000E+000,  0.10000000000E+001
  0.87000000000E+003,  0.60944595754E+006,  0.16500000000E+002,  0.00000000000E+000,  0.10000000000E+001
  0.93000000000E+003,  0.61452151649E+006,  0.16500000000E+002,  0.00000000000E+000,  0.10000000000E+001
  0.99000000000E+003,  0.61928162004E+006,  0.16500000000E+002,  0.00000000000E+000,  0.10000000000E+001
  0.10500000000E+004,  0.62376279296E+006,  0.16500000000E+002,  0.00000000000E+000,  0.10000000000E+001
  0.11100000000E+004,  0.62799555017E+006,  0.16500000000E+002,  0.00000000000E+000,  0.10000000000E+001
  0.11700000000E+004,  0.63200565623E+006,  0.16500000000E+002,  0.00000000000E+000,  0.10000000000E+001
  0.12300000000E+004,  0.63581506913E+006,  0.16500000000E+002,  0.00000000000E+000,  0.10000000000E+001
  0.12900000000E+004,  0.63944266053E+006,  0.16500000000E+002,  0.00000000000E+000,  0.10000000000E+001
  0.13500000000E+004,  0.64290477202E+006,  0.16500000000E+002,  0.00000000000E+000,  0.10000000000E+001
  0.14100000000E+004,  0.64621564998E+006,  0.16500000000E+002,  0.00000000000E+000,  0.10000000000E+001
  0.14700000000E+004,  0.64938779098E+006,  0.16500000000E+002,  0.00000000000E+000,  0.10000000000E+001
  0.15300000000E+004,  0.65243221722E+006,  0.16500000000E+002,  0.00000000000E+000,  0.10000000000E+001
  0.15900000000E+004,  0.65535870001E+006,  0.16500000000E+002,  0.00000000000E+000,  0.10000000000E+001
  0.16500000000E+004,  0.65817594202E+006,  0.16500000000E+002,  0.00000000000E+000,  0.10000000000E+001
  0.17100000000E+004,  0.66089172697E+006,  0.16500000000E+002,  0.00000000000E+000,  0.10000000000E+001
  0.17700000000E+004,  0.66351304413E+006,  0.16500000000E+002,  0.00000000000E+000,  0.10000000000E+001
  0.18300000000E+004,  0.66604619224E+006,  0.16500000000E+002,  0.00000000000E+000,  0.10000000000E+001
  0.18900000000E+004,  0.66849686685E+006,  0.16500000000E+002,  0.00000000000E+000,  0.10000000000E+001
  0.19500000000E+004,  0.67087023446E+006,  0.16500000000E+002,  0.00000000000E+000,  0.10000000000E+001
  0.20100000000E+004,  0.67317099533E+006,  0.16500000000E+002,  0.00000000000E+000,  0.10000000000E+001
  0.20700000000E+004,  0.67540343748E+006,  0.16500000000E+002,  0.00000000000E+000,  0.10000000000E+001
  0.21300000000E+004,  0.67757148295E+006,  0.16500000000E+002,  0.00000000000E+000,  0.10000000000E+001
  0.21900000000E+004,  0.67967872809E+006,  0.16500000000E+002,  0.00000000000E+000,  0.10000000000E+001
  0.22500000000E+004,  0.68172847788E+006,  0.16500000000E+002,  0.00000000000E+000,  0.10000000000E+001
  0.23100000000E+004,  0.68372377668E+006,  0.16500000000E+002,  0.00000000000E+000,  0.10000000000E+001
  0.23700000000E+004,  0.68566743429E+006,  0.16500000000E+002,  0.00000000000E+000,  0.10000000000E+001
  0.24300000000E+004,  0.68756204949E+006,  0.16500000000E+002,  0.00000000000E+000,  0.10000000000E+001
  0.24900000000E+004,  0.68941003016E+006,  0.16500000000E+002,  0.00000000000E+000,  0.10000000000E+001
  0.25500000000E+004,  0.69121361164E+006,  0.16500000000E+002,  0.00000000000E+000,  0.10000000000E+001
  0.26100000000E+004,  0.69297487250E+006,  0.16500000000E+002,  0.00000000000E+000,  0.10000000000E+001
  0.26700000000E+004,  0.69469574876E+006,  0.16500000000E+002,  0.00000000000E+000,  0.10000000000E+001
  0.27300000000E+004,  0.69637804680E+006,  0.16500000000E+002,  0.00000000000E+000,  0.10000000000E+001
  0.27900000000E+004,  0.69802345395E+006,  0.16500000000E+002,  0.00000000000E+000,  0.10000000000E+001
  0.28500000000E+004,  0.69963354989E+006,  0.16500000000E+002,  0.00000000000E+000,  0.10000000000E+001
  0.29100000000E+004,  0.70120981390E+006,  0.16500000000E+002,  0.00000000000E+000,  0.10000000000E+001
  0.29700000000E+004,  0.70275363458E+006,  0.16500000000E+002,  0.00000000000E+000,  0.10000000000E+001
  0.30300000000E+004,  0.70426631637E+006,  0.16500000000E+002,  0.00000000000E+000,  0.10000000000E+001
  0.30900000000E+004,  0.70574908594E+006,  0.16500000000E+002,  0.00000000000E+000,  0.10000000000E+001
  0.31500000000E+004,  0.70720310035E+006,  0.16500000000E+002,  0.00000000000E+000,  0.10000000000E+001
  0.32100000000E+004,  0.70862944837E+006,  0.16500000000E+002,  0.00000000000E+000,  0.10000000000E+001
  0.32700000000E+004,  0.71002915901E+006,  0.16500000000E+002,  0.00000000000E+000,  0.10000000000E+001
  0.33300000000E+004,  0.71140320454E+006,  0.16500000000E+002,  0.00000000000E+000,  0.10000000000E+001
  0.33900000000E+004,  0.71275250477E+006,  0.16500000000E+002,  0.00000000000E+000,  0.10000000000E+001
  0.34500000000E+004,  0.71407793068E+006,  0.16500000000E+002,  0.00000000000E+000,  0.10000000000E+001
  0.35100000000E+004,  0.71538030789E+006,  0.16500000000E+002,  0.00000000000E+000,  0.10000000000E+001
  0.35700000000E+004,  0.71666041980E+006,  0.16500000000E+002,  0.00000000000E+000,  0.10000000000E+001
  0.36300000000E+004,  0.71791901028E+006,  0.16500000000E+002,  0.00000000000E+000,  0.10000000000E+001
  0.36900000000E+004,  0.71915678651E+006,  0.16500000000E+002,  0.00000000000E+000,  0.10000000000E+001
  0.37500000000E+004,  0.72037442116E+006,  0.16500000000E+002,  0.00000000000E+000,  0.10000000000E+001
  0.38100000000E+004,  0.72157255474E+006,  0.16500000000E+002,  0.00000000000E+000,  0.10000000000E+001
  0.38700000000E+004,  0.72275179750E+006,  0.16500000000E+002,  0.00000000000E+000,  0.10000000000E+001
  0.39300000000E+004,  0.72391273149E+006,  0.16500000000E+002,  0.00000000000E+000,  0.10000000000E+001
  0.39900000000E+004,  0.72505591217E+006,  0.16500000000E+002,  0.00000000000E+000,  0.10000000000E+001
  0.40500000000E+004,  0.72618186995E+006,  0.16500000000E+002,  0.00000000000E+000,  0.10000000000E+001
  0.41100000000E+004,  0.72729111188E+006,  0.16500000000E+002,  0.00000000000E+000,  0.10000000000E+001
  0.41700000000E+004,  0.72838412277E+006,  0.16500000000E+002,  0.00000000000E+000,  0.10000000000E+001
  0.42300000000E+004,  0.72946136666E+006,  0.16500000000E+002,  0.00000000000E+000,  0.10000000000E+001
  0.42900000000E+004,  0.73052328795E+006,  0.16500000000E+002,  0.00000000000E+000,  0.10000000000E+001
  0.43500000000E+004,  0.73157031244E+006,  0.16500000000E+002,  0.00000000000E+000,  0.10000000000E+001
  0.44100000000E+004,  0.73260284843E+006,  0.16500000000E+002,  0.00000000000E+000,  0.10000000000E+001
  0.44700000000E+004,  0.73362128766E+006,  0.16500000000E+002,  0.00000000000E+000,  0.10000000000E+001
  0.45300000000E+004,  0.73462600612E+006,  0.16500000000E+002,  0.00000000000E+000,  0.10000000000E+001
  0.45900000000E+004,  0.73561736504E+006,  0.16500000000E+002,  0.00000000000E+000,  0.10000000000E+001
  0.46500000000E+004,  0.73659571151E+006,  0.16500000000E+002,  0.00000000000E+000,  0.10000000000E+001
  0.47100000000E+004,  0.73756137933E+006,  0.16500000000E+002,  0.00000000000E+000,  0.10000000000E+001
  0.47700000000E+004,  0.73851468956E+006,  0.16500000000E+002,  0.00000000000E+000,  0.10000000000E+001
  0.48300000000E+004,  0.73945595126E+006,  0.16500000000E+002,  0.00000000000E+000,  0.10000000000E+001
  0.48900000000E+004,  0.74038546209E+006,  0.16500000000E+002,  0.00000000000E+000,  0.10000000000E+001
  0.49500000000E+004,  0.74130350877E+006,  0.16500000000E+002,  0.00000000000E+000,  0.10000000000E+001
  0.50100000000E+004,  0.74221036773E+006,  0.16500000000E+002,  0.00000000000E+000,  0.10000000000E+001
  0.50700000000E+004,  0.74310630550E+006,  0.16500000000E+002,  0.00000000000E+000,  0.10000000000E+001
  0.51300000000E+004,  0.74399157927E+006,  0.16500000000E+002,  0.00000000000E+000,  0.10000000000E+001
  0.51900000000E+004,  0.74486643726E+006,  0.16500000000E+002,  0.00000000000E+000,  0.10000000000E+001
  0.52500000000E+004,  0.74573111916E+006,  0.16500000000E+002,  0.00000000000E+000,  0.10000000000E+001
  0.53100000000E+004,  0.74658585584E+006,  0.16500000000E+002,  0.00000000000E+000,  0.10000000000E+001
  0.53700000000E+004,  0.74743087271E+006,  0.16500000000E+002,  0.00000000000E+000,  0.10000000000E+001
  0.54300000000E+004,  0.74826638466E+006,  0.16500000000E+002,  0.00000000000E+000,  0.10000000000E+001
  0.54900000000E+004,  0.74909260123E+006,  0.16500000000E+002,  0.00000000000E+000,  0.10000000000E+001
  0.55500000000E+004,  0.74990972490E+006,  0.16500000000E+002,  0.00000000000E+000,  0.10000000000E+001
  0.56100000000E+004,  0.75071795124E+006,  0.16500000000E+002,  0.00000000000E+000,  0.10000000000E+001
  0.56700000000E+004,  0.75151747067E+006,  0.16500000000E+002,  0.00000000000E+000,  0.10000000000E+001
  0.57300000000E+004,  0.75230846627E+006,  0.16500000000E+002,  0.00000000000E+000,  0.10000000000E+001
  0.57900000000E+004,  0.75309111616E+006,  0.16500000000E+002,  0.00000000000E+000,  0.10000000000E+001
  0.58500000000E+004,  0.75386559285E+006,  0.16500000000E+002,  0.00000000000E+000,  0.10000000000E+001
  0.59100000000E+004,  0.75463206354E+006,  0.16500000000E+002,  0.00000000000E+000,  0.10000000000E+001
  0.59700000000E+004,  0.75539069027E+006,  0.16500000000E+002,  0.00000000000E+000,  0.10000000000E+001
  0.60300000000E+004,  0.75620805493E+006,  0.16500000000E+002,  0.00000000000E+000,  0.10000000000E+001
  0.60900000000E+004,  0.75703430280E+006,  0.16500000000E+002,  0.00000000000E+000,  0.10000000000E+001
  0.61500000000E+004,  0.75779482694E+006,  0.16500000000E+002,  0.00000000000E+000,  0.10000000000E+001
  0.62100000000E+004,  0.75853704847E+006,  0.16500000000E+002,  0.00000000000E+000,  0.10000000000E+001
  0.62700000000E+004,  0.75926814256E+006,  0.16500000000E+002,  0.00000000000E+000,  0.10000000000E+001
  0.63300000000E+004,  0.75999020951E+006,  0.16500000000E+002,  0.00000000000E+000,  0.10000000000E+001
  0.63900000000E+004,  0.76070416657E+006,  0.16500000000E+002,  0.00000000000E+000,  0.10000000000E+001
  0.64500000000E+004,  0.76141053595E+006,  0.16500000000E+002,  0.00000000000E+000,  0.10000000000E+001
  0.65100000000E+004,  0.76210967200E+006,  0.16500000000E+002,  0.00000000000E+000,  0.10000000000E+001
  0.65700000000E+004,  0.76280183371E+006,  0.16500000000E+002,  0.00000000000E+000,  0.10000000000E+001
  0.66300000000E+004,  0.76348726840E+006,  0.16500000000E+002,  0.00000000000E+000,  0.10000000000E+001
  0.66900000000E+004,  0.76416614710E+006,  0.16500000000E+002,  0.00000000000E+000,  0.10000000000E+001
  0.67500000000E+004,  0.76483862299E+006,  0.16500000000E+002,  0.00000000000E+000,  0.10000000000E+001
  0.68100000000E+004,  0.76550486552E+006,  0.16500000000E+002,  0.00000000000E+000,  0.10000000000E+001
  0.68700000000E+004,  0.76616500797E+006,  0.16500000000E+002,  0.00000000000E+000,  0.10000000000E+001
  0.69300000000E+004,  0.76681918404E+006,  0.16500000000E+002,  0.00000000000E+000,  0.10000000000E+001
  0.69900000000E+004,  0.76746749844E+006,  0.16500000000E+002,  0.00000000000E+000,  0.10000000000E+001
  0.70500000000E+004,  0.76811009346E+006,  0.16500000000E+002,  0.00000000000E+000,  0.10000000000E+001
  0.71100000000E+004,  0.76874706358E+006,  0.16500000000E+002,  0.00000000000E+000,  0.10000000000E+001
  0.71700000000E+004,  0.76937852292E+006,  0.16500000000E+002,  0.00000000000E+000,  0.10000000000E+001
  0.72300000000E+004,  0.77000455345E+006,  0.16500000000E+002,  0.00000000000E+000,  0.10000000000E+001
  0.72900000000E+004,  0.77062527565E+006,  0.16500000000E+002,  0.00000000000E+000,  0.10000000000E+001
  0.73500000000E+004,  0.77124076543E+006,  0.16500000000E+002,  0.00000000000E+000,  0.10000000000E+001
  0.74100000000E+004,  0.77185112636E+006,  0.16500000000E+002,  0.00000000000E+000,  0.10000000000E+001
  0.74700000000E+004,  0.77245644295E+006,  0.16500000000E+002,  0.00000000000E+000,  0.10000000000E+001
  0.75300000000E+004,  0.77305680056E+006,  0.16500000000E+002,  0.00000000000E+000,  0.10000000000E+001
  0.75900000000E+004,  0.77365228422E+006,  0.16500000000E+002,  0.00000000000E+000,  0.10000000000E+001
  0.76500000000E+004,  0.77424296784E+006,  0.16500000000E+002,  0.00000000000E+000,  0.10000000000E+001
  0.77100000000E+004,  0.77482893752E+006,  0.16500000000E+002,  0.00000000000E+000,  0.10000000000E+001
  0.77700000000E+004,  0.77541026608E+006,  0.16500000000E+002,  0.00000000000E+000,  0.10000000000E+001
  0.78300000000E+004,  0.77598702813E+006,  0.16500000000E+002,  0.00000000000E+000,  0.10000000000E+001
  0.78900000000E+004,  0.77655929566E+006,  0.16500000000E+002,  0.00000000000E+000,  0.10000000000E+001
  0.79500000000E+004,  0.77712713469E+006,  0.16500000000E+002,  0.00000000000E+000,  0.10000000000E+001
  0.80100000000E+004,  0.77769062842E+006,  0.16500000000E+002,  0.00000000000E+000,  0.10000000000E+001
  0.80700000000E+004,  0.77824983079E+006,  0.16500000000E+002,  0.00000000000E+000,  0.10000000000E+001
  0.81300000000E+004,  0.77880480958E+006,  0.16500000000E+002,  0.00000000000E+000,  0.10000000000E+001
  0.81900000000E+004,  0.77935563318E+006,  0.16500000000E+002,  0.00000000000E+000,  0.10000000000E+001
  0.82500000000E+004,  0.77990235622E+006,  0.16500000000E+002,  0.00000000000E+000,  0.10000000000E+001
  0.83100000000E+004,  0.78044504528E+006,  0.16500000000E+002,  0.00000000000E+000,  0.10000000000E+001
  0.83700000000E+004,  0.78098376179E+006,  0.16500000000E+002,  0.00000000000E+000,  0.10000000000E+001
  0.84300000000E+004,  0.78151855533E+006,  0.16500000000E+002,  0.00000000000E+000,  0.10000000000E+001
  0.84900000000E+004,  0.78204948994E+006,  0.16500000000E+002,  0.00000000000E+000,  0.10000000000E+001
  0.85500000000E+004,  0.78257661956E+006,  0.16500000000E+002,  0.00000000000E+000,  0.10000000000E+001
  0.86100000000E+004,  0.78309999828E+006,  0.16500000000E+002,  0.00000000000E+000,  0.10000000000E+001
  0.86700000000E+004,  0.78361968167E+006,  0.16500000000E+002,  0.00000000000E+000,  0.10000000000E+001
  0.87300000000E+004,  0.78413571451E+006,  0.16500000000E+002,  0.00000000000E+000,  0.10000000000E+001
  0.87900000000E+004,  0.78464815570E+006,  0.16500000000E+002,  0.00000000000E+000,  0.10000000000E+001
  0.88500000000E+004,  0.78515704985E+006,  0.16500000000E+002,  0.00000000000E+000,  0.10000000000E+001
  0.89100000000E+004,  0.78566244756E+006,  0.16500000000E+002,  0.00000000000E+000,  0.10000000000E+001
  0.89700000000E+004,  0.78616439764E+006,  0.16500000000E+002,  0.00000000000E+000,  0.10000000000E+001
  0.90300000000E+004,  0.78666294467E+006,  0.16500000000E+002,  0.00000000000E+000,  0.10000000000E+001
  0.90900000000E+004,  0.78715813622E+006,  0.16500000000E+002,  0.00000000000E+000,  0.10000000000E+001
  0.91500000000E+004,  0.78765001577E+006,  0.16500000000E+002,  0.00000000000E+000,  0.10000000000E+001
  0.92100000000E+004,  0.78813862748E+006,  0.16500000000E+002,  0.00000000000E+000,  0.10000000000E+001
  0.92700000000E+004,  0.78862401438E+006,  0.16500000000E+002,  0.00000000000E+000,  0.10000000000E+001
  0.93300000000E+004,  0.78910621786E+006,  0.16500000000E+002,  0.00000000000E+000,  0.10000000000E+001
  0.93900000000E+004,  0.78958528121E+006,  0.16500000000E+002,  0.00000000000E+000,  0.10000000000E+001
  0.94500000000E+004,  0.79006124172E+006,  0.16500000000E+002,  0.00000000000E+000,  0.10000000000E+001
  0.95100000000E+004,  0.79053414221E+006,  0.16500000000E+002,  0.00000000000E+000,  0.10000000000E+001
  0.95700000000E+004,  0.79100402278E+006,  0.16500000000E+002,  0.00000000000E+000,  0.10000000000E+001
  0.96300000000E+004,  0.79147091482E+006,  0.16500000000E+002,  0.00000000000E+000,  0.10000000000E+001
  0.96900000000E+004,  0.79193486086E+006,  0.16500000000E+002,  0.00000000000E+000,  0.10000000000E+001
  0.97500000000E+004,  0.79239589599E+006,  0.16500000000E+002,  0.00000000000E+000,  0.10000000000E+001
  0.98100000000E+004,  0.79285405712E+006,  0.16500000000E+002,  0.00000000000E+000,  0.10000000000E+001
  0.98700000000E+004,  0.79330937938E+006,  0.16500000000E+002,  0.00000000000E+000,  0.10000000000E+001
  0.99300000000E+004,  0.79376189652E+006,  0.16500000000E+002,  0.00000000000E+000,  0.10000000000E+001
  0.99900000000E+004,  0.79421164275E+006,  0.16500000000E+002,  0.00000000000E+000,  0.10000000000E+001
  0.10050000000E+005,  0.79465865165E+006,  0.16500000000E+002,  0.00000000000E+000,  0.10000000000E+001
  0.10110000000E+005,  0.79510295512E+006,  0.16500000000E+002,  0.00000000000E+000,  0.10000000000E+001
  0.10170000000E+005,  0.79554458546E+006,  0.16500000000E+002,  0.00000000000E+000,  0.10000000000E+001
  0.10230000000E+005,  0.79598357439E+006,  0.16500000000E+002,  0.00000000000E+000,  0.10000000000E+001
  0.10290000000E+005,  0.79641995375E+006,  0.16500000000E+002,  0.00000000000E+000,  0.10000000000E+001
  0.10350000000E+005,  0.79685375134E+006,  0.16500000000E+002,  0.00000000000E+000,  0.10000000000E+001
  0.10410000000E+005,  0.79728499961E+006,  0.16500000000E+002,  0.00000000000E+000,  0.10000000000E+001
  0.10470000000E+005,  0.79771372703E+006,  0.16500000000E+002,  0.00000000000E+000,  0.10000000000E+001
  0.10530000000E+005,  0.79813996097E+006,  0.16500000000E+002,  0.00000000000E+000,  0.10000000000E+001
  0.10590000000E+005,  0.79856373086E+006,  0.16500000000E+002,  0.00000000000E+000,  0.10000000000E+001
  0.10650000000E+005,  0.79898506355E+006,  0.16500000000E+002,  0.00000000000E+000,  0.10000000000E+001
  0.10710000000E+005,  0.79940398663E+006,  0.16500000000E+002,  0.00000000000E+000,  0.10000000000E+001
  0.10770000000E+005,  0.79982052718E+006,  0.16500000000E+002,  0.00000000000E+000,  0.10000000000E+001
  0.10830000000E+005,  0.80023471107E+006,  0.16500000000E+002,  0.00000000000E+000,  0.10000000000E+001
  0.10890000000E+005,  0.80064656409E+006,  0.16500000000E+002,  0.00000000000E+000,  0.10000000000E+001
  0.10950000000E+005,  0.80105611160E+006,  0.16500000000E+002,  0.00000000000E+000,  0.10000000000E+001
  0.11010000000E+005,  0.80146337838E+006,  0.16500000000E+002,  0.00000000000E+000,  0.10000000000E+001
  0.11070000000E+005,  0.80186838928E+006,  0.16500000000E+002,  0.00000000000E+000,  0.10000000000E+001
  0.11130000000E+005,  0.80227116803E+006,  0.16500000000E+002,  0.00000000000E+000,  0.10000000000E+001
  0.11190000000E+005,  0.80267173801E+006,  0.16500000000E+002,  0.00000000000E+000,  0.10000000000E+001
  0.11250000000E+005,  0.80307012284E+006,  0.16500000000E+002,  0.00000000000E+000,  0.10000000000E+001
