"           TIME(S)","              PRES","              TEMP","             SAT_G","             SAT_L"
  0.94879000000E+005,  0.78061784566E+006,  0.16500000000E+002,  0.00000000000E+000,  0.10000000000E+001
  0.94884000000E+005,  0.78061927464E+006,  0.16500000000E+002,  0.00000000000E+000,  0.10000000000E+001
  0.94909000000E+005,  0.78078336072E+006,  0.16500000000E+002,  0.00000000000E+000,  0.10000000000E+001
  0.94939000000E+005,  0.78129669951E+006,  0.16500000000E+002,  0.00000000000E+000,  0.10000000000E+001
  0.94969000000E+005,  0.78243324907E+006,  0.16500000000E+002,  0.00000000000E+000,  0.10000000000E+001
  0.94999000000E+005,  0.78376432205E+006,  0.16500000000E+002,  0.00000000000E+000,  0.10000000000E+001
  0.95029000000E+005,  0.78498696448E+006,  0.16500000000E+002,  0.00000000000E+000,  0.10000000000E+001
  0.95059000000E+005,  0.78599529699E+006,  0.16500000000E+002,  0.00000000000E+000,  0.10000000000E+001
  0.95089000000E+005,  0.78680617936E+006,  0.16500000000E+002,  0.00000000000E+000,  0.10000000000E+001
  0.95119000000E+005,  0.78746278950E+006,  0.16500000000E+002,  0.00000000000E+000,  0.10000000000E+001
  0.95149000000E+005,  0.78800288167E+006,  0.16500000000E+002,  0.00000000000E+000,  0.10000000000E+001
  0.95179000000E+005,  0.78845466970E+006,  0.16500000000E+002,  0.00000000000E+000,  0.10000000000E+001
  0.95209000000E+005,  0.78883865041E+006,  0.16500000000E+002,  0.00000000000E+000,  0.10000000000E+001
  0.95239000000E+005,  0.78916977941E+006,  0.16500000000E+002,  0.00000000000E+000,  0.10000000000E+001
  0.95269000000E+005,  0.78945911511E+006,  0.16500000000E+002,  0.00000000000E+000,  0.10000000000E+001
  0.95299000000E+005,  0.78971496178E+006,  0.16500000000E+002,  0.00000000000E+000,  0.10000000000E+001
  0.95329000000E+005,  0.78994365280E+006,  0.16500000000E+002,  0.00000000000E+000,  0.10000000000E+001
  0.95359000000E+005,  0.79015008914E+006,  0.16500000000E+002,  0.00000000000E+000,  0.10000000000E+001
  0.95389000000E+005,  0.79033811354E+006,  0.16500000000E+002,  0.00000000000E+000,  0.10000000000E+001
  0.95419000000E+005,  0.79051077425E+006,  0.16500000000E+002,  0.00000000000E+000,  0.10000000000E+001
  0.95449000000E+005,  0.79067051384E+006,  0.16500000000E+002,  0.00000000000E+000,  0.10000000000E+001
  0.95479000000E+005,  0.79081930662E+006,  0.16500000000E+002,  0.00000000000E+000,  0.10000000000E+001
  0.95509000000E+005,  0.79095876043E+006,  0.16500000000E+002,  0.00000000000E+000,  0.10000000000E+001
  0.95539000000E+005,  0.79109019295E+006,  0.16500000000E+002,  0.00000000000E+000,  0.10000000000E+001
  0.95569000000E+005,  0.79121469007E+006,  0.16500000000E+002,  0.00000000000E+000,  0.10000000000E+001
  0.95599000000E+005,  0.79133315113E+006,  0.16500000000E+002,  0.00000000000E+000,  0.10000000000E+001
  0.95629000000E+005,  0.79144632387E+006,  0.16500000000E+002,  0.00000000000E+000,  0.10000000000E+001
  0.95659000000E+005,  0.79155483251E+006,  0.16500000000E+002,  0.00000000000E+000,  0.10000000000E+001
  0.95689000000E+005,  0.79165919979E+006,  0.16500000000E+002,  0.00000000000E+000,  0.10000000000E+001
  0.95719000000E+005,  0.79175986522E+006,  0.16500000000E+002,  0.00000000000E+000,  0.10000000000E+001
  0.95749000000E+005,  0.79185719883E+006,  0.16500000000E+002,  0.00000000000E+000,  0.10000000000E+001
  0.95779000000E+005,  0.79195151368E+006,  0.16500000000E+002,  0.00000000000E+000,  0.10000000000E+001
  0.95809000000E+005,  0.79204307521E+006,  0.16500000000E+002,  0.00000000000E+000,  0.10000000000E+001
  0.95839000000E+005,  0.79213210916E+006,  0.16500000000E+002,  0.00000000000E+000,  0.10000000000E+001
  0.95869000000E+005,  0.79221880825E+006,  0.16500000000E+002,  0.00000000000E+000,  0.10000000000E+001
  0.95899000000E+005,  0.79230333755E+006,  0.16500000000E+002,  0.00000000000E+000,  0.10000000000E+001
  0.95929000000E+005,  0.79238583895E+006,  0.16500000000E+002,  0.00000000000E+000,  0.10000000000E+001
  0.95959000000E+005,  0.79246643495E+006,  0.16500000000E+002,  0.00000000000E+000,  0.10000000000E+001
  0.95989000000E+005,  0.79254522081E+006,  0.16500000000E+002,  0.00000000000E+000,  0.10000000000E+001
  0.96019000000E+005,  0.79261171083E+006,  0.16500000000E+002,  0.00000000000E+000,  0.10000000000E+001
  0.96049000000E+005,  0.79266595628E+006,  0.16500000000E+002,  0.00000000000E+000,  0.10000000000E+001
  0.96079000000E+005,  0.79271744371E+006,  0.16500000000E+002,  0.00000000000E+000,  0.10000000000E+001
  0.96109000000E+005,  0.79276994037E+006,  0.16500000000E+002,  0.00000000000E+000,  0.10000000000E+001
  0.96139000000E+005,  0.79282389573E+006,  0.16500000000E+002,  0.00000000000E+000,  0.10000000000E+001
  0.96169000000E+005,  0.79287882411E+006,  0.16500000000E+002,  0.00000000000E+000,  0.10000000000E+001
  0.96199000000E+005,  0.79293411742E+006,  0.16500000000E+002,  0.00000000000E+000,  0.10000000000E+001
  0.96229000000E+005,  0.79298923192E+006,  0.16500000000E+002,  0.00000000000E+000,  0.10000000000E+001
  0.96259000000E+005,  0.79304376601E+006,  0.16500000000E+002,  0.00000000000E+000,  0.10000000000E+001
  0.96289000000E+005,  0.79309744001E+006,  0.16500000000E+002,  0.00000000000E+000,  0.10000000000E+001
  0.96319000000E+005,  0.79315006014E+006,  0.16500000000E+002,  0.00000000000E+000,  0.10000000000E+001
  0.96349000000E+005,  0.79320150550E+006,  0.16500000000E+002,  0.00000000000E+000,  0.10000000000E+001
  0.96379000000E+005,  0.79325170724E+006,  0.16500000000E+002,  0.00000000000E+000,  0.10000000000E+001
  0.96409000000E+005,  0.79330063013E+006,  0.16500000000E+002,  0.00000000000E+000,  0.10000000000E+001
  0.96439000000E+005,  0.79334826074E+006,  0.16500000000E+002,  0.00000000000E+000,  0.10000000000E+001
  0.96469000000E+005,  0.79339460354E+006,  0.16500000000E+002,  0.00000000000E+000,  0.10000000000E+001
  0.96499000000E+005,  0.79343967388E+006,  0.16500000000E+002,  0.00000000000E+000,  0.10000000000E+001
  0.96529000000E+005,  0.79348349491E+006,  0.16500000000E+002,  0.00000000000E+000,  0.10000000000E+001
  0.96559000000E+005,  0.79352609607E+006,  0.16500000000E+002,  0.00000000000E+000,  0.10000000000E+001
  0.96589000000E+005,  0.79356751485E+006,  0.16500000000E+002,  0.00000000000E+000,  0.10000000000E+001
  0.96619000000E+005,  0.79360778975E+006,  0.16500000000E+002,  0.00000000000E+000,  0.10000000000E+001
  0.96649000000E+005,  0.79364695867E+006,  0.16500000000E+002,  0.00000000000E+000,  0.10000000000E+001
  0.96679000000E+005,  0.79368505888E+006,  0.16500000000E+002,  0.00000000000E+000,  0.10000000000E+001
  0.96709000000E+005,  0.79372212746E+006,  0.16500000000E+002,  0.00000000000E+000,  0.10000000000E+001
  0.96739000000E+005,  0.79375820127E+006,  0.16500000000E+002,  0.00000000000E+000,  0.10000000000E+001
  0.96769000000E+005,  0.79379331666E+006,  0.16500000000E+002,  0.00000000000E+000,  0.10000000000E+001
  0.96799000000E+005,  0.79382750852E+006,  0.16500000000E+002,  0.00000000000E+000,  0.10000000000E+001
  0.96829000000E+005,  0.79386080985E+006,  0.16500000000E+002,  0.00000000000E+000,  0.10000000000E+001
  0.96859000000E+005,  0.79389325290E+006,  0.16500000000E+002,  0.00000000000E+000,  0.10000000000E+001
  0.96889000000E+005,  0.79392486853E+006,  0.16500000000E+002,  0.00000000000E+000,  0.10000000000E+001
  0.96919000000E+005,  0.79395568608E+006,  0.16500000000E+002,  0.00000000000E+000,  0.10000000000E+001
  0.96949000000E+005,  0.79398573351E+006,  0.16500000000E+002,  0.00000000000E+000,  0.10000000000E+001
  0.96979000000E+005,  0.79401503738E+006,  0.16500000000E+002,  0.00000000000E+000,  0.10000000000E+001
  0.97009000000E+005,  0.79404362293E+006,  0.16500000000E+002,  0.00000000000E+000,  0.10000000000E+001
  0.97039000000E+005,  0.79407151423E+006,  0.16500000000E+002,  0.00000000000E+000,  0.10000000000E+001
  0.97069000000E+005,  0.79409873415E+006,  0.16500000000E+002,  0.00000000000E+000,  0.10000000000E+001
  0.97099000000E+005,  0.79412530450E+006,  0.16500000000E+002,  0.00000000000E+000,  0.10000000000E+001
  0.97129000000E+005,  0.79415124600E+006,  0.16500000000E+002,  0.00000000000E+000,  0.10000000000E+001
  0.97159000000E+005,  0.79417657841E+006,  0.16500000000E+002,  0.00000000000E+000,  0.10000000000E+001
  0.97189000000E+005,  0.79420132056E+006,  0.16500000000E+002,  0.00000000000E+000,  0.10000000000E+001
  0.97219000000E+005,  0.79422549032E+006,  0.16500000000E+002,  0.00000000000E+000,  0.10000000000E+001
  0.97249000000E+005,  0.79424910480E+006,  0.16500000000E+002,  0.00000000000E+000,  0.10000000000E+001
  0.97279000000E+005,  0.79427218033E+006,  0.16500000000E+002,  0.00000000000E+000,  0.10000000000E+001
  0.97309000000E+005,  0.79429473253E+006,  0.16500000000E+002,  0.00000000000E+000,  0.10000000000E+001
  0.97339000000E+005,  0.79431677619E+006,  0.16500000000E+002,  0.00000000000E+000,  0.10000000000E+001
  0.97369000000E+005,  0.79433832576E+006,  0.16500000000E+002,  0.00000000000E+000,  0.10000000000E+001
  0.97399000000E+005,  0.79435939487E+006,  0.16500000000E+002,  0.00000000000E+000,  0.10000000000E+001
  0.97429000000E+005,  0.79437999658E+006,  0.16500000000E+002,  0.00000000000E+000,  0.10000000000E+001
  0.97459000000E+005,  0.79440014344E+006,  0.16500000000E+002,  0.00000000000E+000,  0.10000000000E+001
  0.97489000000E+005,  0.79441984752E+006,  0.16500000000E+002,  0.00000000000E+000,  0.10000000000E+001
  0.97519000000E+005,  0.79443912040E+006,  0.16500000000E+002,  0.00000000000E+000,  0.10000000000E+001
  0.97549000000E+005,  0.79445797322E+006,  0.16500000000E+002,  0.00000000000E+000,  0.10000000000E+001
  0.97579000000E+005,  0.79447641677E+006,  0.16500000000E+002,  0.00000000000E+000,  0.10000000000E+001
  0.97609000000E+005,  0.79449446137E+006,  0.16500000000E+002,  0.00000000000E+000,  0.10000000000E+001
  0.97639000000E+005,  0.79451211703E+006,  0.16500000000E+002,  0.00000000000E+000,  0.10000000000E+001
  0.97669000000E+005,  0.79452939341E+006,  0.16500000000E+002,  0.00000000000E+000,  0.10000000000E+001
  0.97699000000E+005,  0.79454629980E+006,  0.16500000000E+002,  0.00000000000E+000,  0.10000000000E+001
  0.97729000000E+005,  0.79456284520E+006,  0.16500000000E+002,  0.00000000000E+000,  0.10000000000E+001
  0.97759000000E+005,  0.79457903829E+006,  0.16500000000E+002,  0.00000000000E+000,  0.10000000000E+001
  0.97789000000E+005,  0.79459488754E+006,  0.16500000000E+002,  0.00000000000E+000,  0.10000000000E+001
  0.97819000000E+005,  0.79461040107E+006,  0.16500000000E+002,  0.00000000000E+000,  0.10000000000E+001
  0.97849000000E+005,  0.79462558680E+006,  0.16500000000E+002,  0.00000000000E+000,  0.10000000000E+001
  0.97879000000E+005,  0.79464045241E+006,  0.16500000000E+002,  0.00000000000E+000,  0.10000000000E+001
  0.97909000000E+005,  0.79465500530E+006,  0.16500000000E+002,  0.00000000000E+000,  0.10000000000E+001
  0.97939000000E+005,  0.79466925270E+006,  0.16500000000E+002,  0.00000000000E+000,  0.10000000000E+001
  0.97969000000E+005,  0.79468320163E+006,  0.16500000000E+002,  0.00000000000E+000,  0.10000000000E+001
  0.97999000000E+005,  0.79469685887E+006,  0.16500000000E+002,  0.00000000000E+000,  0.10000000000E+001
  0.98029000000E+005,  0.79471023107E+006,  0.16500000000E+002,  0.00000000000E+000,  0.10000000000E+001
  0.98059000000E+005,  0.79472332466E+006,  0.16500000000E+002,  0.00000000000E+000,  0.10000000000E+001
  0.98089000000E+005,  0.79473614591E+006,  0.16500000000E+002,  0.00000000000E+000,  0.10000000000E+001
  0.98119000000E+005,  0.79474870091E+006,  0.16500000000E+002,  0.00000000000E+000,  0.10000000000E+001
  0.98149000000E+005,  0.79476099558E+006,  0.16500000000E+002,  0.00000000000E+000,  0.10000000000E+001
  0.98179000000E+005,  0.79477303574E+006,  0.16500000000E+002,  0.00000000000E+000,  0.10000000000E+001
  0.98209000000E+005,  0.79478482688E+006,  0.16500000000E+002,  0.00000000000E+000,  0.10000000000E+001
  0.98239000000E+005,  0.79479637475E+006,  0.16500000000E+002,  0.00000000000E+000,  0.10000000000E+001
  0.98269000000E+005,  0.79480768459E+006,  0.16500000000E+002,  0.00000000000E+000,  0.10000000000E+001
  0.98299000000E+005,  0.79481876161E+006,  0.16500000000E+002,  0.00000000000E+000,  0.10000000000E+001
  0.98329000000E+005,  0.79482961089E+006,  0.16500000000E+002,  0.00000000000E+000,  0.10000000000E+001
  0.98359000000E+005,  0.79484023740E+006,  0.16500000000E+002,  0.00000000000E+000,  0.10000000000E+001
  0.98389000000E+005,  0.79485064599E+006,  0.16500000000E+002,  0.00000000000E+000,  0.10000000000E+001
  0.98419000000E+005,  0.79486084141E+006,  0.16500000000E+002,  0.00000000000E+000,  0.10000000000E+001
  0.98449000000E+005,  0.79487082825E+006,  0.16500000000E+002,  0.00000000000E+000,  0.10000000000E+001
  0.98479000000E+005,  0.79488061104E+006,  0.16500000000E+002,  0.00000000000E+000,  0.10000000000E+001
  0.98509000000E+005,  0.79489019416E+006,  0.16500000000E+002,  0.00000000000E+000,  0.10000000000E+001
  0.98539000000E+005,  0.79489958190E+006,  0.16500000000E+002,  0.00000000000E+000,  0.10000000000E+001
  0.98569000000E+005,  0.79490877845E+006,  0.16500000000E+002,  0.00000000000E+000,  0.10000000000E+001
  0.98599000000E+005,  0.79491778792E+006,  0.16500000000E+002,  0.00000000000E+000,  0.10000000000E+001
  0.98629000000E+005,  0.79492661431E+006,  0.16500000000E+002,  0.00000000000E+000,  0.10000000000E+001
  0.98659000000E+005,  0.79493526155E+006,  0.16500000000E+002,  0.00000000000E+000,  0.10000000000E+001
  0.98689000000E+005,  0.79494373349E+006,  0.16500000000E+002,  0.00000000000E+000,  0.10000000000E+001
  0.98719000000E+005,  0.79495203388E+006,  0.16500000000E+002,  0.00000000000E+000,  0.10000000000E+001
  0.98749000000E+005,  0.79496016637E+006,  0.16500000000E+002,  0.00000000000E+000,  0.10000000000E+001
  0.98779000000E+005,  0.79496813456E+006,  0.16500000000E+002,  0.00000000000E+000,  0.10000000000E+001
  0.98809000000E+005,  0.79497594194E+006,  0.16500000000E+002,  0.00000000000E+000,  0.10000000000E+001
  0.98839000000E+005,  0.79498359193E+006,  0.16500000000E+002,  0.00000000000E+000,  0.10000000000E+001
  0.98869000000E+005,  0.79499108789E+006,  0.16500000000E+002,  0.00000000000E+000,  0.10000000000E+001
  0.98899000000E+005,  0.79499843307E+006,  0.16500000000E+002,  0.00000000000E+000,  0.10000000000E+001
  0.98929000000E+005,  0.79500563069E+006,  0.16500000000E+002,  0.00000000000E+000,  0.10000000000E+001
  0.98959000000E+005,  0.79501268386E+006,  0.16500000000E+002,  0.00000000000E+000,  0.10000000000E+001
  0.98989000000E+005,  0.79501959565E+006,  0.16500000000E+002,  0.00000000000E+000,  0.10000000000E+001
  0.99019000000E+005,  0.79502636907E+006,  0.16500000000E+002,  0.00000000000E+000,  0.10000000000E+001
  0.99049000000E+005,  0.79503300704E+006,  0.16500000000E+002,  0.00000000000E+000,  0.10000000000E+001
  0.99079000000E+005,  0.79503951243E+006,  0.16500000000E+002,  0.00000000000E+000,  0.10000000000E+001
  0.99109000000E+005,  0.79504588805E+006,  0.16500000000E+002,  0.00000000000E+000,  0.10000000000E+001
  0.99139000000E+005,  0.79505213664E+006,  0.16500000000E+002,  0.00000000000E+000,  0.10000000000E+001
  0.99169000000E+005,  0.79505826088E+006,  0.16500000000E+002,  0.00000000000E+000,  0.10000000000E+001
  0.99199000000E+005,  0.79506426340E+006,  0.16500000000E+002,  0.00000000000E+000,  0.10000000000E+001
  0.99229000000E+005,  0.79507014677E+006,  0.16500000000E+002,  0.00000000000E+000,  0.10000000000E+001
  0.99259000000E+005,  0.79507591350E+006,  0.16500000000E+002,  0.00000000000E+000,  0.10000000000E+001
  0.99289000000E+005,  0.79508156604E+006,  0.16500000000E+002,  0.00000000000E+000,  0.10000000000E+001
  0.99319000000E+005,  0.79508710681E+006,  0.16500000000E+002,  0.00000000000E+000,  0.10000000000E+001
  0.99349000000E+005,  0.79509253815E+006,  0.16500000000E+002,  0.00000000000E+000,  0.10000000000E+001
  0.99379000000E+005,  0.79509786238E+006,  0.16500000000E+002,  0.00000000000E+000,  0.10000000000E+001
  0.99409000000E+005,  0.79510308175E+006,  0.16500000000E+002,  0.00000000000E+000,  0.10000000000E+001
  0.99439000000E+005,  0.79510819847E+006,  0.16500000000E+002,  0.00000000000E+000,  0.10000000000E+001
  0.99469000000E+005,  0.79511321469E+006,  0.16500000000E+002,  0.00000000000E+000,  0.10000000000E+001
  0.99499000000E+005,  0.79511813253E+006,  0.16500000000E+002,  0.00000000000E+000,  0.10000000000E+001
  0.99529000000E+005,  0.79512295401E+006,  0.16500000000E+002,  0.00000000000E+000,  0.10000000000E+001
  0.99559000000E+005,  0.79512768122E+006,  0.16500000000E+002,  0.00000000000E+000,  0.10000000000E+001
  0.99589000000E+005,  0.79513231615E+006,  0.16500000000E+002,  0.00000000000E+000,  0.10000000000E+001
  0.99619000000E+005,  0.79513686071E+006,  0.16500000000E+002,  0.00000000000E+000,  0.10000000000E+001
  0.99649000000E+005,  0.79514131679E+006,  0.16500000000E+002,  0.00000000000E+000,  0.10000000000E+001
  0.99679000000E+005,  0.79514568624E+006,  0.16500000000E+002,  0.00000000000E+000,  0.10000000000E+001
  0.99709000000E+005,  0.79514997088E+006,  0.16500000000E+002,  0.00000000000E+000,  0.10000000000E+001
  0.99739000000E+005,  0.79515417248E+006,  0.16500000000E+002,  0.00000000000E+000,  0.10000000000E+001
  0.99769000000E+005,  0.79515829279E+006,  0.16500000000E+002,  0.00000000000E+000,  0.10000000000E+001
  0.99799000000E+005,  0.79516233351E+006,  0.16500000000E+002,  0.00000000000E+000,  0.10000000000E+001
  0.99829000000E+005,  0.79516629658E+006,  0.16500000000E+002,  0.00000000000E+000,  0.10000000000E+001
  0.99859000000E+005,  0.79514112098E+006,  0.16500000000E+002,  0.00000000000E+000,  0.10000000000E+001
  0.99889000000E+005,  0.79511566439E+006,  0.16500000000E+002,  0.00000000000E+000,  0.10000000000E+001
  0.99919000000E+005,  0.79509014839E+006,  0.16500000000E+002,  0.00000000000E+000,  0.10000000000E+001
  0.99949000000E+005,  0.79506470822E+006,  0.16500000000E+002,  0.00000000000E+000,  0.10000000000E+001
  0.99979000000E+005,  0.79503941463E+006,  0.16500000000E+002,  0.00000000000E+000,  0.10000000000E+001
  0.10000900000E+006,  0.79501430498E+006,  0.16500000000E+002,  0.00000000000E+000,  0.10000000000E+001
  0.10003900000E+006,  0.79498939935E+006,  0.16500000000E+002,  0.00000000000E+000,  0.10000000000E+001
  0.10006900000E+006,  0.79496470904E+006,  0.16500000000E+002,  0.00000000000E+000,  0.10000000000E+001
  0.10009900000E+006,  0.79494024014E+006,  0.16500000000E+002,  0.00000000000E+000,  0.10000000000E+001
  0.10012900000E+006,  0.79491599565E+006,  0.16500000000E+002,  0.00000000000E+000,  0.10000000000E+001
  0.10015900000E+006,  0.79489197713E+006,  0.16500000000E+002,  0.00000000000E+000,  0.10000000000E+001
  0.10018900000E+006,  0.79486818447E+006,  0.16500000000E+002,  0.00000000000E+000,  0.10000000000E+001
  0.10021900000E+006,  0.79484461721E+006,  0.16500000000E+002,  0.00000000000E+000,  0.10000000000E+001
  0.10024900000E+006,  0.79482127465E+006,  0.16500000000E+002,  0.00000000000E+000,  0.10000000000E+001
  0.10027900000E+006,  0.79479815582E+006,  0.16500000000E+002,  0.00000000000E+000,  0.10000000000E+001
  0.10030900000E+006,  0.79477525965E+006,  0.16500000000E+002,  0.00000000000E+000,  0.10000000000E+001
  0.10033900000E+006,  0.79475258505E+006,  0.16500000000E+002,  0.00000000000E+000,  0.10000000000E+001
  0.10036900000E+006,  0.79473013076E+006,  0.16500000000E+002,  0.00000000000E+000,  0.10000000000E+001
  0.10039900000E+006,  0.79470789524E+006,  0.16500000000E+002,  0.00000000000E+000,  0.10000000000E+001
  0.10042900000E+006,  0.79468587722E+006,  0.16500000000E+002,  0.00000000000E+000,  0.10000000000E+001
  0.10045900000E+006,  0.79466409031E+006,  0.16500000000E+002,  0.00000000000E+000,  0.10000000000E+001
  0.10048900000E+006,  0.79464254012E+006,  0.16500000000E+002,  0.00000000000E+000,  0.10000000000E+001
