"           TIME(S)","              PRES","              TEMP","             SAT_G","             SAT_L"
  0.32470020000E+005,  0.18669593342E+006,  0.16500000000E+002,  0.00000000000E+000,  0.10000000000E+001
  0.32470120000E+005,  0.19248020972E+006,  0.16500000000E+002,  0.00000000000E+000,  0.10000000000E+001
  0.32470420000E+005,  0.20853230176E+006,  0.16500000000E+002,  0.00000000000E+000,  0.10000000000E+001
  0.32470720000E+005,  0.22421416586E+006,  0.16500000000E+002,  0.00000000000E+000,  0.10000000000E+001
  0.32471020000E+005,  0.23974347288E+006,  0.16500000000E+002,  0.00000000000E+000,  0.10000000000E+001
  0.32471320000E+005,  0.25518604246E+006,  0.16500000000E+002,  0.00000000000E+000,  0.10000000000E+001
  0.32471620000E+005,  0.27056494698E+006,  0.16500000000E+002,  0.00000000000E+000,  0.10000000000E+001
  0.32471920000E+005,  0.28588834144E+006,  0.16500000000E+002,  0.00000000000E+000,  0.10000000000E+001
  0.32472220000E+005,  0.30115943714E+006,  0.16500000000E+002,  0.00000000000E+000,  0.10000000000E+001
  0.32472520000E+005,  0.31637968144E+006,  0.16500000000E+002,  0.00000000000E+000,  0.10000000000E+001
  0.32472820000E+005,  0.33154984987E+006,  0.16500000000E+002,  0.00000000000E+000,  0.10000000000E+001
  0.32473120000E+005,  0.34667046877E+006,  0.16500000000E+002,  0.00000000000E+000,  0.10000000000E+001
  0.32473420000E+005,  0.36174197029E+006,  0.16500000000E+002,  0.00000000000E+000,  0.10000000000E+001
  0.32473720000E+005,  0.37676475056E+006,  0.16500000000E+002,  0.00000000000E+000,  0.10000000000E+001
  0.32474020000E+005,  0.39173919074E+006,  0.16500000000E+002,  0.00000000000E+000,  0.10000000000E+001
  0.32474320000E+005,  0.40666566471E+006,  0.16500000000E+002,  0.00000000000E+000,  0.10000000000E+001
  0.32474620000E+005,  0.42154454199E+006,  0.16500000000E+002,  0.00000000000E+000,  0.10000000000E+001
  0.32474920000E+005,  0.43637618859E+006,  0.16500000000E+002,  0.00000000000E+000,  0.10000000000E+001
  0.32475220000E+005,  0.45116096734E+006,  0.16500000000E+002,  0.00000000000E+000,  0.10000000000E+001
  0.32475520000E+005,  0.46589923804E+006,  0.16500000000E+002,  0.00000000000E+000,  0.10000000000E+001
  0.32475820000E+005,  0.48059135747E+006,  0.16500000000E+002,  0.00000000000E+000,  0.10000000000E+001
  0.32476120000E+005,  0.49523767930E+006,  0.16500000000E+002,  0.00000000000E+000,  0.10000000000E+001
  0.32476420000E+005,  0.50983853176E+006,  0.16500000000E+002,  0.00000000000E+000,  0.10000000000E+001
  0.32476720000E+005,  0.52439408526E+006,  0.16500000000E+002,  0.00000000000E+000,  0.10000000000E+001
  0.32477020000E+005,  0.53890459031E+006,  0.16500000000E+002,  0.00000000000E+000,  0.10000000000E+001
  0.32477320000E+005,  0.55337036121E+006,  0.16500000000E+002,  0.00000000000E+000,  0.10000000000E+001
  0.32477620000E+005,  0.56779028569E+006,  0.16500000000E+002,  0.00000000000E+000,  0.10000000000E+001
  0.32477920000E+005,  0.58216515414E+006,  0.16500000000E+002,  0.00000000000E+000,  0.10000000000E+001
  0.32478220000E+005,  0.59649348895E+006,  0.16500000000E+002,  0.00000000000E+000,  0.10000000000E+001
  0.32478520000E+005,  0.61077673513E+006,  0.16500000000E+002,  0.00000000000E+000,  0.10000000000E+001
  0.32478820000E+005,  0.62499256312E+006,  0.16500000000E+002,  0.00000000000E+000,  0.10000000000E+001
  0.32479120000E+005,  0.63916240785E+006,  0.16500000000E+002,  0.00000000000E+000,  0.10000000000E+001
  0.32479420000E+005,  0.65328840732E+006,  0.16500000000E+002,  0.00000000000E+000,  0.10000000000E+001
  0.32479720000E+005,  0.66738502857E+006,  0.16500000000E+002,  0.00000000000E+000,  0.10000000000E+001
  0.32480020000E+005,  0.68145068475E+006,  0.16500000000E+002,  0.00000000000E+000,  0.10000000000E+001
  0.32480320000E+005,  0.69547379479E+006,  0.16500000000E+002,  0.00000000000E+000,  0.10000000000E+001
  0.32480620000E+005,  0.71036026416E+006,  0.16500000000E+002,  0.00000000000E+000,  0.10000000000E+001
  0.32480920000E+005,  0.72885948907E+006,  0.16500000000E+002,  0.00000000000E+000,  0.10000000000E+001
  0.32481220000E+005,  0.74712811694E+006,  0.16500000000E+002,  0.00000000000E+000,  0.10000000000E+001
  0.32481520000E+005,  0.76529288444E+006,  0.16500000000E+002,  0.00000000000E+000,  0.10000000000E+001
  0.32481820000E+005,  0.91889878575E+006,  0.16500000000E+002,  0.00000000000E+000,  0.10000000000E+001
  0.32482120000E+005,  0.10873366871E+007,  0.16500000000E+002,  0.00000000000E+000,  0.10000000000E+001
  0.32482420000E+005,  0.12525571129E+007,  0.16500000000E+002,  0.00000000000E+000,  0.10000000000E+001
  0.32482720000E+005,  0.14164042723E+007,  0.16500000000E+002,  0.00000000000E+000,  0.10000000000E+001
  0.32483020000E+005,  0.15794092475E+007,  0.16500000000E+002,  0.00000000000E+000,  0.10000000000E+001
  0.32483320000E+005,  0.17417512320E+007,  0.16500000000E+002,  0.00000000000E+000,  0.10000000000E+001
  0.32483620000E+005,  0.19034967946E+007,  0.16500000000E+002,  0.00000000000E+000,  0.10000000000E+001
  0.32483920000E+005,  0.20646728001E+007,  0.16500000000E+002,  0.00000000000E+000,  0.10000000000E+001
  0.32484220000E+005,  0.22252917244E+007,  0.16500000000E+002,  0.00000000000E+000,  0.10000000000E+001
  0.32484520000E+005,  0.23853607956E+007,  0.16500000000E+002,  0.00000000000E+000,  0.10000000000E+001
  0.32484820000E+005,  0.25448853109E+007,  0.16500000000E+002,  0.00000000000E+000,  0.10000000000E+001
  0.32485120000E+005,  0.27038698483E+007,  0.16500000000E+002,  0.00000000000E+000,  0.10000000000E+001
  0.32485420000E+005,  0.28623187065E+007,  0.16500000000E+002,  0.00000000000E+000,  0.10000000000E+001
  0.32485720000E+005,  0.30202360637E+007,  0.16500000000E+002,  0.00000000000E+000,  0.10000000000E+001
  0.32486020000E+005,  0.31776260345E+007,  0.16500000000E+002,  0.00000000000E+000,  0.10000000000E+001
  0.32486320000E+005,  0.33344926910E+007,  0.16500000000E+002,  0.00000000000E+000,  0.10000000000E+001
  0.32486620000E+005,  0.34908400691E+007,  0.16500000000E+002,  0.00000000000E+000,  0.10000000000E+001
  0.32486920000E+005,  0.36466721711E+007,  0.16500000000E+002,  0.00000000000E+000,  0.10000000000E+001
  0.32487220000E+005,  0.38019929661E+007,  0.16500000000E+002,  0.00000000000E+000,  0.10000000000E+001
  0.32487520000E+005,  0.39568061549E+007,  0.16500000000E+002,  0.00000000000E+000,  0.10000000000E+001
  0.32487820000E+005,  0.41110976950E+007,  0.16500000000E+002,  0.00000000000E+000,  0.10000000000E+001
  0.32488120000E+005,  0.42648791076E+007,  0.16500000000E+002,  0.00000000000E+000,  0.10000000000E+001
  0.32488420000E+005,  0.44181372840E+007,  0.16500000000E+002,  0.00000000000E+000,  0.10000000000E+001
  0.32488720000E+005,  0.45708843330E+007,  0.16500000000E+002,  0.00000000000E+000,  0.10000000000E+001
  0.32489020000E+005,  0.47231314665E+007,  0.16500000000E+002,  0.00000000000E+000,  0.10000000000E+001
  0.32489320000E+005,  0.48748819301E+007,  0.16500000000E+002,  0.00000000000E+000,  0.10000000000E+001
  0.32489620000E+005,  0.50261314278E+007,  0.16500000000E+002,  0.00000000000E+000,  0.10000000000E+001
  0.32489920000E+005,  0.51768933780E+007,  0.16500000000E+002,  0.00000000000E+000,  0.10000000000E+001
  0.32490220000E+005,  0.53271731089E+007,  0.16500000000E+002,  0.00000000000E+000,  0.10000000000E+001
  0.32490520000E+005,  0.54769743535E+007,  0.16500000000E+002,  0.00000000000E+000,  0.10000000000E+001
  0.32490820000E+005,  0.56263008172E+007,  0.16500000000E+002,  0.00000000000E+000,  0.10000000000E+001
  0.32491120000E+005,  0.57751562788E+007,  0.16500000000E+002,  0.00000000000E+000,  0.10000000000E+001
  0.32491420000E+005,  0.59235445346E+007,  0.16500000000E+002,  0.00000000000E+000,  0.10000000000E+001
  0.32491720000E+005,  0.60714693603E+007,  0.16500000000E+002,  0.00000000000E+000,  0.10000000000E+001
  0.32492020000E+005,  0.62189344933E+007,  0.16500000000E+002,  0.00000000000E+000,  0.10000000000E+001
  0.32492320000E+005,  0.63659436265E+007,  0.16500000000E+002,  0.00000000000E+000,  0.10000000000E+001
  0.32492620000E+005,  0.65125004063E+007,  0.16500000000E+002,  0.00000000000E+000,  0.10000000000E+001
  0.32492920000E+005,  0.66586084325E+007,  0.16500000000E+002,  0.00000000000E+000,  0.10000000000E+001
  0.32493220000E+005,  0.68042712586E+007,  0.16500000000E+002,  0.00000000000E+000,  0.10000000000E+001
  0.32493520000E+005,  0.69494923923E+007,  0.16500000000E+002,  0.00000000000E+000,  0.10000000000E+001
  0.32493820000E+005,  0.70942752967E+007,  0.16500000000E+002,  0.00000000000E+000,  0.10000000000E+001
  0.32494120000E+005,  0.72386233905E+007,  0.16500000000E+002,  0.00000000000E+000,  0.10000000000E+001
  0.32494420000E+005,  0.73825400492E+007,  0.16500000000E+002,  0.00000000000E+000,  0.10000000000E+001
  0.32494720000E+005,  0.75260286057E+007,  0.16500000000E+002,  0.00000000000E+000,  0.10000000000E+001
  0.32495020000E+005,  0.76690923506E+007,  0.16500000000E+002,  0.00000000000E+000,  0.10000000000E+001
  0.32495320000E+005,  0.78117345339E+007,  0.16500000000E+002,  0.00000000000E+000,  0.10000000000E+001
  0.32495620000E+005,  0.79539583646E+007,  0.16500000000E+002,  0.00000000000E+000,  0.10000000000E+001
  0.32495920000E+005,  0.80957670120E+007,  0.16500000000E+002,  0.00000000000E+000,  0.10000000000E+001
  0.32496220000E+005,  0.82371628019E+007,  0.16500000000E+002,  0.00000000000E+000,  0.10000000000E+001
  0.32496520000E+005,  0.83781208333E+007,  0.16500000000E+002,  0.00000000000E+000,  0.10000000000E+001
  0.32496820000E+005,  0.85186565434E+007,  0.16500000000E+002,  0.00000000000E+000,  0.10000000000E+001
  0.32497120000E+005,  0.86587826712E+007,  0.16500000000E+002,  0.00000000000E+000,  0.10000000000E+001
  0.32497420000E+005,  0.87985057323E+007,  0.16500000000E+002,  0.00000000000E+000,  0.10000000000E+001
  0.32497720000E+005,  0.89378299467E+007,  0.16500000000E+002,  0.00000000000E+000,  0.10000000000E+001
  0.32498020000E+005,  0.90767587157E+007,  0.16500000000E+002,  0.00000000000E+000,  0.10000000000E+001
  0.32498320000E+005,  0.92152951232E+007,  0.16500000000E+002,  0.00000000000E+000,  0.10000000000E+001
  0.32498620000E+005,  0.93534421129E+007,  0.16500000000E+002,  0.00000000000E+000,  0.10000000000E+001
  0.32498920000E+005,  0.94912025549E+007,  0.16500000000E+002,  0.00000000000E+000,  0.10000000000E+001
  0.32499220000E+005,  0.96285792702E+007,  0.16500000000E+002,  0.00000000000E+000,  0.10000000000E+001
  0.32499520000E+005,  0.97655748861E+007,  0.16500000000E+002,  0.00000000000E+000,  0.10000000000E+001
  0.32499820000E+005,  0.99021920410E+007,  0.16500000000E+002,  0.00000000000E+000,  0.10000000000E+001
  0.32500000000E+005,  0.99840224442E+007,  0.16500000000E+002,  0.00000000000E+000,  0.10000000000E+001
