"           TIME(S)","              PRES","              TEMP","             SAT_G","             SAT_L"
  0.94908000000E+005,  0.22659552202E+006,  0.16500000000E+002,  0.00000000000E+000,  0.10000000000E+001
  0.95058000000E+005,  0.22690680883E+006,  0.16500000000E+002,  0.00000000000E+000,  0.10000000000E+001
  0.95338000000E+005,  0.22895524063E+006,  0.16500000000E+002,  0.00000000000E+000,  0.10000000000E+001
  0.95618000000E+005,  0.23223158456E+006,  0.16500000000E+002,  0.00000000000E+000,  0.10000000000E+001
  0.95898000000E+005,  0.23644821229E+006,  0.16500000000E+002,  0.00000000000E+000,  0.10000000000E+001
  0.96178000000E+005,  0.24136583472E+006,  0.16500000000E+002,  0.00000000000E+000,  0.10000000000E+001
  0.96194400000E+005,  0.24165622272E+006,  0.16500000000E+002,  0.00000000000E+000,  0.10000000000E+001
  0.96474400000E+005,  0.24712950727E+006,  0.16500000000E+002,  0.00000000000E+000,  0.10000000000E+001
  0.96754400000E+005,  0.25299879858E+006,  0.16500000000E+002,  0.00000000000E+000,  0.10000000000E+001
  0.97034400000E+005,  0.25917466097E+006,  0.16500000000E+002,  0.00000000000E+000,  0.10000000000E+001
  0.97314400000E+005,  0.26558742257E+006,  0.16500000000E+002,  0.00000000000E+000,  0.10000000000E+001
  0.97510800000E+005,  0.27018176438E+006,  0.16500000000E+002,  0.00000000000E+000,  0.10000000000E+001
  0.97790800000E+005,  0.27688013874E+006,  0.16500000000E+002,  0.00000000000E+000,  0.10000000000E+001
  0.98070800000E+005,  0.28368859255E+006,  0.16500000000E+002,  0.00000000000E+000,  0.10000000000E+001
  0.98350800000E+005,  0.29057579577E+006,  0.16500000000E+002,  0.00000000000E+000,  0.10000000000E+001
  0.98630800000E+005,  0.29751594865E+006,  0.16500000000E+002,  0.00000000000E+000,  0.10000000000E+001
  0.98827200000E+005,  0.30240225173E+006,  0.16500000000E+002,  0.00000000000E+000,  0.10000000000E+001
  0.99107200000E+005,  0.30938691888E+006,  0.16500000000E+002,  0.00000000000E+000,  0.10000000000E+001
  0.99387200000E+005,  0.31637438907E+006,  0.16500000000E+002,  0.00000000000E+000,  0.10000000000E+001
  0.99667200000E+005,  0.32335153698E+006,  0.16500000000E+002,  0.00000000000E+000,  0.10000000000E+001
  0.99947200000E+005,  0.33027272327E+006,  0.16500000000E+002,  0.00000000000E+000,  0.10000000000E+001
  0.10014300000E+006,  0.33505708901E+006,  0.16500000000E+002,  0.00000000000E+000,  0.10000000000E+001
  0.10042300000E+006,  0.34177745619E+006,  0.16500000000E+002,  0.00000000000E+000,  0.10000000000E+001
  0.10070300000E+006,  0.34838714680E+006,  0.16500000000E+002,  0.00000000000E+000,  0.10000000000E+001
  0.10098300000E+006,  0.35489627937E+006,  0.16500000000E+002,  0.00000000000E+000,  0.10000000000E+001
  0.10126300000E+006,  0.36131194926E+006,  0.16500000000E+002,  0.00000000000E+000,  0.10000000000E+001
  0.10146000000E+006,  0.36578139870E+006,  0.16500000000E+002,  0.00000000000E+000,  0.10000000000E+001
  0.10174000000E+006,  0.37204771851E+006,  0.16500000000E+002,  0.00000000000E+000,  0.10000000000E+001
  0.10202000000E+006,  0.37823632759E+006,  0.16500000000E+002,  0.00000000000E+000,  0.10000000000E+001
  0.10230000000E+006,  0.38442767187E+006,  0.16500000000E+002,  0.00000000000E+000,  0.10000000000E+001
  0.10258000000E+006,  0.39062446755E+006,  0.16500000000E+002,  0.00000000000E+000,  0.10000000000E+001
  0.10277600000E+006,  0.39495913198E+006,  0.16500000000E+002,  0.00000000000E+000,  0.10000000000E+001
  0.10305600000E+006,  0.40112845315E+006,  0.16500000000E+002,  0.00000000000E+000,  0.10000000000E+001
  0.10333600000E+006,  0.40726201129E+006,  0.16500000000E+002,  0.00000000000E+000,  0.10000000000E+001
  0.10361600000E+006,  0.41335050170E+006,  0.16500000000E+002,  0.00000000000E+000,  0.10000000000E+001
  0.10389600000E+006,  0.41938704267E+006,  0.16500000000E+002,  0.00000000000E+000,  0.10000000000E+001
  0.10409200000E+006,  0.42358525302E+006,  0.16500000000E+002,  0.00000000000E+000,  0.10000000000E+001
  0.10437200000E+006,  0.42952263559E+006,  0.16500000000E+002,  0.00000000000E+000,  0.10000000000E+001
  0.10465200000E+006,  0.43539674528E+006,  0.16500000000E+002,  0.00000000000E+000,  0.10000000000E+001
  0.10493200000E+006,  0.44120514390E+006,  0.16500000000E+002,  0.00000000000E+000,  0.10000000000E+001
  0.10521200000E+006,  0.44694599469E+006,  0.16500000000E+002,  0.00000000000E+000,  0.10000000000E+001
  0.10540900000E+006,  0.45095113855E+006,  0.16500000000E+002,  0.00000000000E+000,  0.10000000000E+001
  0.10568900000E+006,  0.45657407074E+006,  0.16500000000E+002,  0.00000000000E+000,  0.10000000000E+001
  0.10596900000E+006,  0.46212660009E+006,  0.16500000000E+002,  0.00000000000E+000,  0.10000000000E+001
  0.10624900000E+006,  0.46760825647E+006,  0.16500000000E+002,  0.00000000000E+000,  0.10000000000E+001
  0.10652900000E+006,  0.47301879411E+006,  0.16500000000E+002,  0.00000000000E+000,  0.10000000000E+001
  0.10672500000E+006,  0.47677128310E+006,  0.16500000000E+002,  0.00000000000E+000,  0.10000000000E+001
  0.10700500000E+006,  0.48206084577E+006,  0.16500000000E+002,  0.00000000000E+000,  0.10000000000E+001
  0.10728500000E+006,  0.48727946305E+006,  0.16500000000E+002,  0.00000000000E+000,  0.10000000000E+001
  0.10756500000E+006,  0.49242744446E+006,  0.16500000000E+002,  0.00000000000E+000,  0.10000000000E+001
  0.10784500000E+006,  0.49750519758E+006,  0.16500000000E+002,  0.00000000000E+000,  0.10000000000E+001
  0.10804200000E+006,  0.50104311753E+006,  0.16500000000E+002,  0.00000000000E+000,  0.10000000000E+001
  0.10832200000E+006,  0.50600187972E+006,  0.16500000000E+002,  0.00000000000E+000,  0.10000000000E+001
  0.10860200000E+006,  0.51089149796E+006,  0.16500000000E+002,  0.00000000000E+000,  0.10000000000E+001
  0.10888200000E+006,  0.51571271318E+006,  0.16500000000E+002,  0.00000000000E+000,  0.10000000000E+001
  0.10916200000E+006,  0.52046630246E+006,  0.16500000000E+002,  0.00000000000E+000,  0.10000000000E+001
  0.10935800000E+006,  0.52376094809E+006,  0.16500000000E+002,  0.00000000000E+000,  0.10000000000E+001
  0.10963800000E+006,  0.52840132397E+006,  0.16500000000E+002,  0.00000000000E+000,  0.10000000000E+001
  0.10991800000E+006,  0.53297626253E+006,  0.16500000000E+002,  0.00000000000E+000,  0.10000000000E+001
  0.11019800000E+006,  0.53642469018E+006,  0.16500000000E+002,  0.00000000000E+000,  0.10000000000E+001
  0.11047800000E+006,  0.53847869463E+006,  0.16500000000E+002,  0.00000000000E+000,  0.10000000000E+001
  0.11067500000E+006,  0.53930085288E+006,  0.16500000000E+002,  0.00000000000E+000,  0.10000000000E+001
  0.11095500000E+006,  0.53948539728E+006,  0.16500000000E+002,  0.00000000000E+000,  0.10000000000E+001
  0.11123500000E+006,  0.53890733209E+006,  0.16500000000E+002,  0.00000000000E+000,  0.10000000000E+001
  0.11151500000E+006,  0.53773185845E+006,  0.16500000000E+002,  0.00000000000E+000,  0.10000000000E+001
  0.11179500000E+006,  0.53608284101E+006,  0.16500000000E+002,  0.00000000000E+000,  0.10000000000E+001
  0.11199100000E+006,  0.53473132663E+006,  0.16500000000E+002,  0.00000000000E+000,  0.10000000000E+001
  0.11227100000E+006,  0.53247704576E+006,  0.16500000000E+002,  0.00000000000E+000,  0.10000000000E+001
  0.11255100000E+006,  0.52996160465E+006,  0.16500000000E+002,  0.00000000000E+000,  0.10000000000E+001
  0.11283100000E+006,  0.52723502490E+006,  0.16500000000E+002,  0.00000000000E+000,  0.10000000000E+001
  0.11311100000E+006,  0.52433788992E+006,  0.16500000000E+002,  0.00000000000E+000,  0.10000000000E+001
  0.11330700000E+006,  0.52223836014E+006,  0.16500000000E+002,  0.00000000000E+000,  0.10000000000E+001
  0.11358700000E+006,  0.51912197764E+006,  0.16500000000E+002,  0.00000000000E+000,  0.10000000000E+001
  0.11386700000E+006,  0.51591257280E+006,  0.16500000000E+002,  0.00000000000E+000,  0.10000000000E+001
  0.11414700000E+006,  0.51263024080E+006,  0.16500000000E+002,  0.00000000000E+000,  0.10000000000E+001
  0.11442700000E+006,  0.50929188456E+006,  0.16500000000E+002,  0.00000000000E+000,  0.10000000000E+001
  0.11462400000E+006,  0.50692059086E+006,  0.16500000000E+002,  0.00000000000E+000,  0.10000000000E+001
  0.11490400000E+006,  0.50351743119E+006,  0.16500000000E+002,  0.00000000000E+000,  0.10000000000E+001
  0.11518400000E+006,  0.50009230478E+006,  0.16500000000E+002,  0.00000000000E+000,  0.10000000000E+001
