"           TIME(S)","              PRES","              TEMP","             SAT_G","             SAT_L"
  0.47568000000E+005,  0.86728379525E+007,  0.16500000000E+002,  0.00000000000E+000,  0.10000000000E+001
  0.47573000000E+005,  0.68477643077E+007,  0.16500000000E+002,  0.00000000000E+000,  0.10000000000E+001
  0.47598000000E+005,  0.51675800335E+007,  0.16500000000E+002,  0.00000000000E+000,  0.10000000000E+001
  0.47658000000E+005,  0.43975027292E+007,  0.16500000000E+002,  0.00000000000E+000,  0.10000000000E+001
  0.47718000000E+005,  0.40775013944E+007,  0.16500000000E+002,  0.00000000000E+000,  0.10000000000E+001
  0.47778000000E+005,  0.38833709560E+007,  0.16500000000E+002,  0.00000000000E+000,  0.10000000000E+001
  0.47838000000E+005,  0.37432051247E+007,  0.16500000000E+002,  0.00000000000E+000,  0.10000000000E+001
  0.47898000000E+005,  0.36328351410E+007,  0.16500000000E+002,  0.00000000000E+000,  0.10000000000E+001
  0.47958000000E+005,  0.35415297009E+007,  0.16500000000E+002,  0.00000000000E+000,  0.10000000000E+001
  0.48018000000E+005,  0.34630421090E+007,  0.16500000000E+002,  0.00000000000E+000,  0.10000000000E+001
  0.48078000000E+005,  0.33936201030E+007,  0.16500000000E+002,  0.00000000000E+000,  0.10000000000E+001
  0.48138000000E+005,  0.33327950108E+007,  0.16500000000E+002,  0.00000000000E+000,  0.10000000000E+001
  0.48198000000E+005,  0.32782088451E+007,  0.16500000000E+002,  0.00000000000E+000,  0.10000000000E+001
  0.48258000000E+005,  0.32286304710E+007,  0.16500000000E+002,  0.00000000000E+000,  0.10000000000E+001
  0.48318000000E+005,  0.31831944038E+007,  0.16500000000E+002,  0.00000000000E+000,  0.10000000000E+001
  0.48378000000E+005,  0.31412502422E+007,  0.16500000000E+002,  0.00000000000E+000,  0.10000000000E+001
  0.48438000000E+005,  0.31022924377E+007,  0.16500000000E+002,  0.00000000000E+000,  0.10000000000E+001
  0.48498000000E+005,  0.30659196907E+007,  0.16500000000E+002,  0.00000000000E+000,  0.10000000000E+001
  0.48558000000E+005,  0.30318077329E+007,  0.16500000000E+002,  0.00000000000E+000,  0.10000000000E+001
  0.48618000000E+005,  0.29996904013E+007,  0.16500000000E+002,  0.00000000000E+000,  0.10000000000E+001
  0.48678000000E+005,  0.29693466192E+007,  0.16500000000E+002,  0.00000000000E+000,  0.10000000000E+001
  0.48738000000E+005,  0.29405905100E+007,  0.16500000000E+002,  0.00000000000E+000,  0.10000000000E+001
  0.48798000000E+005,  0.29132642638E+007,  0.16500000000E+002,  0.00000000000E+000,  0.10000000000E+001
  0.48858000000E+005,  0.28872327505E+007,  0.16500000000E+002,  0.00000000000E+000,  0.10000000000E+001
  0.48918000000E+005,  0.28623791940E+007,  0.16500000000E+002,  0.00000000000E+000,  0.10000000000E+001
  0.48978000000E+005,  0.28386021372E+007,  0.16500000000E+002,  0.00000000000E+000,  0.10000000000E+001
  0.49038000000E+005,  0.28158126256E+007,  0.16500000000E+002,  0.00000000000E+000,  0.10000000000E+001
  0.49098000000E+005,  0.27939324025E+007,  0.16500000000E+002,  0.00000000000E+000,  0.10000000000E+001
  0.49158000000E+005,  0.27728922066E+007,  0.16500000000E+002,  0.00000000000E+000,  0.10000000000E+001
  0.49218000000E+005,  0.27526303713E+007,  0.16500000000E+002,  0.00000000000E+000,  0.10000000000E+001
  0.49278000000E+005,  0.27330918362E+007,  0.16500000000E+002,  0.00000000000E+000,  0.10000000000E+001
  0.49338000000E+005,  0.27142271670E+007,  0.16500000000E+002,  0.00000000000E+000,  0.10000000000E+001
  0.49398000000E+005,  0.26959918186E+007,  0.16500000000E+002,  0.00000000000E+000,  0.10000000000E+001
  0.49458000000E+005,  0.26783455388E+007,  0.16500000000E+002,  0.00000000000E+000,  0.10000000000E+001
  0.49518000000E+005,  0.26612518342E+007,  0.16500000000E+002,  0.00000000000E+000,  0.10000000000E+001
  0.49578000000E+005,  0.26446774703E+007,  0.16500000000E+002,  0.00000000000E+000,  0.10000000000E+001
  0.49638000000E+005,  0.26285921267E+007,  0.16500000000E+002,  0.00000000000E+000,  0.10000000000E+001
  0.49698000000E+005,  0.26129680942E+007,  0.16500000000E+002,  0.00000000000E+000,  0.10000000000E+001
  0.49758000000E+005,  0.25977799211E+007,  0.16500000000E+002,  0.00000000000E+000,  0.10000000000E+001
  0.49818000000E+005,  0.25830042130E+007,  0.16500000000E+002,  0.00000000000E+000,  0.10000000000E+001
  0.49878000000E+005,  0.25686194118E+007,  0.16500000000E+002,  0.00000000000E+000,  0.10000000000E+001
  0.49938000000E+005,  0.25546055974E+007,  0.16500000000E+002,  0.00000000000E+000,  0.10000000000E+001
  0.49998000000E+005,  0.25409443507E+007,  0.16500000000E+002,  0.00000000000E+000,  0.10000000000E+001
  0.50058000000E+005,  0.25276185822E+007,  0.16500000000E+002,  0.00000000000E+000,  0.10000000000E+001
  0.50118000000E+005,  0.25146124249E+007,  0.16500000000E+002,  0.00000000000E+000,  0.10000000000E+001
  0.50178000000E+005,  0.25019110918E+007,  0.16500000000E+002,  0.00000000000E+000,  0.10000000000E+001
  0.50238000000E+005,  0.24895008247E+007,  0.16500000000E+002,  0.00000000000E+000,  0.10000000000E+001
  0.50298000000E+005,  0.24773687507E+007,  0.16500000000E+002,  0.00000000000E+000,  0.10000000000E+001
  0.50358000000E+005,  0.24655028352E+007,  0.16500000000E+002,  0.00000000000E+000,  0.10000000000E+001
  0.50418000000E+005,  0.24538918296E+007,  0.16500000000E+002,  0.00000000000E+000,  0.10000000000E+001
  0.50478000000E+005,  0.24425251734E+007,  0.16500000000E+002,  0.00000000000E+000,  0.10000000000E+001
  0.50538000000E+005,  0.24313929320E+007,  0.16500000000E+002,  0.00000000000E+000,  0.10000000000E+001
  0.50598000000E+005,  0.24204857936E+007,  0.16500000000E+002,  0.00000000000E+000,  0.10000000000E+001
  0.50658000000E+005,  0.24097949617E+007,  0.16500000000E+002,  0.00000000000E+000,  0.10000000000E+001
  0.50718000000E+005,  0.23993121765E+007,  0.16500000000E+002,  0.00000000000E+000,  0.10000000000E+001
  0.50778000000E+005,  0.23890296111E+007,  0.16500000000E+002,  0.00000000000E+000,  0.10000000000E+001
  0.50838000000E+005,  0.23789398968E+007,  0.16500000000E+002,  0.00000000000E+000,  0.10000000000E+001
  0.50898000000E+005,  0.23690360455E+007,  0.16500000000E+002,  0.00000000000E+000,  0.10000000000E+001
  0.50958000000E+005,  0.23593114611E+007,  0.16500000000E+002,  0.00000000000E+000,  0.10000000000E+001
  0.51018000000E+005,  0.23497598727E+007,  0.16500000000E+002,  0.00000000000E+000,  0.10000000000E+001
  0.51078000000E+005,  0.23403753494E+007,  0.16500000000E+002,  0.00000000000E+000,  0.10000000000E+001
  0.51138000000E+005,  0.23311522516E+007,  0.16500000000E+002,  0.00000000000E+000,  0.10000000000E+001
  0.51198000000E+005,  0.23220852137E+007,  0.16500000000E+002,  0.00000000000E+000,  0.10000000000E+001
  0.51258000000E+005,  0.23131691572E+007,  0.16500000000E+002,  0.00000000000E+000,  0.10000000000E+001
  0.51318000000E+005,  0.23043992199E+007,  0.16500000000E+002,  0.00000000000E+000,  0.10000000000E+001
  0.51378000000E+005,  0.22957707837E+007,  0.16500000000E+002,  0.00000000000E+000,  0.10000000000E+001
  0.51438000000E+005,  0.22872794474E+007,  0.16500000000E+002,  0.00000000000E+000,  0.10000000000E+001
  0.51498000000E+005,  0.22789210058E+007,  0.16500000000E+002,  0.00000000000E+000,  0.10000000000E+001
  0.51558000000E+005,  0.22706914401E+007,  0.16500000000E+002,  0.00000000000E+000,  0.10000000000E+001
  0.51618000000E+005,  0.22625869244E+007,  0.16500000000E+002,  0.00000000000E+000,  0.10000000000E+001
  0.51678000000E+005,  0.22546037923E+007,  0.16500000000E+002,  0.00000000000E+000,  0.10000000000E+001
  0.51738000000E+005,  0.22467385325E+007,  0.16500000000E+002,  0.00000000000E+000,  0.10000000000E+001
  0.51798000000E+005,  0.22389877883E+007,  0.16500000000E+002,  0.00000000000E+000,  0.10000000000E+001
  0.51858000000E+005,  0.22313483482E+007,  0.16500000000E+002,  0.00000000000E+000,  0.10000000000E+001
  0.51918000000E+005,  0.22238171242E+007,  0.16500000000E+002,  0.00000000000E+000,  0.10000000000E+001
  0.51978000000E+005,  0.22163911524E+007,  0.16500000000E+002,  0.00000000000E+000,  0.10000000000E+001
  0.52038000000E+005,  0.22090675992E+007,  0.16500000000E+002,  0.00000000000E+000,  0.10000000000E+001
  0.52098000000E+005,  0.22018437436E+007,  0.16500000000E+002,  0.00000000000E+000,  0.10000000000E+001
  0.52158000000E+005,  0.21947169593E+007,  0.16500000000E+002,  0.00000000000E+000,  0.10000000000E+001
  0.52218000000E+005,  0.21876847358E+007,  0.16500000000E+002,  0.00000000000E+000,  0.10000000000E+001
  0.52278000000E+005,  0.21807446502E+007,  0.16500000000E+002,  0.00000000000E+000,  0.10000000000E+001
  0.52338000000E+005,  0.21738943684E+007,  0.16500000000E+002,  0.00000000000E+000,  0.10000000000E+001
  0.52398000000E+005,  0.21671316502E+007,  0.16500000000E+002,  0.00000000000E+000,  0.10000000000E+001
  0.52458000000E+005,  0.21604543397E+007,  0.16500000000E+002,  0.00000000000E+000,  0.10000000000E+001
  0.52518000000E+005,  0.21538603541E+007,  0.16500000000E+002,  0.00000000000E+000,  0.10000000000E+001
  0.52578000000E+005,  0.21473476845E+007,  0.16500000000E+002,  0.00000000000E+000,  0.10000000000E+001
  0.52638000000E+005,  0.21409143980E+007,  0.16500000000E+002,  0.00000000000E+000,  0.10000000000E+001
  0.52698000000E+005,  0.21345586309E+007,  0.16500000000E+002,  0.00000000000E+000,  0.10000000000E+001
  0.52758000000E+005,  0.21282785760E+007,  0.16500000000E+002,  0.00000000000E+000,  0.10000000000E+001
  0.52818000000E+005,  0.21220724989E+007,  0.16500000000E+002,  0.00000000000E+000,  0.10000000000E+001
  0.52878000000E+005,  0.21159387166E+007,  0.16500000000E+002,  0.00000000000E+000,  0.10000000000E+001
  0.52938000000E+005,  0.21098756074E+007,  0.16500000000E+002,  0.00000000000E+000,  0.10000000000E+001
  0.52998000000E+005,  0.21038815960E+007,  0.16500000000E+002,  0.00000000000E+000,  0.10000000000E+001
  0.53058000000E+005,  0.20979551707E+007,  0.16500000000E+002,  0.00000000000E+000,  0.10000000000E+001
  0.53118000000E+005,  0.20920948599E+007,  0.16500000000E+002,  0.00000000000E+000,  0.10000000000E+001
  0.53178000000E+005,  0.20862992384E+007,  0.16500000000E+002,  0.00000000000E+000,  0.10000000000E+001
  0.53238000000E+005,  0.20805669366E+007,  0.16500000000E+002,  0.00000000000E+000,  0.10000000000E+001
  0.53298000000E+005,  0.20748966209E+007,  0.16500000000E+002,  0.00000000000E+000,  0.10000000000E+001
  0.53358000000E+005,  0.20692869989E+007,  0.16500000000E+002,  0.00000000000E+000,  0.10000000000E+001
  0.53418000000E+005,  0.20637368199E+007,  0.16500000000E+002,  0.00000000000E+000,  0.10000000000E+001
  0.53478000000E+005,  0.20582448707E+007,  0.16500000000E+002,  0.00000000000E+000,  0.10000000000E+001
  0.53538000000E+005,  0.20528099768E+007,  0.16500000000E+002,  0.00000000000E+000,  0.10000000000E+001
  0.53598000000E+005,  0.20474309952E+007,  0.16500000000E+002,  0.00000000000E+000,  0.10000000000E+001
  0.53658000000E+005,  0.20421068261E+007,  0.16500000000E+002,  0.00000000000E+000,  0.10000000000E+001
  0.53718000000E+005,  0.20368363885E+007,  0.16500000000E+002,  0.00000000000E+000,  0.10000000000E+001
  0.53778000000E+005,  0.20316186453E+007,  0.16500000000E+002,  0.00000000000E+000,  0.10000000000E+001
  0.53838000000E+005,  0.20264525851E+007,  0.16500000000E+002,  0.00000000000E+000,  0.10000000000E+001
  0.53898000000E+005,  0.20213372211E+007,  0.16500000000E+002,  0.00000000000E+000,  0.10000000000E+001
  0.53958000000E+005,  0.20162715985E+007,  0.16500000000E+002,  0.00000000000E+000,  0.10000000000E+001
  0.54018000000E+005,  0.20117890431E+007,  0.16500000000E+002,  0.00000000000E+000,  0.10000000000E+001
  0.54078000000E+005,  0.20081992046E+007,  0.16500000000E+002,  0.00000000000E+000,  0.10000000000E+001
  0.54138000000E+005,  0.20036533827E+007,  0.16500000000E+002,  0.00000000000E+000,  0.10000000000E+001
  0.54198000000E+005,  0.19989789105E+007,  0.16500000000E+002,  0.00000000000E+000,  0.10000000000E+001
  0.54258000000E+005,  0.19942877745E+007,  0.16500000000E+002,  0.00000000000E+000,  0.10000000000E+001
  0.54318000000E+005,  0.19896097007E+007,  0.16500000000E+002,  0.00000000000E+000,  0.10000000000E+001
  0.54378000000E+005,  0.19849560379E+007,  0.16500000000E+002,  0.00000000000E+000,  0.10000000000E+001
  0.54438000000E+005,  0.19803321137E+007,  0.16500000000E+002,  0.00000000000E+000,  0.10000000000E+001
  0.54498000000E+005,  0.19757407358E+007,  0.16500000000E+002,  0.00000000000E+000,  0.10000000000E+001
  0.54558000000E+005,  0.19711834506E+007,  0.16500000000E+002,  0.00000000000E+000,  0.10000000000E+001
  0.54618000000E+005,  0.19666611015E+007,  0.16500000000E+002,  0.00000000000E+000,  0.10000000000E+001
  0.54678000000E+005,  0.19621741098E+007,  0.16500000000E+002,  0.00000000000E+000,  0.10000000000E+001
  0.54738000000E+005,  0.19577226224E+007,  0.16500000000E+002,  0.00000000000E+000,  0.10000000000E+001
  0.54798000000E+005,  0.19533066088E+007,  0.16500000000E+002,  0.00000000000E+000,  0.10000000000E+001
  0.54858000000E+005,  0.19489259192E+007,  0.16500000000E+002,  0.00000000000E+000,  0.10000000000E+001
  0.54918000000E+005,  0.19445803161E+007,  0.16500000000E+002,  0.00000000000E+000,  0.10000000000E+001
  0.54978000000E+005,  0.19402695090E+007,  0.16500000000E+002,  0.00000000000E+000,  0.10000000000E+001
  0.55038000000E+005,  0.19359931617E+007,  0.16500000000E+002,  0.00000000000E+000,  0.10000000000E+001
  0.55098000000E+005,  0.19317509109E+007,  0.16500000000E+002,  0.00000000000E+000,  0.10000000000E+001
  0.55158000000E+005,  0.19275423726E+007,  0.16500000000E+002,  0.00000000000E+000,  0.10000000000E+001
  0.55218000000E+005,  0.19233671501E+007,  0.16500000000E+002,  0.00000000000E+000,  0.10000000000E+001
  0.55278000000E+005,  0.19192248372E+007,  0.16500000000E+002,  0.00000000000E+000,  0.10000000000E+001
  0.55338000000E+005,  0.19151150255E+007,  0.16500000000E+002,  0.00000000000E+000,  0.10000000000E+001
  0.55398000000E+005,  0.19110373010E+007,  0.16500000000E+002,  0.00000000000E+000,  0.10000000000E+001
  0.55458000000E+005,  0.19069912490E+007,  0.16500000000E+002,  0.00000000000E+000,  0.10000000000E+001
  0.55518000000E+005,  0.19029764593E+007,  0.16500000000E+002,  0.00000000000E+000,  0.10000000000E+001
  0.55578000000E+005,  0.18989925252E+007,  0.16500000000E+002,  0.00000000000E+000,  0.10000000000E+001
  0.55638000000E+005,  0.18950390387E+007,  0.16500000000E+002,  0.00000000000E+000,  0.10000000000E+001
  0.55698000000E+005,  0.18911155993E+007,  0.16500000000E+002,  0.00000000000E+000,  0.10000000000E+001
  0.55758000000E+005,  0.18872218132E+007,  0.16500000000E+002,  0.00000000000E+000,  0.10000000000E+001
  0.55818000000E+005,  0.18833572876E+007,  0.16500000000E+002,  0.00000000000E+000,  0.10000000000E+001
  0.55878000000E+005,  0.18795216374E+007,  0.16500000000E+002,  0.00000000000E+000,  0.10000000000E+001
  0.55938000000E+005,  0.18757144850E+007,  0.16500000000E+002,  0.00000000000E+000,  0.10000000000E+001
  0.55998000000E+005,  0.18719354547E+007,  0.16500000000E+002,  0.00000000000E+000,  0.10000000000E+001
  0.56058000000E+005,  0.18681841821E+007,  0.16500000000E+002,  0.00000000000E+000,  0.10000000000E+001
  0.56118000000E+005,  0.18644603041E+007,  0.16500000000E+002,  0.00000000000E+000,  0.10000000000E+001
  0.56178000000E+005,  0.18607634664E+007,  0.16500000000E+002,  0.00000000000E+000,  0.10000000000E+001
  0.56238000000E+005,  0.18570933206E+007,  0.16500000000E+002,  0.00000000000E+000,  0.10000000000E+001
  0.56298000000E+005,  0.18534495233E+007,  0.16500000000E+002,  0.00000000000E+000,  0.10000000000E+001
  0.56358000000E+005,  0.18498317405E+007,  0.16500000000E+002,  0.00000000000E+000,  0.10000000000E+001
  0.56418000000E+005,  0.18462396389E+007,  0.16500000000E+002,  0.00000000000E+000,  0.10000000000E+001
  0.56478000000E+005,  0.18426728969E+007,  0.16500000000E+002,  0.00000000000E+000,  0.10000000000E+001
  0.56538000000E+005,  0.18391311940E+007,  0.16500000000E+002,  0.00000000000E+000,  0.10000000000E+001
  0.56598000000E+005,  0.18356142192E+007,  0.16500000000E+002,  0.00000000000E+000,  0.10000000000E+001
  0.56658000000E+005,  0.18321216649E+007,  0.16500000000E+002,  0.00000000000E+000,  0.10000000000E+001
  0.56718000000E+005,  0.18286532302E+007,  0.16500000000E+002,  0.00000000000E+000,  0.10000000000E+001
  0.56778000000E+005,  0.18252086203E+007,  0.16500000000E+002,  0.00000000000E+000,  0.10000000000E+001
  0.56838000000E+005,  0.18217875439E+007,  0.16500000000E+002,  0.00000000000E+000,  0.10000000000E+001
  0.56898000000E+005,  0.18183897163E+007,  0.16500000000E+002,  0.00000000000E+000,  0.10000000000E+001
  0.56958000000E+005,  0.18150148572E+007,  0.16500000000E+002,  0.00000000000E+000,  0.10000000000E+001
  0.57018000000E+005,  0.18116626946E+007,  0.16500000000E+002,  0.00000000000E+000,  0.10000000000E+001
  0.57078000000E+005,  0.18083329566E+007,  0.16500000000E+002,  0.00000000000E+000,  0.10000000000E+001
  0.57138000000E+005,  0.18050253806E+007,  0.16500000000E+002,  0.00000000000E+000,  0.10000000000E+001
  0.57198000000E+005,  0.18017397054E+007,  0.16500000000E+002,  0.00000000000E+000,  0.10000000000E+001
  0.57258000000E+005,  0.17984756774E+007,  0.16500000000E+002,  0.00000000000E+000,  0.10000000000E+001
  0.57318000000E+005,  0.17952330461E+007,  0.16500000000E+002,  0.00000000000E+000,  0.10000000000E+001
  0.57378000000E+005,  0.17920115646E+007,  0.16500000000E+002,  0.00000000000E+000,  0.10000000000E+001
  0.57438000000E+005,  0.17888109931E+007,  0.16500000000E+002,  0.00000000000E+000,  0.10000000000E+001
  0.57498000000E+005,  0.17856310937E+007,  0.16500000000E+002,  0.00000000000E+000,  0.10000000000E+001
  0.57558000000E+005,  0.17824716335E+007,  0.16500000000E+002,  0.00000000000E+000,  0.10000000000E+001
  0.57618000000E+005,  0.17793323843E+007,  0.16500000000E+002,  0.00000000000E+000,  0.10000000000E+001
  0.57678000000E+005,  0.17762131216E+007,  0.16500000000E+002,  0.00000000000E+000,  0.10000000000E+001
  0.57738000000E+005,  0.17731136239E+007,  0.16500000000E+002,  0.00000000000E+000,  0.10000000000E+001
  0.57798000000E+005,  0.17700336754E+007,  0.16500000000E+002,  0.00000000000E+000,  0.10000000000E+001
  0.57858000000E+005,  0.17669730621E+007,  0.16500000000E+002,  0.00000000000E+000,  0.10000000000E+001
  0.57918000000E+005,  0.17639315762E+007,  0.16500000000E+002,  0.00000000000E+000,  0.10000000000E+001
  0.57978000000E+005,  0.17609090108E+007,  0.16500000000E+002,  0.00000000000E+000,  0.10000000000E+001
  0.58038000000E+005,  0.17579051643E+007,  0.16500000000E+002,  0.00000000000E+000,  0.10000000000E+001
  0.58098000000E+005,  0.17549198372E+007,  0.16500000000E+002,  0.00000000000E+000,  0.10000000000E+001
  0.58158000000E+005,  0.17519528351E+007,  0.16500000000E+002,  0.00000000000E+000,  0.10000000000E+001
  0.58218000000E+005,  0.17490039656E+007,  0.16500000000E+002,  0.00000000000E+000,  0.10000000000E+001
  0.58278000000E+005,  0.17460730408E+007,  0.16500000000E+002,  0.00000000000E+000,  0.10000000000E+001
  0.58338000000E+005,  0.17431598739E+007,  0.16500000000E+002,  0.00000000000E+000,  0.10000000000E+001
  0.58398000000E+005,  0.17402642829E+007,  0.16500000000E+002,  0.00000000000E+000,  0.10000000000E+001
  0.58458000000E+005,  0.17373860876E+007,  0.16500000000E+002,  0.00000000000E+000,  0.10000000000E+001
  0.58518000000E+005,  0.17345251123E+007,  0.16500000000E+002,  0.00000000000E+000,  0.10000000000E+001
  0.58578000000E+005,  0.17316811832E+007,  0.16500000000E+002,  0.00000000000E+000,  0.10000000000E+001
  0.58638000000E+005,  0.17288541294E+007,  0.16500000000E+002,  0.00000000000E+000,  0.10000000000E+001
  0.58698000000E+005,  0.17260437829E+007,  0.16500000000E+002,  0.00000000000E+000,  0.10000000000E+001
  0.58758000000E+005,  0.17232499783E+007,  0.16500000000E+002,  0.00000000000E+000,  0.10000000000E+001
