"           TIME(S)","              PRES","              TEMP","             SAT_G","             SAT_L"
  0.32516000000E+005,  0.16336747931E+006,  0.16500000000E+002,  0.00000000000E+000,  0.10000000000E+001
  0.32521000000E+005,  0.16337149411E+006,  0.16500000000E+002,  0.00000000000E+000,  0.10000000000E+001
  0.32546000000E+005,  0.16339192423E+006,  0.16500000000E+002,  0.00000000000E+000,  0.10000000000E+001
  0.32606000000E+005,  0.16344242521E+006,  0.16500000000E+002,  0.00000000000E+000,  0.10000000000E+001
  0.32666000000E+005,  0.16349378240E+006,  0.16500000000E+002,  0.00000000000E+000,  0.10000000000E+001
  0.32726000000E+005,  0.16354561643E+006,  0.16500000000E+002,  0.00000000000E+000,  0.10000000000E+001
  0.32786000000E+005,  0.16359771301E+006,  0.16500000000E+002,  0.00000000000E+000,  0.10000000000E+001
  0.32846000000E+005,  0.16364995293E+006,  0.16500000000E+002,  0.00000000000E+000,  0.10000000000E+001
  0.32906000000E+005,  0.16370226982E+006,  0.16500000000E+002,  0.00000000000E+000,  0.10000000000E+001
  0.32966000000E+005,  0.16375462670E+006,  0.16500000000E+002,  0.00000000000E+000,  0.10000000000E+001
  0.33026000000E+005,  0.16380700318E+006,  0.16500000000E+002,  0.00000000000E+000,  0.10000000000E+001
  0.33086000000E+005,  0.16385938824E+006,  0.16500000000E+002,  0.00000000000E+000,  0.10000000000E+001
  0.33146000000E+005,  0.16391177619E+006,  0.16500000000E+002,  0.00000000000E+000,  0.10000000000E+001
  0.33206000000E+005,  0.16396416435E+006,  0.16500000000E+002,  0.00000000000E+000,  0.10000000000E+001
  0.33266000000E+005,  0.16401655166E+006,  0.16500000000E+002,  0.00000000000E+000,  0.10000000000E+001
  0.33326000000E+005,  0.16406893798E+006,  0.16500000000E+002,  0.00000000000E+000,  0.10000000000E+001
  0.33386000000E+005,  0.16412132364E+006,  0.16500000000E+002,  0.00000000000E+000,  0.10000000000E+001
  0.33446000000E+005,  0.16417370921E+006,  0.16500000000E+002,  0.00000000000E+000,  0.10000000000E+001
  0.33506000000E+005,  0.16422609540E+006,  0.16500000000E+002,  0.00000000000E+000,  0.10000000000E+001
  0.33566000000E+005,  0.16427848306E+006,  0.16500000000E+002,  0.00000000000E+000,  0.10000000000E+001
  0.33626000000E+005,  0.16433087316E+006,  0.16500000000E+002,  0.00000000000E+000,  0.10000000000E+001
  0.33686000000E+005,  0.16438326690E+006,  0.16500000000E+002,  0.00000000000E+000,  0.10000000000E+001
  0.33746000000E+005,  0.16443566574E+006,  0.16500000000E+002,  0.00000000000E+000,  0.10000000000E+001
  0.33806000000E+005,  0.16448807152E+006,  0.16500000000E+002,  0.00000000000E+000,  0.10000000000E+001
  0.33866000000E+005,  0.16454048660E+006,  0.16500000000E+002,  0.00000000000E+000,  0.10000000000E+001
  0.33926000000E+005,  0.16459291394E+006,  0.16500000000E+002,  0.00000000000E+000,  0.10000000000E+001
  0.33986000000E+005,  0.16464535731E+006,  0.16500000000E+002,  0.00000000000E+000,  0.10000000000E+001
  0.34046000000E+005,  0.16469782139E+006,  0.16500000000E+002,  0.00000000000E+000,  0.10000000000E+001
  0.34106000000E+005,  0.16475031199E+006,  0.16500000000E+002,  0.00000000000E+000,  0.10000000000E+001
  0.34166000000E+005,  0.16480283623E+006,  0.16500000000E+002,  0.00000000000E+000,  0.10000000000E+001
  0.34226000000E+005,  0.16485540269E+006,  0.16500000000E+002,  0.00000000000E+000,  0.10000000000E+001
  0.34286000000E+005,  0.16490802169E+006,  0.16500000000E+002,  0.00000000000E+000,  0.10000000000E+001
  0.34346000000E+005,  0.16496070544E+006,  0.16500000000E+002,  0.00000000000E+000,  0.10000000000E+001
  0.34406000000E+005,  0.16501346829E+006,  0.16500000000E+002,  0.00000000000E+000,  0.10000000000E+001
  0.34466000000E+005,  0.16506632695E+006,  0.16500000000E+002,  0.00000000000E+000,  0.10000000000E+001
  0.34526000000E+005,  0.16511930070E+006,  0.16500000000E+002,  0.00000000000E+000,  0.10000000000E+001
  0.34586000000E+005,  0.16517241165E+006,  0.16500000000E+002,  0.00000000000E+000,  0.10000000000E+001
  0.34646000000E+005,  0.16522568492E+006,  0.16500000000E+002,  0.00000000000E+000,  0.10000000000E+001
  0.34706000000E+005,  0.16527914888E+006,  0.16500000000E+002,  0.00000000000E+000,  0.10000000000E+001
  0.34766000000E+005,  0.16533283538E+006,  0.16500000000E+002,  0.00000000000E+000,  0.10000000000E+001
  0.34826000000E+005,  0.16538677990E+006,  0.16500000000E+002,  0.00000000000E+000,  0.10000000000E+001
  0.34886000000E+005,  0.16544102182E+006,  0.16500000000E+002,  0.00000000000E+000,  0.10000000000E+001
  0.34946000000E+005,  0.16549560453E+006,  0.16500000000E+002,  0.00000000000E+000,  0.10000000000E+001
  0.35006000000E+005,  0.16555057565E+006,  0.16500000000E+002,  0.00000000000E+000,  0.10000000000E+001
  0.35066000000E+005,  0.16560598718E+006,  0.16500000000E+002,  0.00000000000E+000,  0.10000000000E+001
  0.35126000000E+005,  0.16566189561E+006,  0.16500000000E+002,  0.00000000000E+000,  0.10000000000E+001
  0.35186000000E+005,  0.16571836209E+006,  0.16500000000E+002,  0.00000000000E+000,  0.10000000000E+001
  0.35246000000E+005,  0.16577545249E+006,  0.16500000000E+002,  0.00000000000E+000,  0.10000000000E+001
  0.35306000000E+005,  0.16583323753E+006,  0.16500000000E+002,  0.00000000000E+000,  0.10000000000E+001
  0.35366000000E+005,  0.16589179285E+006,  0.16500000000E+002,  0.00000000000E+000,  0.10000000000E+001
  0.35426000000E+005,  0.16595119903E+006,  0.16500000000E+002,  0.00000000000E+000,  0.10000000000E+001
  0.35486000000E+005,  0.16601154166E+006,  0.16500000000E+002,  0.00000000000E+000,  0.10000000000E+001
  0.35546000000E+005,  0.16607291136E+006,  0.16500000000E+002,  0.00000000000E+000,  0.10000000000E+001
  0.35606000000E+005,  0.16613540376E+006,  0.16500000000E+002,  0.00000000000E+000,  0.10000000000E+001
  0.35666000000E+005,  0.16619911948E+006,  0.16500000000E+002,  0.00000000000E+000,  0.10000000000E+001
  0.35726000000E+005,  0.16626416412E+006,  0.16500000000E+002,  0.00000000000E+000,  0.10000000000E+001
  0.35786000000E+005,  0.16633064820E+006,  0.16500000000E+002,  0.00000000000E+000,  0.10000000000E+001
  0.35846000000E+005,  0.16639868707E+006,  0.16500000000E+002,  0.00000000000E+000,  0.10000000000E+001
  0.35906000000E+005,  0.16646840086E+006,  0.16500000000E+002,  0.00000000000E+000,  0.10000000000E+001
  0.35966000000E+005,  0.16653991437E+006,  0.16500000000E+002,  0.00000000000E+000,  0.10000000000E+001
  0.36026000000E+005,  0.16661335694E+006,  0.16500000000E+002,  0.00000000000E+000,  0.10000000000E+001
  0.36086000000E+005,  0.16668886235E+006,  0.16500000000E+002,  0.00000000000E+000,  0.10000000000E+001
  0.36146000000E+005,  0.16676656868E+006,  0.16500000000E+002,  0.00000000000E+000,  0.10000000000E+001
  0.36206000000E+005,  0.16684661816E+006,  0.16500000000E+002,  0.00000000000E+000,  0.10000000000E+001
  0.36266000000E+005,  0.16692915699E+006,  0.16500000000E+002,  0.00000000000E+000,  0.10000000000E+001
  0.36326000000E+005,  0.16701433521E+006,  0.16500000000E+002,  0.00000000000E+000,  0.10000000000E+001
  0.36386000000E+005,  0.16710230651E+006,  0.16500000000E+002,  0.00000000000E+000,  0.10000000000E+001
  0.36446000000E+005,  0.16719322804E+006,  0.16500000000E+002,  0.00000000000E+000,  0.10000000000E+001
  0.36506000000E+005,  0.16728726022E+006,  0.16500000000E+002,  0.00000000000E+000,  0.10000000000E+001
  0.36566000000E+005,  0.16738456656E+006,  0.16500000000E+002,  0.00000000000E+000,  0.10000000000E+001
  0.36626000000E+005,  0.16748531344E+006,  0.16500000000E+002,  0.00000000000E+000,  0.10000000000E+001
  0.36686000000E+005,  0.16758966993E+006,  0.16500000000E+002,  0.00000000000E+000,  0.10000000000E+001
  0.36746000000E+005,  0.16769780758E+006,  0.16500000000E+002,  0.00000000000E+000,  0.10000000000E+001
  0.36806000000E+005,  0.16780990018E+006,  0.16500000000E+002,  0.00000000000E+000,  0.10000000000E+001
  0.36866000000E+005,  0.16792612359E+006,  0.16500000000E+002,  0.00000000000E+000,  0.10000000000E+001
  0.36926000000E+005,  0.16804665551E+006,  0.16500000000E+002,  0.00000000000E+000,  0.10000000000E+001
  0.36986000000E+005,  0.16817167528E+006,  0.16500000000E+002,  0.00000000000E+000,  0.10000000000E+001
  0.37046000000E+005,  0.16830136366E+006,  0.16500000000E+002,  0.00000000000E+000,  0.10000000000E+001
  0.37106000000E+005,  0.16843590261E+006,  0.16500000000E+002,  0.00000000000E+000,  0.10000000000E+001
  0.37166000000E+005,  0.16857547511E+006,  0.16500000000E+002,  0.00000000000E+000,  0.10000000000E+001
  0.37226000000E+005,  0.16872026494E+006,  0.16500000000E+002,  0.00000000000E+000,  0.10000000000E+001
  0.37286000000E+005,  0.16887045647E+006,  0.16500000000E+002,  0.00000000000E+000,  0.10000000000E+001
  0.37346000000E+005,  0.16902623447E+006,  0.16500000000E+002,  0.00000000000E+000,  0.10000000000E+001
  0.37406000000E+005,  0.16918778391E+006,  0.16500000000E+002,  0.00000000000E+000,  0.10000000000E+001
  0.37466000000E+005,  0.16935528978E+006,  0.16500000000E+002,  0.00000000000E+000,  0.10000000000E+001
  0.37526000000E+005,  0.16952893689E+006,  0.16500000000E+002,  0.00000000000E+000,  0.10000000000E+001
  0.37586000000E+005,  0.16970890965E+006,  0.16500000000E+002,  0.00000000000E+000,  0.10000000000E+001
  0.37646000000E+005,  0.16989539198E+006,  0.16500000000E+002,  0.00000000000E+000,  0.10000000000E+001
  0.37706000000E+005,  0.17008856705E+006,  0.16500000000E+002,  0.00000000000E+000,  0.10000000000E+001
  0.37766000000E+005,  0.17028861714E+006,  0.16500000000E+002,  0.00000000000E+000,  0.10000000000E+001
  0.37826000000E+005,  0.17049572351E+006,  0.16500000000E+002,  0.00000000000E+000,  0.10000000000E+001
  0.37886000000E+005,  0.17071006617E+006,  0.16500000000E+002,  0.00000000000E+000,  0.10000000000E+001
  0.37946000000E+005,  0.17093182379E+006,  0.16500000000E+002,  0.00000000000E+000,  0.10000000000E+001
  0.38006000000E+005,  0.17116117355E+006,  0.16500000000E+002,  0.00000000000E+000,  0.10000000000E+001
  0.38066000000E+005,  0.17139829095E+006,  0.16500000000E+002,  0.00000000000E+000,  0.10000000000E+001
  0.38126000000E+005,  0.17164334973E+006,  0.16500000000E+002,  0.00000000000E+000,  0.10000000000E+001
  0.38186000000E+005,  0.17189652170E+006,  0.16500000000E+002,  0.00000000000E+000,  0.10000000000E+001
  0.38246000000E+005,  0.17215797666E+006,  0.16500000000E+002,  0.00000000000E+000,  0.10000000000E+001
  0.38306000000E+005,  0.17242788224E+006,  0.16500000000E+002,  0.00000000000E+000,  0.10000000000E+001
  0.38366000000E+005,  0.17270640382E+006,  0.16500000000E+002,  0.00000000000E+000,  0.10000000000E+001
  0.38426000000E+005,  0.17299370443E+006,  0.16500000000E+002,  0.00000000000E+000,  0.10000000000E+001
  0.38486000000E+005,  0.17328994462E+006,  0.16500000000E+002,  0.00000000000E+000,  0.10000000000E+001
  0.38546000000E+005,  0.17359528241E+006,  0.16500000000E+002,  0.00000000000E+000,  0.10000000000E+001
  0.38606000000E+005,  0.17390987318E+006,  0.16500000000E+002,  0.00000000000E+000,  0.10000000000E+001
  0.38666000000E+005,  0.17423386958E+006,  0.16500000000E+002,  0.00000000000E+000,  0.10000000000E+001
  0.38726000000E+005,  0.17456742152E+006,  0.16500000000E+002,  0.00000000000E+000,  0.10000000000E+001
  0.38786000000E+005,  0.17491067601E+006,  0.16500000000E+002,  0.00000000000E+000,  0.10000000000E+001
  0.38846000000E+005,  0.17526377719E+006,  0.16500000000E+002,  0.00000000000E+000,  0.10000000000E+001
  0.38906000000E+005,  0.17562686621E+006,  0.16500000000E+002,  0.00000000000E+000,  0.10000000000E+001
  0.38966000000E+005,  0.17600008123E+006,  0.16500000000E+002,  0.00000000000E+000,  0.10000000000E+001
  0.39026000000E+005,  0.17638355734E+006,  0.16500000000E+002,  0.00000000000E+000,  0.10000000000E+001
  0.39086000000E+005,  0.17677742653E+006,  0.16500000000E+002,  0.00000000000E+000,  0.10000000000E+001
  0.39146000000E+005,  0.17718181768E+006,  0.16500000000E+002,  0.00000000000E+000,  0.10000000000E+001
  0.39206000000E+005,  0.17759685652E+006,  0.16500000000E+002,  0.00000000000E+000,  0.10000000000E+001
  0.39266000000E+005,  0.17802266559E+006,  0.16500000000E+002,  0.00000000000E+000,  0.10000000000E+001
  0.39326000000E+005,  0.17845936424E+006,  0.16500000000E+002,  0.00000000000E+000,  0.10000000000E+001
  0.39386000000E+005,  0.17890706862E+006,  0.16500000000E+002,  0.00000000000E+000,  0.10000000000E+001
  0.39446000000E+005,  0.17936589166E+006,  0.16500000000E+002,  0.00000000000E+000,  0.10000000000E+001
  0.39506000000E+005,  0.17983594308E+006,  0.16500000000E+002,  0.00000000000E+000,  0.10000000000E+001
  0.39566000000E+005,  0.18031732935E+006,  0.16500000000E+002,  0.00000000000E+000,  0.10000000000E+001
  0.39626000000E+005,  0.18081015375E+006,  0.16500000000E+002,  0.00000000000E+000,  0.10000000000E+001
  0.39686000000E+005,  0.18131451633E+006,  0.16500000000E+002,  0.00000000000E+000,  0.10000000000E+001
  0.39746000000E+005,  0.18183051394E+006,  0.16500000000E+002,  0.00000000000E+000,  0.10000000000E+001
  0.39806000000E+005,  0.18235824023E+006,  0.16500000000E+002,  0.00000000000E+000,  0.10000000000E+001
  0.39866000000E+005,  0.18289778568E+006,  0.16500000000E+002,  0.00000000000E+000,  0.10000000000E+001
  0.39926000000E+005,  0.18344923760E+006,  0.16500000000E+002,  0.00000000000E+000,  0.10000000000E+001
  0.39986000000E+005,  0.18401268015E+006,  0.16500000000E+002,  0.00000000000E+000,  0.10000000000E+001
  0.40046000000E+005,  0.18458819440E+006,  0.16500000000E+002,  0.00000000000E+000,  0.10000000000E+001
  0.40106000000E+005,  0.18517585828E+006,  0.16500000000E+002,  0.00000000000E+000,  0.10000000000E+001
  0.40166000000E+005,  0.18577574670E+006,  0.16500000000E+002,  0.00000000000E+000,  0.10000000000E+001
  0.40226000000E+005,  0.18638793147E+006,  0.16500000000E+002,  0.00000000000E+000,  0.10000000000E+001
  0.40286000000E+005,  0.18701248143E+006,  0.16500000000E+002,  0.00000000000E+000,  0.10000000000E+001
  0.40346000000E+005,  0.18764946243E+006,  0.16500000000E+002,  0.00000000000E+000,  0.10000000000E+001
  0.40406000000E+005,  0.18829893735E+006,  0.16500000000E+002,  0.00000000000E+000,  0.10000000000E+001
  0.40466000000E+005,  0.18896096616E+006,  0.16500000000E+002,  0.00000000000E+000,  0.10000000000E+001
  0.40526000000E+005,  0.18963560595E+006,  0.16500000000E+002,  0.00000000000E+000,  0.10000000000E+001
  0.40586000000E+005,  0.19032291096E+006,  0.16500000000E+002,  0.00000000000E+000,  0.10000000000E+001
  0.40646000000E+005,  0.19102293263E+006,  0.16500000000E+002,  0.00000000000E+000,  0.10000000000E+001
  0.40706000000E+005,  0.19173571959E+006,  0.16500000000E+002,  0.00000000000E+000,  0.10000000000E+001
  0.40766000000E+005,  0.19246131777E+006,  0.16500000000E+002,  0.00000000000E+000,  0.10000000000E+001
  0.40826000000E+005,  0.19319977038E+006,  0.16500000000E+002,  0.00000000000E+000,  0.10000000000E+001
  0.40886000000E+005,  0.19395111796E+006,  0.16500000000E+002,  0.00000000000E+000,  0.10000000000E+001
  0.40946000000E+005,  0.19471539846E+006,  0.16500000000E+002,  0.00000000000E+000,  0.10000000000E+001
  0.41006000000E+005,  0.19549264721E+006,  0.16500000000E+002,  0.00000000000E+000,  0.10000000000E+001
  0.41066000000E+005,  0.19628289702E+006,  0.16500000000E+002,  0.00000000000E+000,  0.10000000000E+001
  0.41126000000E+005,  0.19708617818E+006,  0.16500000000E+002,  0.00000000000E+000,  0.10000000000E+001
  0.41186000000E+005,  0.19790251855E+006,  0.16500000000E+002,  0.00000000000E+000,  0.10000000000E+001
  0.41246000000E+005,  0.19873194353E+006,  0.16500000000E+002,  0.00000000000E+000,  0.10000000000E+001
  0.41306000000E+005,  0.19957447616E+006,  0.16500000000E+002,  0.00000000000E+000,  0.10000000000E+001
  0.41366000000E+005,  0.20043013713E+006,  0.16500000000E+002,  0.00000000000E+000,  0.10000000000E+001
  0.41426000000E+005,  0.20129894482E+006,  0.16500000000E+002,  0.00000000000E+000,  0.10000000000E+001
  0.41486000000E+005,  0.20218091538E+006,  0.16500000000E+002,  0.00000000000E+000,  0.10000000000E+001
  0.41546000000E+005,  0.20307606271E+006,  0.16500000000E+002,  0.00000000000E+000,  0.10000000000E+001
  0.41606000000E+005,  0.20398439855E+006,  0.16500000000E+002,  0.00000000000E+000,  0.10000000000E+001
  0.41666000000E+005,  0.20490593248E+006,  0.16500000000E+002,  0.00000000000E+000,  0.10000000000E+001
  0.41726000000E+005,  0.20584067201E+006,  0.16500000000E+002,  0.00000000000E+000,  0.10000000000E+001
  0.41786000000E+005,  0.20678862255E+006,  0.16500000000E+002,  0.00000000000E+000,  0.10000000000E+001
  0.41846000000E+005,  0.20774978753E+006,  0.16500000000E+002,  0.00000000000E+000,  0.10000000000E+001
  0.41906000000E+005,  0.20872416838E+006,  0.16500000000E+002,  0.00000000000E+000,  0.10000000000E+001
  0.41966000000E+005,  0.20971176460E+006,  0.16500000000E+002,  0.00000000000E+000,  0.10000000000E+001
  0.42026000000E+005,  0.21071257377E+006,  0.16500000000E+002,  0.00000000000E+000,  0.10000000000E+001
  0.42086000000E+005,  0.21172659162E+006,  0.16500000000E+002,  0.00000000000E+000,  0.10000000000E+001
  0.42146000000E+005,  0.21275381207E+006,  0.16500000000E+002,  0.00000000000E+000,  0.10000000000E+001
  0.42206000000E+005,  0.21379422721E+006,  0.16500000000E+002,  0.00000000000E+000,  0.10000000000E+001
  0.42266000000E+005,  0.21484782744E+006,  0.16500000000E+002,  0.00000000000E+000,  0.10000000000E+001
  0.42326000000E+005,  0.21591460139E+006,  0.16500000000E+002,  0.00000000000E+000,  0.10000000000E+001
  0.42386000000E+005,  0.21699453606E+006,  0.16500000000E+002,  0.00000000000E+000,  0.10000000000E+001
  0.42446000000E+005,  0.21808761680E+006,  0.16500000000E+002,  0.00000000000E+000,  0.10000000000E+001
  0.42506000000E+005,  0.21919382735E+006,  0.16500000000E+002,  0.00000000000E+000,  0.10000000000E+001
  0.42566000000E+005,  0.22031314990E+006,  0.16500000000E+002,  0.00000000000E+000,  0.10000000000E+001
  0.42626000000E+005,  0.22144556509E+006,  0.16500000000E+002,  0.00000000000E+000,  0.10000000000E+001
  0.42686000000E+005,  0.22259105210E+006,  0.16500000000E+002,  0.00000000000E+000,  0.10000000000E+001
  0.42746000000E+005,  0.22374958862E+006,  0.16500000000E+002,  0.00000000000E+000,  0.10000000000E+001
  0.42806000000E+005,  0.22492115093E+006,  0.16500000000E+002,  0.00000000000E+000,  0.10000000000E+001
  0.42866000000E+005,  0.22610571393E+006,  0.16500000000E+002,  0.00000000000E+000,  0.10000000000E+001
  0.42926000000E+005,  0.22730325114E+006,  0.16500000000E+002,  0.00000000000E+000,  0.10000000000E+001
  0.42986000000E+005,  0.22851373477E+006,  0.16500000000E+002,  0.00000000000E+000,  0.10000000000E+001
  0.43046000000E+005,  0.22973713575E+006,  0.16500000000E+002,  0.00000000000E+000,  0.10000000000E+001
  0.43106000000E+005,  0.23097342372E+006,  0.16500000000E+002,  0.00000000000E+000,  0.10000000000E+001
  0.43166000000E+005,  0.23222256713E+006,  0.16500000000E+002,  0.00000000000E+000,  0.10000000000E+001
  0.43226000000E+005,  0.23348453321E+006,  0.16500000000E+002,  0.00000000000E+000,  0.10000000000E+001
  0.43286000000E+005,  0.23475928803E+006,  0.16500000000E+002,  0.00000000000E+000,  0.10000000000E+001
  0.43346000000E+005,  0.23604679651E+006,  0.16500000000E+002,  0.00000000000E+000,  0.10000000000E+001
  0.43406000000E+005,  0.23734702248E+006,  0.16500000000E+002,  0.00000000000E+000,  0.10000000000E+001
  0.43466000000E+005,  0.23865992869E+006,  0.16500000000E+002,  0.00000000000E+000,  0.10000000000E+001
  0.43526000000E+005,  0.23998547682E+006,  0.16500000000E+002,  0.00000000000E+000,  0.10000000000E+001
  0.43586000000E+005,  0.24132362755E+006,  0.16500000000E+002,  0.00000000000E+000,  0.10000000000E+001
  0.43646000000E+005,  0.24267434053E+006,  0.16500000000E+002,  0.00000000000E+000,  0.10000000000E+001
  0.43706000000E+005,  0.24403757447E+006,  0.16500000000E+002,  0.00000000000E+000,  0.10000000000E+001
