"           TIME(S)","              PRES","              TEMP","             SAT_G","             SAT_L"
  0.94878500000E+005,  0.99997422720E+006,  0.16500000000E+002,  0.00000000000E+000,  0.10000000000E+001
  0.94880500000E+005,  0.99997422720E+006,  0.16500000000E+002,  0.00000000000E+000,  0.10000000000E+001
  0.94882500000E+005,  0.11107270038E+007,  0.16500000000E+002,  0.00000000000E+000,  0.10000000000E+001
  0.94884500000E+005,  0.13453184990E+007,  0.16500000000E+002,  0.00000000000E+000,  0.10000000000E+001
  0.94886500000E+005,  0.15777570450E+007,  0.16500000000E+002,  0.00000000000E+000,  0.10000000000E+001
  0.94888500000E+005,  0.18081707957E+007,  0.16500000000E+002,  0.00000000000E+000,  0.10000000000E+001
  0.94890500000E+005,  0.20366686039E+007,  0.16500000000E+002,  0.00000000000E+000,  0.10000000000E+001
  0.94892500000E+005,  0.22633441460E+007,  0.16500000000E+002,  0.00000000000E+000,  0.10000000000E+001
  0.94894500000E+005,  0.24882789841E+007,  0.16500000000E+002,  0.00000000000E+000,  0.10000000000E+001
  0.94896500000E+005,  0.27115448724E+007,  0.16500000000E+002,  0.00000000000E+000,  0.10000000000E+001
  0.94898500000E+005,  0.29332055189E+007,  0.16500000000E+002,  0.00000000000E+000,  0.10000000000E+001
  0.94900500000E+005,  0.31533179491E+007,  0.16500000000E+002,  0.00000000000E+000,  0.10000000000E+001
  0.94902500000E+005,  0.33719335771E+007,  0.16500000000E+002,  0.00000000000E+000,  0.10000000000E+001
  0.94904500000E+005,  0.35890990565E+007,  0.16500000000E+002,  0.00000000000E+000,  0.10000000000E+001
  0.94906500000E+005,  0.38048569646E+007,  0.16500000000E+002,  0.00000000000E+000,  0.10000000000E+001
  0.94908500000E+005,  0.40192463596E+007,  0.16500000000E+002,  0.00000000000E+000,  0.10000000000E+001
  0.94910500000E+005,  0.42323032385E+007,  0.16500000000E+002,  0.00000000000E+000,  0.10000000000E+001
  0.94912500000E+005,  0.44440609167E+007,  0.16500000000E+002,  0.00000000000E+000,  0.10000000000E+001
  0.94914500000E+005,  0.46555157518E+007,  0.16500000000E+002,  0.00000000000E+000,  0.10000000000E+001
  0.94916500000E+005,  0.49775941908E+007,  0.16500000000E+002,  0.00000000000E+000,  0.10000000000E+001
  0.94918500000E+005,  0.52179058384E+007,  0.16500000000E+002,  0.00000000000E+000,  0.10000000000E+001
  0.94920500000E+005,  0.54504689229E+007,  0.16500000000E+002,  0.00000000000E+000,  0.10000000000E+001
  0.94922500000E+005,  0.56478837708E+007,  0.16500000000E+002,  0.00000000000E+000,  0.10000000000E+001
  0.94924500000E+005,  0.59151072779E+007,  0.16500000000E+002,  0.00000000000E+000,  0.10000000000E+001
  0.94926500000E+005,  0.62070993570E+007,  0.16500000000E+002,  0.00000000000E+000,  0.10000000000E+001
  0.94928500000E+005,  0.66198668076E+007,  0.16500000000E+002,  0.00000000000E+000,  0.10000000000E+001
  0.94930500000E+005,  0.71268414922E+007,  0.16500000000E+002,  0.00000000000E+000,  0.10000000000E+001
  0.94932500000E+005,  0.79060883626E+007,  0.16500000000E+002,  0.00000000000E+000,  0.10000000000E+001
  0.94934500000E+005,  0.88883294691E+007,  0.16500000000E+002,  0.00000000000E+000,  0.10000000000E+001
  0.94936500000E+005,  0.98660530198E+007,  0.16500000000E+002,  0.00000000000E+000,  0.10000000000E+001
  0.94938500000E+005,  0.10835742274E+008,  0.16500000000E+002,  0.00000000000E+000,  0.10000000000E+001
  0.94940500000E+005,  0.11797743624E+008,  0.16500000000E+002,  0.00000000000E+000,  0.10000000000E+001
  0.94942500000E+005,  0.12752360255E+008,  0.16500000000E+002,  0.00000000000E+000,  0.10000000000E+001
  0.94944500000E+005,  0.13699860414E+008,  0.16500000000E+002,  0.00000000000E+000,  0.10000000000E+001
  0.94946500000E+005,  0.14750346535E+008,  0.16500000000E+002,  0.00000000000E+000,  0.10000000000E+001
  0.94948500000E+005,  0.15917312534E+008,  0.16500000000E+002,  0.00000000000E+000,  0.10000000000E+001
  0.94950500000E+005,  0.16997942118E+008,  0.16500000000E+002,  0.00000000000E+000,  0.10000000000E+001
  0.94952500000E+005,  0.18072792255E+008,  0.16500000000E+002,  0.00000000000E+000,  0.10000000000E+001
  0.94954500000E+005,  0.19145962664E+008,  0.16500000000E+002,  0.00000000000E+000,  0.10000000000E+001
  0.94956500000E+005,  0.20163656192E+008,  0.16500000000E+002,  0.00000000000E+000,  0.10000000000E+001
  0.94958500000E+005,  0.21173055437E+008,  0.16500000000E+002,  0.00000000000E+000,  0.10000000000E+001
  0.94960500000E+005,  0.22175929971E+008,  0.16500000000E+002,  0.00000000000E+000,  0.10000000000E+001
  0.94962500000E+005,  0.23172421556E+008,  0.16500000000E+002,  0.00000000000E+000,  0.10000000000E+001
  0.94964500000E+005,  0.24162663733E+008,  0.16500000000E+002,  0.00000000000E+000,  0.10000000000E+001
  0.94966500000E+005,  0.25146782534E+008,  0.16500000000E+002,  0.00000000000E+000,  0.10000000000E+001
  0.94968500000E+005,  0.26124897130E+008,  0.16500000000E+002,  0.00000000000E+000,  0.10000000000E+001
  0.94970500000E+005,  0.27097120428E+008,  0.16500000000E+002,  0.00000000000E+000,  0.10000000000E+001
  0.94972500000E+005,  0.28063559608E+008,  0.16500000000E+002,  0.00000000000E+000,  0.10000000000E+001
  0.94974500000E+005,  0.29024316610E+008,  0.16500000000E+002,  0.00000000000E+000,  0.10000000000E+001
  0.94976500000E+005,  0.29979488570E+008,  0.16500000000E+002,  0.00000000000E+000,  0.10000000000E+001
  0.94978500000E+005,  0.30929168208E+008,  0.16500000000E+002,  0.00000000000E+000,  0.10000000000E+001
  0.94980500000E+005,  0.31873444189E+008,  0.16500000000E+002,  0.00000000000E+000,  0.10000000000E+001
  0.94982500000E+005,  0.32812401427E+008,  0.16500000000E+002,  0.00000000000E+000,  0.10000000000E+001
  0.94984500000E+005,  0.33746121381E+008,  0.16500000000E+002,  0.00000000000E+000,  0.10000000000E+001
  0.94986500000E+005,  0.34674682304E+008,  0.16500000000E+002,  0.00000000000E+000,  0.10000000000E+001
  0.94988500000E+005,  0.35598159477E+008,  0.16500000000E+002,  0.00000000000E+000,  0.10000000000E+001
  0.94990500000E+005,  0.36516625419E+008,  0.16500000000E+002,  0.00000000000E+000,  0.10000000000E+001
  0.94992500000E+005,  0.37430150072E+008,  0.16500000000E+002,  0.00000000000E+000,  0.10000000000E+001
  0.94994500000E+005,  0.38379628209E+008,  0.16500000000E+002,  0.00000000000E+000,  0.10000000000E+001
  0.94996500000E+005,  0.39321989393E+008,  0.16500000000E+002,  0.00000000000E+000,  0.10000000000E+001
  0.94998500000E+005,  0.40238514517E+008,  0.16500000000E+002,  0.00000000000E+000,  0.10000000000E+001
  0.95000500000E+005,  0.41150206777E+008,  0.16500000000E+002,  0.00000000000E+000,  0.10000000000E+001
  0.95002500000E+005,  0.42057130204E+008,  0.16500000000E+002,  0.00000000000E+000,  0.10000000000E+001
  0.95004500000E+005,  0.42959346784E+008,  0.16500000000E+002,  0.00000000000E+000,  0.10000000000E+001
  0.95006500000E+005,  0.43856916565E+008,  0.16500000000E+002,  0.00000000000E+000,  0.10000000000E+001
  0.95008500000E+005,  0.44749897766E+008,  0.16500000000E+002,  0.00000000000E+000,  0.10000000000E+001
  0.95010500000E+005,  0.45638346877E+008,  0.16500000000E+002,  0.00000000000E+000,  0.10000000000E+001
  0.95012500000E+005,  0.46522318761E+008,  0.16500000000E+002,  0.00000000000E+000,  0.10000000000E+001
  0.95014500000E+005,  0.47401866740E+008,  0.16500000000E+002,  0.00000000000E+000,  0.10000000000E+001
  0.95016500000E+005,  0.48277042688E+008,  0.16500000000E+002,  0.00000000000E+000,  0.10000000000E+001
  0.95018500000E+005,  0.49147897102E+008,  0.16500000000E+002,  0.00000000000E+000,  0.10000000000E+001
  0.95020500000E+005,  0.50014479176E+008,  0.16500000000E+002,  0.00000000000E+000,  0.10000000000E+001
  0.95022500000E+005,  0.50896727018E+008,  0.16500000000E+002,  0.00000000000E+000,  0.10000000000E+001
  0.95024500000E+005,  0.51752487105E+008,  0.16500000000E+002,  0.00000000000E+000,  0.10000000000E+001
  0.95026500000E+005,  0.52588309618E+008,  0.16500000000E+002,  0.00000000000E+000,  0.10000000000E+001
  0.95028500000E+005,  0.53420244293E+008,  0.16500000000E+002,  0.00000000000E+000,  0.10000000000E+001
  0.95030500000E+005,  0.54248322189E+008,  0.16500000000E+002,  0.00000000000E+000,  0.10000000000E+001
  0.95032500000E+005,  0.55072575381E+008,  0.16500000000E+002,  0.00000000000E+000,  0.10000000000E+001
  0.95034500000E+005,  0.55893036558E+008,  0.16500000000E+002,  0.00000000000E+000,  0.10000000000E+001
  0.95036500000E+005,  0.56709738735E+008,  0.16500000000E+002,  0.00000000000E+000,  0.10000000000E+001
  0.95038500000E+005,  0.57522715051E+008,  0.16500000000E+002,  0.00000000000E+000,  0.10000000000E+001
  0.95040500000E+005,  0.58331998619E+008,  0.16500000000E+002,  0.00000000000E+000,  0.10000000000E+001
  0.95042500000E+005,  0.59137622416E+008,  0.16500000000E+002,  0.00000000000E+000,  0.10000000000E+001
  0.95044500000E+005,  0.59939619207E+008,  0.16500000000E+002,  0.00000000000E+000,  0.10000000000E+001
  0.95046500000E+005,  0.60738021487E+008,  0.16500000000E+002,  0.00000000000E+000,  0.10000000000E+001
  0.95048500000E+005,  0.61532861437E+008,  0.16500000000E+002,  0.00000000000E+000,  0.10000000000E+001
  0.95050500000E+005,  0.62324170895E+008,  0.16500000000E+002,  0.00000000000E+000,  0.10000000000E+001
  0.95052500000E+005,  0.63111981338E+008,  0.16500000000E+002,  0.00000000000E+000,  0.10000000000E+001
  0.95054500000E+005,  0.63896323861E+008,  0.16500000000E+002,  0.00000000000E+000,  0.10000000000E+001
  0.95056500000E+005,  0.64677229171E+008,  0.16500000000E+002,  0.00000000000E+000,  0.10000000000E+001
  0.95058500000E+005,  0.65454727579E+008,  0.16500000000E+002,  0.00000000000E+000,  0.10000000000E+001
  0.95060500000E+005,  0.66228848999E+008,  0.16500000000E+002,  0.00000000000E+000,  0.10000000000E+001
  0.95062500000E+005,  0.66999622945E+008,  0.16500000000E+002,  0.00000000000E+000,  0.10000000000E+001
  0.95064500000E+005,  0.67767078534E+008,  0.16500000000E+002,  0.00000000000E+000,  0.10000000000E+001
  0.95066500000E+005,  0.68531244484E+008,  0.16500000000E+002,  0.00000000000E+000,  0.10000000000E+001
  0.95068500000E+005,  0.69292149122E+008,  0.16500000000E+002,  0.00000000000E+000,  0.10000000000E+001
  0.95070500000E+005,  0.70049820386E+008,  0.16500000000E+002,  0.00000000000E+000,  0.10000000000E+001
  0.95072500000E+005,  0.70804285830E+008,  0.16500000000E+002,  0.00000000000E+000,  0.10000000000E+001
  0.95074500000E+005,  0.71555572625E+008,  0.16500000000E+002,  0.00000000000E+000,  0.10000000000E+001
  0.95076500000E+005,  0.72303707573E+008,  0.16500000000E+002,  0.00000000000E+000,  0.10000000000E+001
  0.95078500000E+005,  0.73048717104E+008,  0.16500000000E+002,  0.00000000000E+000,  0.10000000000E+001
  0.95080500000E+005,  0.73790627287E+008,  0.16500000000E+002,  0.00000000000E+000,  0.10000000000E+001
  0.95082500000E+005,  0.74529463834E+008,  0.16500000000E+002,  0.00000000000E+000,  0.10000000000E+001
  0.95084500000E+005,  0.75265252106E+008,  0.16500000000E+002,  0.00000000000E+000,  0.10000000000E+001
  0.95086500000E+005,  0.75998017121E+008,  0.16500000000E+002,  0.00000000000E+000,  0.10000000000E+001
  0.95088500000E+005,  0.76727783557E+008,  0.16500000000E+002,  0.00000000000E+000,  0.10000000000E+001
  0.95090500000E+005,  0.77454575759E+008,  0.16500000000E+002,  0.00000000000E+000,  0.10000000000E+001
  0.95092500000E+005,  0.78178417747E+008,  0.16500000000E+002,  0.00000000000E+000,  0.10000000000E+001
  0.95094500000E+005,  0.78899333219E+008,  0.16500000000E+002,  0.00000000000E+000,  0.10000000000E+001
  0.95096500000E+005,  0.79617345559E+008,  0.16500000000E+002,  0.00000000000E+000,  0.10000000000E+001
  0.95098500000E+005,  0.80332477841E+008,  0.16500000000E+002,  0.00000000000E+000,  0.10000000000E+001
  0.95100000000E+005,  0.80867181208E+008,  0.16500000000E+002,  0.00000000000E+000,  0.10000000000E+001
