"           TIME(S)","              PRES","              TEMP","             SAT_G","             SAT_L"
  0.94934000000E+005,  0.67045108187E+007,  0.16500000000E+002,  0.00000000000E+000,  0.10000000000E+001
  0.94939000000E+005,  0.60880305875E+007,  0.16500000000E+002,  0.00000000000E+000,  0.10000000000E+001
  0.94964000000E+005,  0.65829855750E+007,  0.16500000000E+002,  0.00000000000E+000,  0.10000000000E+001
  0.94994000000E+005,  0.71339321273E+007,  0.16500000000E+002,  0.00000000000E+000,  0.10000000000E+001
  0.95024000000E+005,  0.75710693058E+007,  0.16500000000E+002,  0.00000000000E+000,  0.10000000000E+001
  0.95054000000E+005,  0.77663116771E+007,  0.16500000000E+002,  0.00000000000E+000,  0.10000000000E+001
  0.95084000000E+005,  0.79307102631E+007,  0.16500000000E+002,  0.00000000000E+000,  0.10000000000E+001
  0.95114000000E+005,  0.80637826114E+007,  0.16500000000E+002,  0.00000000000E+000,  0.10000000000E+001
  0.95144000000E+005,  0.81729173013E+007,  0.16500000000E+002,  0.00000000000E+000,  0.10000000000E+001
  0.95174000000E+005,  0.82641254679E+007,  0.16500000000E+002,  0.00000000000E+000,  0.10000000000E+001
  0.95204000000E+005,  0.83417201970E+007,  0.16500000000E+002,  0.00000000000E+000,  0.10000000000E+001
  0.95234000000E+005,  0.84087738757E+007,  0.16500000000E+002,  0.00000000000E+000,  0.10000000000E+001
  0.95264000000E+005,  0.84675114660E+007,  0.16500000000E+002,  0.00000000000E+000,  0.10000000000E+001
  0.95294000000E+005,  0.85195777801E+007,  0.16500000000E+002,  0.00000000000E+000,  0.10000000000E+001
  0.95324000000E+005,  0.85662126290E+007,  0.16500000000E+002,  0.00000000000E+000,  0.10000000000E+001
  0.95354000000E+005,  0.86083667567E+007,  0.16500000000E+002,  0.00000000000E+000,  0.10000000000E+001
  0.95384000000E+005,  0.86467803209E+007,  0.16500000000E+002,  0.00000000000E+000,  0.10000000000E+001
  0.95414000000E+005,  0.86820372998E+007,  0.16500000000E+002,  0.00000000000E+000,  0.10000000000E+001
  0.95444000000E+005,  0.87146040260E+007,  0.16500000000E+002,  0.00000000000E+000,  0.10000000000E+001
  0.95474000000E+005,  0.87448569956E+007,  0.16500000000E+002,  0.00000000000E+000,  0.10000000000E+001
  0.95504000000E+005,  0.87731032602E+007,  0.16500000000E+002,  0.00000000000E+000,  0.10000000000E+001
  0.95534000000E+005,  0.87995955894E+007,  0.16500000000E+002,  0.00000000000E+000,  0.10000000000E+001
  0.95564000000E+005,  0.88245438867E+007,  0.16500000000E+002,  0.00000000000E+000,  0.10000000000E+001
  0.95594000000E+005,  0.88481238814E+007,  0.16500000000E+002,  0.00000000000E+000,  0.10000000000E+001
  0.95624000000E+005,  0.88704838152E+007,  0.16500000000E+002,  0.00000000000E+000,  0.10000000000E+001
  0.95654000000E+005,  0.88917496363E+007,  0.16500000000E+002,  0.00000000000E+000,  0.10000000000E+001
  0.95684000000E+005,  0.89120290705E+007,  0.16500000000E+002,  0.00000000000E+000,  0.10000000000E+001
  0.95714000000E+005,  0.89314148391E+007,  0.16500000000E+002,  0.00000000000E+000,  0.10000000000E+001
  0.95744000000E+005,  0.89499872240E+007,  0.16500000000E+002,  0.00000000000E+000,  0.10000000000E+001
  0.95774000000E+005,  0.89678161261E+007,  0.16500000000E+002,  0.00000000000E+000,  0.10000000000E+001
  0.95804000000E+005,  0.89849627308E+007,  0.16500000000E+002,  0.00000000000E+000,  0.10000000000E+001
  0.95834000000E+005,  0.90014808631E+007,  0.16500000000E+002,  0.00000000000E+000,  0.10000000000E+001
  0.95864000000E+005,  0.90174180987E+007,  0.16500000000E+002,  0.00000000000E+000,  0.10000000000E+001
  0.95894000000E+005,  0.90328166793E+007,  0.16500000000E+002,  0.00000000000E+000,  0.10000000000E+001
  0.95924000000E+005,  0.90477142710E+007,  0.16500000000E+002,  0.00000000000E+000,  0.10000000000E+001
  0.95954000000E+005,  0.90621445969E+007,  0.16500000000E+002,  0.00000000000E+000,  0.10000000000E+001
  0.95984000000E+005,  0.90761379667E+007,  0.16500000000E+002,  0.00000000000E+000,  0.10000000000E+001
  0.96014000000E+005,  0.90582714302E+007,  0.16500000000E+002,  0.00000000000E+000,  0.10000000000E+001
  0.96044000000E+005,  0.90237855222E+007,  0.16500000000E+002,  0.00000000000E+000,  0.10000000000E+001
  0.96074000000E+005,  0.90177667290E+007,  0.16500000000E+002,  0.00000000000E+000,  0.10000000000E+001
  0.96104000000E+005,  0.90210667513E+007,  0.16500000000E+002,  0.00000000000E+000,  0.10000000000E+001
  0.96134000000E+005,  0.90279545878E+007,  0.16500000000E+002,  0.00000000000E+000,  0.10000000000E+001
  0.96164000000E+005,  0.90363484423E+007,  0.16500000000E+002,  0.00000000000E+000,  0.10000000000E+001
  0.96194000000E+005,  0.90454060570E+007,  0.16500000000E+002,  0.00000000000E+000,  0.10000000000E+001
  0.96224000000E+005,  0.90547527709E+007,  0.16500000000E+002,  0.00000000000E+000,  0.10000000000E+001
  0.96254000000E+005,  0.90642057385E+007,  0.16500000000E+002,  0.00000000000E+000,  0.10000000000E+001
  0.96284000000E+005,  0.90736676468E+007,  0.16500000000E+002,  0.00000000000E+000,  0.10000000000E+001
  0.96314000000E+005,  0.90830827602E+007,  0.16500000000E+002,  0.00000000000E+000,  0.10000000000E+001
  0.96344000000E+005,  0.90924173760E+007,  0.16500000000E+002,  0.00000000000E+000,  0.10000000000E+001
  0.96374000000E+005,  0.91016504413E+007,  0.16500000000E+002,  0.00000000000E+000,  0.10000000000E+001
  0.96404000000E+005,  0.91107686761E+007,  0.16500000000E+002,  0.00000000000E+000,  0.10000000000E+001
  0.96434000000E+005,  0.91197638354E+007,  0.16500000000E+002,  0.00000000000E+000,  0.10000000000E+001
  0.96464000000E+005,  0.91286310627E+007,  0.16500000000E+002,  0.00000000000E+000,  0.10000000000E+001
  0.96494000000E+005,  0.91373678417E+007,  0.16500000000E+002,  0.00000000000E+000,  0.10000000000E+001
  0.96524000000E+005,  0.91459732989E+007,  0.16500000000E+002,  0.00000000000E+000,  0.10000000000E+001
  0.96554000000E+005,  0.91544477246E+007,  0.16500000000E+002,  0.00000000000E+000,  0.10000000000E+001
  0.96584000000E+005,  0.91627922354E+007,  0.16500000000E+002,  0.00000000000E+000,  0.10000000000E+001
  0.96614000000E+005,  0.91710085327E+007,  0.16500000000E+002,  0.00000000000E+000,  0.10000000000E+001
  0.96644000000E+005,  0.91790987275E+007,  0.16500000000E+002,  0.00000000000E+000,  0.10000000000E+001
  0.96674000000E+005,  0.91870652119E+007,  0.16500000000E+002,  0.00000000000E+000,  0.10000000000E+001
  0.96704000000E+005,  0.91949105646E+007,  0.16500000000E+002,  0.00000000000E+000,  0.10000000000E+001
  0.96734000000E+005,  0.92026374810E+007,  0.16500000000E+002,  0.00000000000E+000,  0.10000000000E+001
  0.96764000000E+005,  0.92102487205E+007,  0.16500000000E+002,  0.00000000000E+000,  0.10000000000E+001
  0.96794000000E+005,  0.92177470688E+007,  0.16500000000E+002,  0.00000000000E+000,  0.10000000000E+001
  0.96824000000E+005,  0.92251353080E+007,  0.16500000000E+002,  0.00000000000E+000,  0.10000000000E+001
  0.96854000000E+005,  0.92324161966E+007,  0.16500000000E+002,  0.00000000000E+000,  0.10000000000E+001
  0.96884000000E+005,  0.92395924530E+007,  0.16500000000E+002,  0.00000000000E+000,  0.10000000000E+001
  0.96914000000E+005,  0.92466667447E+007,  0.16500000000E+002,  0.00000000000E+000,  0.10000000000E+001
  0.96944000000E+005,  0.92536416803E+007,  0.16500000000E+002,  0.00000000000E+000,  0.10000000000E+001
  0.96974000000E+005,  0.92605198040E+007,  0.16500000000E+002,  0.00000000000E+000,  0.10000000000E+001
  0.97004000000E+005,  0.92673035918E+007,  0.16500000000E+002,  0.00000000000E+000,  0.10000000000E+001
  0.97034000000E+005,  0.92739954498E+007,  0.16500000000E+002,  0.00000000000E+000,  0.10000000000E+001
  0.97064000000E+005,  0.92805977128E+007,  0.16500000000E+002,  0.00000000000E+000,  0.10000000000E+001
  0.97094000000E+005,  0.92871126443E+007,  0.16500000000E+002,  0.00000000000E+000,  0.10000000000E+001
  0.97124000000E+005,  0.92935424372E+007,  0.16500000000E+002,  0.00000000000E+000,  0.10000000000E+001
  0.97154000000E+005,  0.92998892144E+007,  0.16500000000E+002,  0.00000000000E+000,  0.10000000000E+001
  0.97184000000E+005,  0.93061550301E+007,  0.16500000000E+002,  0.00000000000E+000,  0.10000000000E+001
  0.97214000000E+005,  0.93123418718E+007,  0.16500000000E+002,  0.00000000000E+000,  0.10000000000E+001
  0.97244000000E+005,  0.93184516616E+007,  0.16500000000E+002,  0.00000000000E+000,  0.10000000000E+001
  0.97274000000E+005,  0.93244862586E+007,  0.16500000000E+002,  0.00000000000E+000,  0.10000000000E+001
  0.97304000000E+005,  0.93304474602E+007,  0.16500000000E+002,  0.00000000000E+000,  0.10000000000E+001
  0.97334000000E+005,  0.93363370045E+007,  0.16500000000E+002,  0.00000000000E+000,  0.10000000000E+001
  0.97364000000E+005,  0.93421565724E+007,  0.16500000000E+002,  0.00000000000E+000,  0.10000000000E+001
  0.97394000000E+005,  0.93479077894E+007,  0.16500000000E+002,  0.00000000000E+000,  0.10000000000E+001
  0.97424000000E+005,  0.93535922276E+007,  0.16500000000E+002,  0.00000000000E+000,  0.10000000000E+001
  0.97454000000E+005,  0.93592114078E+007,  0.16500000000E+002,  0.00000000000E+000,  0.10000000000E+001
  0.97484000000E+005,  0.93647668013E+007,  0.16500000000E+002,  0.00000000000E+000,  0.10000000000E+001
  0.97514000000E+005,  0.93702598317E+007,  0.16500000000E+002,  0.00000000000E+000,  0.10000000000E+001
  0.97544000000E+005,  0.93756918769E+007,  0.16500000000E+002,  0.00000000000E+000,  0.10000000000E+001
  0.97574000000E+005,  0.93810642707E+007,  0.16500000000E+002,  0.00000000000E+000,  0.10000000000E+001
  0.97604000000E+005,  0.93863783044E+007,  0.16500000000E+002,  0.00000000000E+000,  0.10000000000E+001
  0.97634000000E+005,  0.93916352286E+007,  0.16500000000E+002,  0.00000000000E+000,  0.10000000000E+001
  0.97664000000E+005,  0.93968362549E+007,  0.16500000000E+002,  0.00000000000E+000,  0.10000000000E+001
  0.97694000000E+005,  0.94019825568E+007,  0.16500000000E+002,  0.00000000000E+000,  0.10000000000E+001
  0.97724000000E+005,  0.94070752720E+007,  0.16500000000E+002,  0.00000000000E+000,  0.10000000000E+001
  0.97754000000E+005,  0.94121155029E+007,  0.16500000000E+002,  0.00000000000E+000,  0.10000000000E+001
  0.97784000000E+005,  0.94171043188E+007,  0.16500000000E+002,  0.00000000000E+000,  0.10000000000E+001
  0.97814000000E+005,  0.94220427564E+007,  0.16500000000E+002,  0.00000000000E+000,  0.10000000000E+001
  0.97844000000E+005,  0.94269318215E+007,  0.16500000000E+002,  0.00000000000E+000,  0.10000000000E+001
  0.97874000000E+005,  0.94317724900E+007,  0.16500000000E+002,  0.00000000000E+000,  0.10000000000E+001
  0.97904000000E+005,  0.94365657090E+007,  0.16500000000E+002,  0.00000000000E+000,  0.10000000000E+001
  0.97934000000E+005,  0.94413123981E+007,  0.16500000000E+002,  0.00000000000E+000,  0.10000000000E+001
  0.97964000000E+005,  0.94460134501E+007,  0.16500000000E+002,  0.00000000000E+000,  0.10000000000E+001
  0.97994000000E+005,  0.94506697320E+007,  0.16500000000E+002,  0.00000000000E+000,  0.10000000000E+001
  0.98024000000E+005,  0.94552820864E+007,  0.16500000000E+002,  0.00000000000E+000,  0.10000000000E+001
  0.98054000000E+005,  0.94598513319E+007,  0.16500000000E+002,  0.00000000000E+000,  0.10000000000E+001
  0.98084000000E+005,  0.94643782639E+007,  0.16500000000E+002,  0.00000000000E+000,  0.10000000000E+001
  0.98114000000E+005,  0.94688636562E+007,  0.16500000000E+002,  0.00000000000E+000,  0.10000000000E+001
  0.98144000000E+005,  0.94733082607E+007,  0.16500000000E+002,  0.00000000000E+000,  0.10000000000E+001
  0.98174000000E+005,  0.94777128091E+007,  0.16500000000E+002,  0.00000000000E+000,  0.10000000000E+001
  0.98204000000E+005,  0.94820780130E+007,  0.16500000000E+002,  0.00000000000E+000,  0.10000000000E+001
  0.98234000000E+005,  0.94864045650E+007,  0.16500000000E+002,  0.00000000000E+000,  0.10000000000E+001
  0.98264000000E+005,  0.94906931390E+007,  0.16500000000E+002,  0.00000000000E+000,  0.10000000000E+001
  0.98294000000E+005,  0.94949443913E+007,  0.16500000000E+002,  0.00000000000E+000,  0.10000000000E+001
  0.98324000000E+005,  0.94991589607E+007,  0.16500000000E+002,  0.00000000000E+000,  0.10000000000E+001
  0.98354000000E+005,  0.95033374695E+007,  0.16500000000E+002,  0.00000000000E+000,  0.10000000000E+001
  0.98384000000E+005,  0.95074805239E+007,  0.16500000000E+002,  0.00000000000E+000,  0.10000000000E+001
  0.98414000000E+005,  0.95115887143E+007,  0.16500000000E+002,  0.00000000000E+000,  0.10000000000E+001
  0.98444000000E+005,  0.95156626165E+007,  0.16500000000E+002,  0.00000000000E+000,  0.10000000000E+001
  0.98474000000E+005,  0.95197027913E+007,  0.16500000000E+002,  0.00000000000E+000,  0.10000000000E+001
  0.98504000000E+005,  0.95237097857E+007,  0.16500000000E+002,  0.00000000000E+000,  0.10000000000E+001
  0.98534000000E+005,  0.95276841332E+007,  0.16500000000E+002,  0.00000000000E+000,  0.10000000000E+001
  0.98564000000E+005,  0.95316263537E+007,  0.16500000000E+002,  0.00000000000E+000,  0.10000000000E+001
  0.98594000000E+005,  0.95355369549E+007,  0.16500000000E+002,  0.00000000000E+000,  0.10000000000E+001
  0.98624000000E+005,  0.95394164319E+007,  0.16500000000E+002,  0.00000000000E+000,  0.10000000000E+001
  0.98654000000E+005,  0.95432652677E+007,  0.16500000000E+002,  0.00000000000E+000,  0.10000000000E+001
  0.98684000000E+005,  0.95470839341E+007,  0.16500000000E+002,  0.00000000000E+000,  0.10000000000E+001
  0.98714000000E+005,  0.95508728914E+007,  0.16500000000E+002,  0.00000000000E+000,  0.10000000000E+001
  0.98744000000E+005,  0.95546325893E+007,  0.16500000000E+002,  0.00000000000E+000,  0.10000000000E+001
  0.98774000000E+005,  0.95583634667E+007,  0.16500000000E+002,  0.00000000000E+000,  0.10000000000E+001
  0.98804000000E+005,  0.95620659525E+007,  0.16500000000E+002,  0.00000000000E+000,  0.10000000000E+001
  0.98834000000E+005,  0.95657404658E+007,  0.16500000000E+002,  0.00000000000E+000,  0.10000000000E+001
  0.98864000000E+005,  0.95693874159E+007,  0.16500000000E+002,  0.00000000000E+000,  0.10000000000E+001
  0.98894000000E+005,  0.95730072029E+007,  0.16500000000E+002,  0.00000000000E+000,  0.10000000000E+001
  0.98924000000E+005,  0.95766002179E+007,  0.16500000000E+002,  0.00000000000E+000,  0.10000000000E+001
  0.98954000000E+005,  0.95801668433E+007,  0.16500000000E+002,  0.00000000000E+000,  0.10000000000E+001
  0.98984000000E+005,  0.95837074529E+007,  0.16500000000E+002,  0.00000000000E+000,  0.10000000000E+001
  0.99014000000E+005,  0.95872224123E+007,  0.16500000000E+002,  0.00000000000E+000,  0.10000000000E+001
  0.99044000000E+005,  0.95907120791E+007,  0.16500000000E+002,  0.00000000000E+000,  0.10000000000E+001
  0.99074000000E+005,  0.95941768031E+007,  0.16500000000E+002,  0.00000000000E+000,  0.10000000000E+001
  0.99104000000E+005,  0.95976169267E+007,  0.16500000000E+002,  0.00000000000E+000,  0.10000000000E+001
  0.99134000000E+005,  0.96010327848E+007,  0.16500000000E+002,  0.00000000000E+000,  0.10000000000E+001
  0.99164000000E+005,  0.96044247052E+007,  0.16500000000E+002,  0.00000000000E+000,  0.10000000000E+001
  0.99194000000E+005,  0.96077930089E+007,  0.16500000000E+002,  0.00000000000E+000,  0.10000000000E+001
  0.99224000000E+005,  0.96111380100E+007,  0.16500000000E+002,  0.00000000000E+000,  0.10000000000E+001
  0.99254000000E+005,  0.96144600161E+007,  0.16500000000E+002,  0.00000000000E+000,  0.10000000000E+001
  0.99284000000E+005,  0.96177593286E+007,  0.16500000000E+002,  0.00000000000E+000,  0.10000000000E+001
  0.99314000000E+005,  0.96210362426E+007,  0.16500000000E+002,  0.00000000000E+000,  0.10000000000E+001
  0.99344000000E+005,  0.96242910470E+007,  0.16500000000E+002,  0.00000000000E+000,  0.10000000000E+001
  0.99374000000E+005,  0.96275240252E+007,  0.16500000000E+002,  0.00000000000E+000,  0.10000000000E+001
  0.99404000000E+005,  0.96307354546E+007,  0.16500000000E+002,  0.00000000000E+000,  0.10000000000E+001
  0.99434000000E+005,  0.96339256072E+007,  0.16500000000E+002,  0.00000000000E+000,  0.10000000000E+001
  0.99464000000E+005,  0.96370947497E+007,  0.16500000000E+002,  0.00000000000E+000,  0.10000000000E+001
  0.99494000000E+005,  0.96402431433E+007,  0.16500000000E+002,  0.00000000000E+000,  0.10000000000E+001
  0.99524000000E+005,  0.96433710443E+007,  0.16500000000E+002,  0.00000000000E+000,  0.10000000000E+001
  0.99554000000E+005,  0.96464787039E+007,  0.16500000000E+002,  0.00000000000E+000,  0.10000000000E+001
  0.99584000000E+005,  0.96495663685E+007,  0.16500000000E+002,  0.00000000000E+000,  0.10000000000E+001
  0.99614000000E+005,  0.96526342798E+007,  0.16500000000E+002,  0.00000000000E+000,  0.10000000000E+001
  0.99644000000E+005,  0.96556826747E+007,  0.16500000000E+002,  0.00000000000E+000,  0.10000000000E+001
  0.99674000000E+005,  0.96587117860E+007,  0.16500000000E+002,  0.00000000000E+000,  0.10000000000E+001
  0.99704000000E+005,  0.96617218417E+007,  0.16500000000E+002,  0.00000000000E+000,  0.10000000000E+001
  0.99734000000E+005,  0.96647130659E+007,  0.16500000000E+002,  0.00000000000E+000,  0.10000000000E+001
  0.99764000000E+005,  0.96676856782E+007,  0.16500000000E+002,  0.00000000000E+000,  0.10000000000E+001
  0.99794000000E+005,  0.96706398945E+007,  0.16500000000E+002,  0.00000000000E+000,  0.10000000000E+001
  0.99824000000E+005,  0.96735759264E+007,  0.16500000000E+002,  0.00000000000E+000,  0.10000000000E+001
  0.99854000000E+005,  0.94815933386E+007,  0.16500000000E+002,  0.00000000000E+000,  0.10000000000E+001
  0.99884000000E+005,  0.93388709737E+007,  0.16500000000E+002,  0.00000000000E+000,  0.10000000000E+001
  0.99914000000E+005,  0.92789174516E+007,  0.16500000000E+002,  0.00000000000E+000,  0.10000000000E+001
  0.99944000000E+005,  0.92495945120E+007,  0.16500000000E+002,  0.00000000000E+000,  0.10000000000E+001
  0.99974000000E+005,  0.92338200227E+007,  0.16500000000E+002,  0.00000000000E+000,  0.10000000000E+001
  0.10000400000E+006,  0.92247732409E+007,  0.16500000000E+002,  0.00000000000E+000,  0.10000000000E+001
  0.10003400000E+006,  0.92193884302E+007,  0.16500000000E+002,  0.00000000000E+000,  0.10000000000E+001
  0.10006400000E+006,  0.92161538573E+007,  0.16500000000E+002,  0.00000000000E+000,  0.10000000000E+001
  0.10009400000E+006,  0.92142638242E+007,  0.16500000000E+002,  0.00000000000E+000,  0.10000000000E+001
  0.10012400000E+006,  0.92132587613E+007,  0.16500000000E+002,  0.00000000000E+000,  0.10000000000E+001
  0.10015400000E+006,  0.92128611848E+007,  0.16500000000E+002,  0.00000000000E+000,  0.10000000000E+001
  0.10018400000E+006,  0.92128943582E+007,  0.16500000000E+002,  0.00000000000E+000,  0.10000000000E+001
  0.10021400000E+006,  0.92132420579E+007,  0.16500000000E+002,  0.00000000000E+000,  0.10000000000E+001
  0.10024400000E+006,  0.92138259046E+007,  0.16500000000E+002,  0.00000000000E+000,  0.10000000000E+001
  0.10027400000E+006,  0.92145915374E+007,  0.16500000000E+002,  0.00000000000E+000,  0.10000000000E+001
  0.10030400000E+006,  0.92154981099E+007,  0.16500000000E+002,  0.00000000000E+000,  0.10000000000E+001
  0.10033400000E+006,  0.92165096227E+007,  0.16500000000E+002,  0.00000000000E+000,  0.10000000000E+001
  0.10036400000E+006,  0.92175893391E+007,  0.16500000000E+002,  0.00000000000E+000,  0.10000000000E+001
  0.10039400000E+006,  0.92187159544E+007,  0.16500000000E+002,  0.00000000000E+000,  0.10000000000E+001
  0.10042400000E+006,  0.92198843472E+007,  0.16500000000E+002,  0.00000000000E+000,  0.10000000000E+001
  0.10045400000E+006,  0.92210931687E+007,  0.16500000000E+002,  0.00000000000E+000,  0.10000000000E+001
  0.10048400000E+006,  0.92223386306E+007,  0.16500000000E+002,  0.00000000000E+000,  0.10000000000E+001
  0.10051400000E+006,  0.92236198149E+007,  0.16500000000E+002,  0.00000000000E+000,  0.10000000000E+001
  0.10054400000E+006,  0.92249365527E+007,  0.16500000000E+002,  0.00000000000E+000,  0.10000000000E+001
