"           TIME(S)","              PRES","              TEMP","             SAT_G","             SAT_L"
  0.23620500000E+005,  0.85745621770E+006,  0.16500000000E+002,  0.00000000000E+000,  0.10000000000E+001
  0.23623000000E+005,  0.12405355456E+007,  0.16500000000E+002,  0.00000000000E+000,  0.10000000000E+001
  0.23628000000E+005,  0.18990098585E+007,  0.16500000000E+002,  0.00000000000E+000,  0.10000000000E+001
  0.23633000000E+005,  0.24999522276E+007,  0.16500000000E+002,  0.00000000000E+000,  0.10000000000E+001
  0.23638000000E+005,  0.30655215906E+007,  0.16500000000E+002,  0.00000000000E+000,  0.10000000000E+001
  0.23643000000E+005,  0.35724629956E+007,  0.16500000000E+002,  0.00000000000E+000,  0.10000000000E+001
  0.23648000000E+005,  0.33912381271E+007,  0.16500000000E+002,  0.00000000000E+000,  0.10000000000E+001
  0.23653000000E+005,  0.32883172210E+007,  0.16500000000E+002,  0.00000000000E+000,  0.10000000000E+001
  0.23658000000E+005,  0.32189150891E+007,  0.16500000000E+002,  0.00000000000E+000,  0.10000000000E+001
  0.23663000000E+005,  0.31679285630E+007,  0.16500000000E+002,  0.00000000000E+000,  0.10000000000E+001
  0.23668000000E+005,  0.31281309354E+007,  0.16500000000E+002,  0.00000000000E+000,  0.10000000000E+001
  0.23673000000E+005,  0.30956361654E+007,  0.16500000000E+002,  0.00000000000E+000,  0.10000000000E+001
  0.23678000000E+005,  0.30680754015E+007,  0.16500000000E+002,  0.00000000000E+000,  0.10000000000E+001
  0.23683000000E+005,  0.30441845180E+007,  0.16500000000E+002,  0.00000000000E+000,  0.10000000000E+001
  0.23688000000E+005,  0.30229869791E+007,  0.16500000000E+002,  0.00000000000E+000,  0.10000000000E+001
  0.23693000000E+005,  0.30038335527E+007,  0.16500000000E+002,  0.00000000000E+000,  0.10000000000E+001
  0.23698000000E+005,  0.29862719615E+007,  0.16500000000E+002,  0.00000000000E+000,  0.10000000000E+001
  0.23703000000E+005,  0.29699797684E+007,  0.16500000000E+002,  0.00000000000E+000,  0.10000000000E+001
  0.23708000000E+005,  0.29547229097E+007,  0.16500000000E+002,  0.00000000000E+000,  0.10000000000E+001
  0.23713000000E+005,  0.29403284291E+007,  0.16500000000E+002,  0.00000000000E+000,  0.10000000000E+001
  0.23718000000E+005,  0.29266657437E+007,  0.16500000000E+002,  0.00000000000E+000,  0.10000000000E+001
  0.23723000000E+005,  0.29136320701E+007,  0.16500000000E+002,  0.00000000000E+000,  0.10000000000E+001
  0.23728000000E+005,  0.29011554481E+007,  0.16500000000E+002,  0.00000000000E+000,  0.10000000000E+001
  0.23733000000E+005,  0.28891725822E+007,  0.16500000000E+002,  0.00000000000E+000,  0.10000000000E+001
  0.23738000000E+005,  0.28776317783E+007,  0.16500000000E+002,  0.00000000000E+000,  0.10000000000E+001
  0.23743000000E+005,  0.28664958128E+007,  0.16500000000E+002,  0.00000000000E+000,  0.10000000000E+001
  0.23748000000E+005,  0.28557297299E+007,  0.16500000000E+002,  0.00000000000E+000,  0.10000000000E+001
  0.23753000000E+005,  0.28453041762E+007,  0.16500000000E+002,  0.00000000000E+000,  0.10000000000E+001
  0.23758000000E+005,  0.28351940250E+007,  0.16500000000E+002,  0.00000000000E+000,  0.10000000000E+001
  0.23763000000E+005,  0.28253774593E+007,  0.16500000000E+002,  0.00000000000E+000,  0.10000000000E+001
  0.23768000000E+005,  0.28158353244E+007,  0.16500000000E+002,  0.00000000000E+000,  0.10000000000E+001
  0.23773000000E+005,  0.28065506473E+007,  0.16500000000E+002,  0.00000000000E+000,  0.10000000000E+001
  0.23778000000E+005,  0.27975082670E+007,  0.16500000000E+002,  0.00000000000E+000,  0.10000000000E+001
  0.23783000000E+005,  0.27886945489E+007,  0.16500000000E+002,  0.00000000000E+000,  0.10000000000E+001
  0.23788000000E+005,  0.27800971563E+007,  0.16500000000E+002,  0.00000000000E+000,  0.10000000000E+001
  0.23793000000E+005,  0.27717048691E+007,  0.16500000000E+002,  0.00000000000E+000,  0.10000000000E+001
  0.23798000000E+005,  0.27635074341E+007,  0.16500000000E+002,  0.00000000000E+000,  0.10000000000E+001
  0.23803000000E+005,  0.27554954431E+007,  0.16500000000E+002,  0.00000000000E+000,  0.10000000000E+001
  0.23808000000E+005,  0.27476602310E+007,  0.16500000000E+002,  0.00000000000E+000,  0.10000000000E+001
  0.23813000000E+005,  0.27399937894E+007,  0.16500000000E+002,  0.00000000000E+000,  0.10000000000E+001
  0.23818000000E+005,  0.27324886943E+007,  0.16500000000E+002,  0.00000000000E+000,  0.10000000000E+001
  0.23823000000E+005,  0.27251380437E+007,  0.16500000000E+002,  0.00000000000E+000,  0.10000000000E+001
  0.23828000000E+005,  0.27179354037E+007,  0.16500000000E+002,  0.00000000000E+000,  0.10000000000E+001
  0.23833000000E+005,  0.27108747626E+007,  0.16500000000E+002,  0.00000000000E+000,  0.10000000000E+001
  0.23838000000E+005,  0.27039504899E+007,  0.16500000000E+002,  0.00000000000E+000,  0.10000000000E+001
  0.23843000000E+005,  0.26971573016E+007,  0.16500000000E+002,  0.00000000000E+000,  0.10000000000E+001
  0.23848000000E+005,  0.26904902287E+007,  0.16500000000E+002,  0.00000000000E+000,  0.10000000000E+001
  0.23853000000E+005,  0.26839445896E+007,  0.16500000000E+002,  0.00000000000E+000,  0.10000000000E+001
  0.23858000000E+005,  0.26775159667E+007,  0.16500000000E+002,  0.00000000000E+000,  0.10000000000E+001
  0.23863000000E+005,  0.26712001840E+007,  0.16500000000E+002,  0.00000000000E+000,  0.10000000000E+001
  0.23868000000E+005,  0.26649932882E+007,  0.16500000000E+002,  0.00000000000E+000,  0.10000000000E+001
  0.23873000000E+005,  0.26588915316E+007,  0.16500000000E+002,  0.00000000000E+000,  0.10000000000E+001
  0.23878000000E+005,  0.26528913568E+007,  0.16500000000E+002,  0.00000000000E+000,  0.10000000000E+001
  0.23883000000E+005,  0.26469893826E+007,  0.16500000000E+002,  0.00000000000E+000,  0.10000000000E+001
  0.23888000000E+005,  0.26411823917E+007,  0.16500000000E+002,  0.00000000000E+000,  0.10000000000E+001
  0.23893000000E+005,  0.26354673193E+007,  0.16500000000E+002,  0.00000000000E+000,  0.10000000000E+001
  0.23898000000E+005,  0.26298412430E+007,  0.16500000000E+002,  0.00000000000E+000,  0.10000000000E+001
  0.23903000000E+005,  0.26243013734E+007,  0.16500000000E+002,  0.00000000000E+000,  0.10000000000E+001
  0.23908000000E+005,  0.26188450457E+007,  0.16500000000E+002,  0.00000000000E+000,  0.10000000000E+001
  0.23913000000E+005,  0.26134693023E+007,  0.16500000000E+002,  0.00000000000E+000,  0.10000000000E+001
  0.23918000000E+005,  0.26081721386E+007,  0.16500000000E+002,  0.00000000000E+000,  0.10000000000E+001
  0.23923000000E+005,  0.26029512651E+007,  0.16500000000E+002,  0.00000000000E+000,  0.10000000000E+001
  0.23928000000E+005,  0.25978044212E+007,  0.16500000000E+002,  0.00000000000E+000,  0.10000000000E+001
  0.23933000000E+005,  0.25927294464E+007,  0.16500000000E+002,  0.00000000000E+000,  0.10000000000E+001
  0.23938000000E+005,  0.25877242735E+007,  0.16500000000E+002,  0.00000000000E+000,  0.10000000000E+001
  0.23943000000E+005,  0.25827869208E+007,  0.16500000000E+002,  0.00000000000E+000,  0.10000000000E+001
  0.23948000000E+005,  0.25779154858E+007,  0.16500000000E+002,  0.00000000000E+000,  0.10000000000E+001
  0.23953000000E+005,  0.25731081407E+007,  0.16500000000E+002,  0.00000000000E+000,  0.10000000000E+001
  0.23958000000E+005,  0.25683631285E+007,  0.16500000000E+002,  0.00000000000E+000,  0.10000000000E+001
  0.23963000000E+005,  0.25636787586E+007,  0.16500000000E+002,  0.00000000000E+000,  0.10000000000E+001
  0.23968000000E+005,  0.25590534042E+007,  0.16500000000E+002,  0.00000000000E+000,  0.10000000000E+001
  0.23973000000E+005,  0.25544854986E+007,  0.16500000000E+002,  0.00000000000E+000,  0.10000000000E+001
  0.23978000000E+005,  0.25499735323E+007,  0.16500000000E+002,  0.00000000000E+000,  0.10000000000E+001
  0.23983000000E+005,  0.25455160508E+007,  0.16500000000E+002,  0.00000000000E+000,  0.10000000000E+001
  0.23988000000E+005,  0.25411116512E+007,  0.16500000000E+002,  0.00000000000E+000,  0.10000000000E+001
  0.23993000000E+005,  0.25367589807E+007,  0.16500000000E+002,  0.00000000000E+000,  0.10000000000E+001
  0.23998000000E+005,  0.25324567339E+007,  0.16500000000E+002,  0.00000000000E+000,  0.10000000000E+001
  0.24003000000E+005,  0.25282034617E+007,  0.16500000000E+002,  0.00000000000E+000,  0.10000000000E+001
  0.24008000000E+005,  0.25239981597E+007,  0.16500000000E+002,  0.00000000000E+000,  0.10000000000E+001
  0.24013000000E+005,  0.25198396639E+007,  0.16500000000E+002,  0.00000000000E+000,  0.10000000000E+001
  0.24018000000E+005,  0.25157268266E+007,  0.16500000000E+002,  0.00000000000E+000,  0.10000000000E+001
  0.24023000000E+005,  0.25116585434E+007,  0.16500000000E+002,  0.00000000000E+000,  0.10000000000E+001
  0.24028000000E+005,  0.25076337493E+007,  0.16500000000E+002,  0.00000000000E+000,  0.10000000000E+001
  0.24033000000E+005,  0.25036514160E+007,  0.16500000000E+002,  0.00000000000E+000,  0.10000000000E+001
  0.24038000000E+005,  0.24997105494E+007,  0.16500000000E+002,  0.00000000000E+000,  0.10000000000E+001
  0.24043000000E+005,  0.24958101879E+007,  0.16500000000E+002,  0.00000000000E+000,  0.10000000000E+001
  0.24048000000E+005,  0.24919494013E+007,  0.16500000000E+002,  0.00000000000E+000,  0.10000000000E+001
  0.24053000000E+005,  0.24881272892E+007,  0.16500000000E+002,  0.00000000000E+000,  0.10000000000E+001
  0.24058000000E+005,  0.24843429800E+007,  0.16500000000E+002,  0.00000000000E+000,  0.10000000000E+001
  0.24063000000E+005,  0.24805956294E+007,  0.16500000000E+002,  0.00000000000E+000,  0.10000000000E+001
  0.24068000000E+005,  0.24768844196E+007,  0.16500000000E+002,  0.00000000000E+000,  0.10000000000E+001
  0.24073000000E+005,  0.24732085584E+007,  0.16500000000E+002,  0.00000000000E+000,  0.10000000000E+001
  0.24078000000E+005,  0.24695672778E+007,  0.16500000000E+002,  0.00000000000E+000,  0.10000000000E+001
  0.24083000000E+005,  0.24659598334E+007,  0.16500000000E+002,  0.00000000000E+000,  0.10000000000E+001
  0.24088000000E+005,  0.24623855034E+007,  0.16500000000E+002,  0.00000000000E+000,  0.10000000000E+001
  0.24093000000E+005,  0.24588435879E+007,  0.16500000000E+002,  0.00000000000E+000,  0.10000000000E+001
  0.24098000000E+005,  0.24553334078E+007,  0.16500000000E+002,  0.00000000000E+000,  0.10000000000E+001
  0.24103000000E+005,  0.24518543044E+007,  0.16500000000E+002,  0.00000000000E+000,  0.10000000000E+001
  0.24108000000E+005,  0.24484056384E+007,  0.16500000000E+002,  0.00000000000E+000,  0.10000000000E+001
  0.24113000000E+005,  0.24449867893E+007,  0.16500000000E+002,  0.00000000000E+000,  0.10000000000E+001
  0.24118000000E+005,  0.24415971547E+007,  0.16500000000E+002,  0.00000000000E+000,  0.10000000000E+001
  0.24123000000E+005,  0.24382361498E+007,  0.16500000000E+002,  0.00000000000E+000,  0.10000000000E+001
  0.24128000000E+005,  0.24349032064E+007,  0.16500000000E+002,  0.00000000000E+000,  0.10000000000E+001
  0.24133000000E+005,  0.24315977729E+007,  0.16500000000E+002,  0.00000000000E+000,  0.10000000000E+001
  0.24138000000E+005,  0.24283193131E+007,  0.16500000000E+002,  0.00000000000E+000,  0.10000000000E+001
  0.24143000000E+005,  0.24250673061E+007,  0.16500000000E+002,  0.00000000000E+000,  0.10000000000E+001
  0.24148000000E+005,  0.24218412457E+007,  0.16500000000E+002,  0.00000000000E+000,  0.10000000000E+001
  0.24153000000E+005,  0.24186406397E+007,  0.16500000000E+002,  0.00000000000E+000,  0.10000000000E+001
  0.24158000000E+005,  0.24154650097E+007,  0.16500000000E+002,  0.00000000000E+000,  0.10000000000E+001
  0.24163000000E+005,  0.24123138904E+007,  0.16500000000E+002,  0.00000000000E+000,  0.10000000000E+001
  0.24168000000E+005,  0.24091868293E+007,  0.16500000000E+002,  0.00000000000E+000,  0.10000000000E+001
  0.24173000000E+005,  0.24060833862E+007,  0.16500000000E+002,  0.00000000000E+000,  0.10000000000E+001
  0.24178000000E+005,  0.24030031328E+007,  0.16500000000E+002,  0.00000000000E+000,  0.10000000000E+001
  0.24183000000E+005,  0.23999456525E+007,  0.16500000000E+002,  0.00000000000E+000,  0.10000000000E+001
  0.24188000000E+005,  0.23969105397E+007,  0.16500000000E+002,  0.00000000000E+000,  0.10000000000E+001
  0.24193000000E+005,  0.23938973995E+007,  0.16500000000E+002,  0.00000000000E+000,  0.10000000000E+001
  0.24198000000E+005,  0.23909058476E+007,  0.16500000000E+002,  0.00000000000E+000,  0.10000000000E+001
  0.24203000000E+005,  0.23879355098E+007,  0.16500000000E+002,  0.00000000000E+000,  0.10000000000E+001
  0.24208000000E+005,  0.23849860216E+007,  0.16500000000E+002,  0.00000000000E+000,  0.10000000000E+001
  0.24213000000E+005,  0.23820570279E+007,  0.16500000000E+002,  0.00000000000E+000,  0.10000000000E+001
  0.24218000000E+005,  0.23791481829E+007,  0.16500000000E+002,  0.00000000000E+000,  0.10000000000E+001
  0.24223000000E+005,  0.23762591497E+007,  0.16500000000E+002,  0.00000000000E+000,  0.10000000000E+001
  0.24228000000E+005,  0.23733895997E+007,  0.16500000000E+002,  0.00000000000E+000,  0.10000000000E+001
  0.24233000000E+005,  0.23705392131E+007,  0.16500000000E+002,  0.00000000000E+000,  0.10000000000E+001
  0.24238000000E+005,  0.23677076777E+007,  0.16500000000E+002,  0.00000000000E+000,  0.10000000000E+001
  0.24243000000E+005,  0.23648946893E+007,  0.16500000000E+002,  0.00000000000E+000,  0.10000000000E+001
  0.24248000000E+005,  0.23620999514E+007,  0.16500000000E+002,  0.00000000000E+000,  0.10000000000E+001
  0.24253000000E+005,  0.23593231746E+007,  0.16500000000E+002,  0.00000000000E+000,  0.10000000000E+001
  0.24258000000E+005,  0.23565640768E+007,  0.16500000000E+002,  0.00000000000E+000,  0.10000000000E+001
  0.24263000000E+005,  0.23538223826E+007,  0.16500000000E+002,  0.00000000000E+000,  0.10000000000E+001
  0.24268000000E+005,  0.23510978236E+007,  0.16500000000E+002,  0.00000000000E+000,  0.10000000000E+001
  0.24273000000E+005,  0.23483901376E+007,  0.16500000000E+002,  0.00000000000E+000,  0.10000000000E+001
  0.24278000000E+005,  0.23456990688E+007,  0.16500000000E+002,  0.00000000000E+000,  0.10000000000E+001
  0.24283000000E+005,  0.23430243674E+007,  0.16500000000E+002,  0.00000000000E+000,  0.10000000000E+001
  0.24288000000E+005,  0.23403657898E+007,  0.16500000000E+002,  0.00000000000E+000,  0.10000000000E+001
  0.24293000000E+005,  0.23377230978E+007,  0.16500000000E+002,  0.00000000000E+000,  0.10000000000E+001
  0.24298000000E+005,  0.23350960590E+007,  0.16500000000E+002,  0.00000000000E+000,  0.10000000000E+001
  0.24303000000E+005,  0.23324844463E+007,  0.16500000000E+002,  0.00000000000E+000,  0.10000000000E+001
  0.24308000000E+005,  0.23298880380E+007,  0.16500000000E+002,  0.00000000000E+000,  0.10000000000E+001
  0.24313000000E+005,  0.23273066174E+007,  0.16500000000E+002,  0.00000000000E+000,  0.10000000000E+001
  0.24318000000E+005,  0.23247399726E+007,  0.16500000000E+002,  0.00000000000E+000,  0.10000000000E+001
  0.24323000000E+005,  0.23221878968E+007,  0.16500000000E+002,  0.00000000000E+000,  0.10000000000E+001
  0.24328000000E+005,  0.23196501878E+007,  0.16500000000E+002,  0.00000000000E+000,  0.10000000000E+001
  0.24333000000E+005,  0.23171266477E+007,  0.16500000000E+002,  0.00000000000E+000,  0.10000000000E+001
  0.24338000000E+005,  0.23146170833E+007,  0.16500000000E+002,  0.00000000000E+000,  0.10000000000E+001
  0.24343000000E+005,  0.23121213055E+007,  0.16500000000E+002,  0.00000000000E+000,  0.10000000000E+001
  0.24348000000E+005,  0.23096391295E+007,  0.16500000000E+002,  0.00000000000E+000,  0.10000000000E+001
  0.24353000000E+005,  0.23071703746E+007,  0.16500000000E+002,  0.00000000000E+000,  0.10000000000E+001
  0.24358000000E+005,  0.23047148636E+007,  0.16500000000E+002,  0.00000000000E+000,  0.10000000000E+001
  0.24363000000E+005,  0.23022724237E+007,  0.16500000000E+002,  0.00000000000E+000,  0.10000000000E+001
  0.24368000000E+005,  0.22998428855E+007,  0.16500000000E+002,  0.00000000000E+000,  0.10000000000E+001
  0.24373000000E+005,  0.22974260833E+007,  0.16500000000E+002,  0.00000000000E+000,  0.10000000000E+001
  0.24378000000E+005,  0.22950218548E+007,  0.16500000000E+002,  0.00000000000E+000,  0.10000000000E+001
  0.24383000000E+005,  0.22926300412E+007,  0.16500000000E+002,  0.00000000000E+000,  0.10000000000E+001
  0.24388000000E+005,  0.22902504872E+007,  0.16500000000E+002,  0.00000000000E+000,  0.10000000000E+001
  0.24393000000E+005,  0.22878830403E+007,  0.16500000000E+002,  0.00000000000E+000,  0.10000000000E+001
  0.24398000000E+005,  0.22855275517E+007,  0.16500000000E+002,  0.00000000000E+000,  0.10000000000E+001
  0.24403000000E+005,  0.22831838752E+007,  0.16500000000E+002,  0.00000000000E+000,  0.10000000000E+001
  0.24408000000E+005,  0.22808518679E+007,  0.16500000000E+002,  0.00000000000E+000,  0.10000000000E+001
  0.24413000000E+005,  0.22785313895E+007,  0.16500000000E+002,  0.00000000000E+000,  0.10000000000E+001
  0.24418000000E+005,  0.22762223028E+007,  0.16500000000E+002,  0.00000000000E+000,  0.10000000000E+001
  0.24423000000E+005,  0.22739244733E+007,  0.16500000000E+002,  0.00000000000E+000,  0.10000000000E+001
  0.24428000000E+005,  0.22716377690E+007,  0.16500000000E+002,  0.00000000000E+000,  0.10000000000E+001
  0.24433000000E+005,  0.22693620607E+007,  0.16500000000E+002,  0.00000000000E+000,  0.10000000000E+001
  0.24438000000E+005,  0.22670972216E+007,  0.16500000000E+002,  0.00000000000E+000,  0.10000000000E+001
  0.24443000000E+005,  0.22648431276E+007,  0.16500000000E+002,  0.00000000000E+000,  0.10000000000E+001
  0.24448000000E+005,  0.22625996567E+007,  0.16500000000E+002,  0.00000000000E+000,  0.10000000000E+001
  0.24453000000E+005,  0.22603666895E+007,  0.16500000000E+002,  0.00000000000E+000,  0.10000000000E+001
  0.24458000000E+005,  0.22581441087E+007,  0.16500000000E+002,  0.00000000000E+000,  0.10000000000E+001
  0.24463000000E+005,  0.22559317994E+007,  0.16500000000E+002,  0.00000000000E+000,  0.10000000000E+001
  0.24468000000E+005,  0.22537296487E+007,  0.16500000000E+002,  0.00000000000E+000,  0.10000000000E+001
  0.24473000000E+005,  0.22515375461E+007,  0.16500000000E+002,  0.00000000000E+000,  0.10000000000E+001
  0.24478000000E+005,  0.22493553828E+007,  0.16500000000E+002,  0.00000000000E+000,  0.10000000000E+001
  0.24483000000E+005,  0.22471830523E+007,  0.16500000000E+002,  0.00000000000E+000,  0.10000000000E+001
  0.24488000000E+005,  0.22450204499E+007,  0.16500000000E+002,  0.00000000000E+000,  0.10000000000E+001
  0.24493000000E+005,  0.22428674728E+007,  0.16500000000E+002,  0.00000000000E+000,  0.10000000000E+001
  0.24498000000E+005,  0.22407240204E+007,  0.16500000000E+002,  0.00000000000E+000,  0.10000000000E+001
  0.24503000000E+005,  0.22385899933E+007,  0.16500000000E+002,  0.00000000000E+000,  0.10000000000E+001
  0.24508000000E+005,  0.22364652946E+007,  0.16500000000E+002,  0.00000000000E+000,  0.10000000000E+001
  0.24513000000E+005,  0.22343498285E+007,  0.16500000000E+002,  0.00000000000E+000,  0.10000000000E+001
  0.24518000000E+005,  0.22322435012E+007,  0.16500000000E+002,  0.00000000000E+000,  0.10000000000E+001
  0.24520000000E+005,  0.22314024062E+007,  0.16500000000E+002,  0.00000000000E+000,  0.10000000000E+001
