"           TIME(S)","              PRES","              TEMP","             SAT_G","             SAT_L"
  0.94908000000E+005,  0.29215531949E+006,  0.16500000000E+002,  0.00000000000E+000,  0.10000000000E+001
  0.95058000000E+005,  0.32962519643E+006,  0.16500000000E+002,  0.00000000000E+000,  0.10000000000E+001
  0.95338000000E+005,  0.44319306189E+006,  0.16500000000E+002,  0.00000000000E+000,  0.10000000000E+001
  0.95618000000E+005,  0.54898716516E+006,  0.16500000000E+002,  0.00000000000E+000,  0.10000000000E+001
  0.95898000000E+005,  0.63699575454E+006,  0.16500000000E+002,  0.00000000000E+000,  0.10000000000E+001
  0.96178000000E+005,  0.70814216459E+006,  0.16500000000E+002,  0.00000000000E+000,  0.10000000000E+001
  0.96194400000E+005,  0.71225107026E+006,  0.16500000000E+002,  0.00000000000E+000,  0.10000000000E+001
  0.96474400000E+005,  0.76945540725E+006,  0.16500000000E+002,  0.00000000000E+000,  0.10000000000E+001
  0.96754400000E+005,  0.81730234190E+006,  0.16500000000E+002,  0.00000000000E+000,  0.10000000000E+001
  0.97034400000E+005,  0.85802413892E+006,  0.16500000000E+002,  0.00000000000E+000,  0.10000000000E+001
  0.97314400000E+005,  0.89309934915E+006,  0.16500000000E+002,  0.00000000000E+000,  0.10000000000E+001
  0.97510800000E+005,  0.91532112800E+006,  0.16500000000E+002,  0.00000000000E+000,  0.10000000000E+001
  0.97790800000E+005,  0.94302664942E+006,  0.16500000000E+002,  0.00000000000E+000,  0.10000000000E+001
  0.98070800000E+005,  0.96742500034E+006,  0.16500000000E+002,  0.00000000000E+000,  0.10000000000E+001
  0.98350800000E+005,  0.98904312715E+006,  0.16500000000E+002,  0.00000000000E+000,  0.10000000000E+001
  0.98630800000E+005,  0.10083027060E+007,  0.16500000000E+002,  0.00000000000E+000,  0.10000000000E+001
  0.98827200000E+005,  0.10207761751E+007,  0.16500000000E+002,  0.00000000000E+000,  0.10000000000E+001
  0.99107200000E+005,  0.10367487940E+007,  0.16500000000E+002,  0.00000000000E+000,  0.10000000000E+001
  0.99387200000E+005,  0.10511537216E+007,  0.16500000000E+002,  0.00000000000E+000,  0.10000000000E+001
  0.99667200000E+005,  0.10641923598E+007,  0.16500000000E+002,  0.00000000000E+000,  0.10000000000E+001
  0.99947200000E+005,  0.10735596024E+007,  0.16500000000E+002,  0.00000000000E+000,  0.10000000000E+001
  0.10014300000E+006,  0.10769596040E+007,  0.16500000000E+002,  0.00000000000E+000,  0.10000000000E+001
  0.10042300000E+006,  0.10800805022E+007,  0.16500000000E+002,  0.00000000000E+000,  0.10000000000E+001
  0.10070300000E+006,  0.10832648163E+007,  0.16500000000E+002,  0.00000000000E+000,  0.10000000000E+001
  0.10098300000E+006,  0.10867514893E+007,  0.16500000000E+002,  0.00000000000E+000,  0.10000000000E+001
  0.10126300000E+006,  0.10904290376E+007,  0.16500000000E+002,  0.00000000000E+000,  0.10000000000E+001
  0.10146000000E+006,  0.10930621669E+007,  0.16500000000E+002,  0.00000000000E+000,  0.10000000000E+001
  0.10174000000E+006,  0.10967937858E+007,  0.16500000000E+002,  0.00000000000E+000,  0.10000000000E+001
  0.10202000000E+006,  0.11008794610E+007,  0.16500000000E+002,  0.00000000000E+000,  0.10000000000E+001
  0.10230000000E+006,  0.11105361147E+007,  0.16500000000E+002,  0.00000000000E+000,  0.10000000000E+001
  0.10258000000E+006,  0.11209807353E+007,  0.16500000000E+002,  0.00000000000E+000,  0.10000000000E+001
  0.10277600000E+006,  0.11278226702E+007,  0.16500000000E+002,  0.00000000000E+000,  0.10000000000E+001
  0.10305600000E+006,  0.11362978458E+007,  0.16500000000E+002,  0.00000000000E+000,  0.10000000000E+001
  0.10333600000E+006,  0.11436484777E+007,  0.16500000000E+002,  0.00000000000E+000,  0.10000000000E+001
  0.10361600000E+006,  0.11500902367E+007,  0.16500000000E+002,  0.00000000000E+000,  0.10000000000E+001
  0.10389600000E+006,  0.11557954477E+007,  0.16500000000E+002,  0.00000000000E+000,  0.10000000000E+001
  0.10409200000E+006,  0.11594760065E+007,  0.16500000000E+002,  0.00000000000E+000,  0.10000000000E+001
  0.10437200000E+006,  0.11641992767E+007,  0.16500000000E+002,  0.00000000000E+000,  0.10000000000E+001
  0.10465200000E+006,  0.11684675739E+007,  0.16500000000E+002,  0.00000000000E+000,  0.10000000000E+001
  0.10493200000E+006,  0.11723433758E+007,  0.16500000000E+002,  0.00000000000E+000,  0.10000000000E+001
  0.10521200000E+006,  0.11758768018E+007,  0.16500000000E+002,  0.00000000000E+000,  0.10000000000E+001
  0.10540900000E+006,  0.11782083812E+007,  0.16500000000E+002,  0.00000000000E+000,  0.10000000000E+001
  0.10568900000E+006,  0.11812461052E+007,  0.16500000000E+002,  0.00000000000E+000,  0.10000000000E+001
  0.10596900000E+006,  0.11840376982E+007,  0.16500000000E+002,  0.00000000000E+000,  0.10000000000E+001
  0.10624900000E+006,  0.11866087208E+007,  0.16500000000E+002,  0.00000000000E+000,  0.10000000000E+001
  0.10652900000E+006,  0.11889811322E+007,  0.16500000000E+002,  0.00000000000E+000,  0.10000000000E+001
  0.10672500000E+006,  0.11905512884E+007,  0.16500000000E+002,  0.00000000000E+000,  0.10000000000E+001
  0.10700500000E+006,  0.11926268550E+007,  0.16500000000E+002,  0.00000000000E+000,  0.10000000000E+001
  0.10728500000E+006,  0.11945500436E+007,  0.16500000000E+002,  0.00000000000E+000,  0.10000000000E+001
  0.10756500000E+006,  0.11963342225E+007,  0.16500000000E+002,  0.00000000000E+000,  0.10000000000E+001
  0.10784500000E+006,  0.11979912656E+007,  0.16500000000E+002,  0.00000000000E+000,  0.10000000000E+001
  0.10804200000E+006,  0.11990941652E+007,  0.16500000000E+002,  0.00000000000E+000,  0.10000000000E+001
  0.10832200000E+006,  0.12005282045E+007,  0.16500000000E+002,  0.00000000000E+000,  0.10000000000E+001
  0.10860200000E+006,  0.12018582759E+007,  0.16500000000E+002,  0.00000000000E+000,  0.10000000000E+001
  0.10888200000E+006,  0.12030998571E+007,  0.16500000000E+002,  0.00000000000E+000,  0.10000000000E+001
  0.10916200000E+006,  0.12042607494E+007,  0.16500000000E+002,  0.00000000000E+000,  0.10000000000E+001
  0.10935800000E+006,  0.12050358509E+007,  0.16500000000E+002,  0.00000000000E+000,  0.10000000000E+001
  0.10963800000E+006,  0.12060717139E+007,  0.16500000000E+002,  0.00000000000E+000,  0.10000000000E+001
  0.10991800000E+006,  0.12070409878E+007,  0.16500000000E+002,  0.00000000000E+000,  0.10000000000E+001
  0.11019800000E+006,  0.11319961097E+007,  0.16500000000E+002,  0.00000000000E+000,  0.10000000000E+001
  0.11047800000E+006,  0.10268141271E+007,  0.16500000000E+002,  0.00000000000E+000,  0.10000000000E+001
  0.11067500000E+006,  0.95510574020E+006,  0.16500000000E+002,  0.00000000000E+000,  0.10000000000E+001
  0.11095500000E+006,  0.86970694552E+006,  0.16500000000E+002,  0.00000000000E+000,  0.10000000000E+001
  0.11123500000E+006,  0.79966706313E+006,  0.16500000000E+002,  0.00000000000E+000,  0.10000000000E+001
  0.11151500000E+006,  0.74177925036E+006,  0.16500000000E+002,  0.00000000000E+000,  0.10000000000E+001
  0.11179500000E+006,  0.69328966305E+006,  0.16500000000E+002,  0.00000000000E+000,  0.10000000000E+001
  0.11199100000E+006,  0.66318580715E+006,  0.16500000000E+002,  0.00000000000E+000,  0.10000000000E+001
  0.11227100000E+006,  0.62638234757E+006,  0.16500000000E+002,  0.00000000000E+000,  0.10000000000E+001
  0.11255100000E+006,  0.59457336059E+006,  0.16500000000E+002,  0.00000000000E+000,  0.10000000000E+001
  0.11283100000E+006,  0.56684764829E+006,  0.16500000000E+002,  0.00000000000E+000,  0.10000000000E+001
  0.11311100000E+006,  0.54250343261E+006,  0.16500000000E+002,  0.00000000000E+000,  0.10000000000E+001
  0.11330700000E+006,  0.52691818510E+006,  0.16500000000E+002,  0.00000000000E+000,  0.10000000000E+001
  0.11358700000E+006,  0.50715921402E+006,  0.16500000000E+002,  0.00000000000E+000,  0.10000000000E+001
  0.11386700000E+006,  0.48953197461E+006,  0.16500000000E+002,  0.00000000000E+000,  0.10000000000E+001
  0.11414700000E+006,  0.47373267750E+006,  0.16500000000E+002,  0.00000000000E+000,  0.10000000000E+001
  0.11442700000E+006,  0.45951211398E+006,  0.16500000000E+002,  0.00000000000E+000,  0.10000000000E+001
  0.11462400000E+006,  0.45021284721E+006,  0.16500000000E+002,  0.00000000000E+000,  0.10000000000E+001
  0.11490400000E+006,  0.43824114836E+006,  0.16500000000E+002,  0.00000000000E+000,  0.10000000000E+001
  0.11518400000E+006,  0.42736360398E+006,  0.16500000000E+002,  0.00000000000E+000,  0.10000000000E+001
