"           TIME(S)","              PRES","              TEMP","             SAT_G","             SAT_L"
  0.47581000000E+005,  0.64452506988E+006,  0.16500000000E+002,  0.00000000000E+000,  0.10000000000E+001
  0.47586000000E+005,  0.64452722905E+006,  0.16500000000E+002,  0.00000000000E+000,  0.10000000000E+001
  0.47611000000E+005,  0.64452216309E+006,  0.16500000000E+002,  0.00000000000E+000,  0.10000000000E+001
  0.47671000000E+005,  0.64207399728E+006,  0.16500000000E+002,  0.00000000000E+000,  0.10000000000E+001
  0.47731000000E+005,  0.63474939966E+006,  0.16500000000E+002,  0.00000000000E+000,  0.10000000000E+001
  0.47791000000E+005,  0.62258740955E+006,  0.16500000000E+002,  0.00000000000E+000,  0.10000000000E+001
  0.47851000000E+005,  0.60648558303E+006,  0.16500000000E+002,  0.00000000000E+000,  0.10000000000E+001
  0.47911000000E+005,  0.58755288287E+006,  0.16500000000E+002,  0.00000000000E+000,  0.10000000000E+001
  0.47971000000E+005,  0.56679735922E+006,  0.16500000000E+002,  0.00000000000E+000,  0.10000000000E+001
  0.48031000000E+005,  0.54503197976E+006,  0.16500000000E+002,  0.00000000000E+000,  0.10000000000E+001
  0.48091000000E+005,  0.52287623581E+006,  0.16500000000E+002,  0.00000000000E+000,  0.10000000000E+001
  0.48151000000E+005,  0.50078787703E+006,  0.16500000000E+002,  0.00000000000E+000,  0.10000000000E+001
  0.48211000000E+005,  0.47909776483E+006,  0.16500000000E+002,  0.00000000000E+000,  0.10000000000E+001
  0.48271000000E+005,  0.45803960099E+006,  0.16500000000E+002,  0.00000000000E+000,  0.10000000000E+001
  0.48331000000E+005,  0.43777335061E+006,  0.16500000000E+002,  0.00000000000E+000,  0.10000000000E+001
  0.48391000000E+005,  0.41840323080E+006,  0.16500000000E+002,  0.00000000000E+000,  0.10000000000E+001
  0.48451000000E+005,  0.39999144389E+006,  0.16500000000E+002,  0.00000000000E+000,  0.10000000000E+001
  0.48511000000E+005,  0.38256867524E+006,  0.16500000000E+002,  0.00000000000E+000,  0.10000000000E+001
  0.48571000000E+005,  0.36614214155E+006,  0.16500000000E+002,  0.00000000000E+000,  0.10000000000E+001
  0.48631000000E+005,  0.35070177958E+006,  0.16500000000E+002,  0.00000000000E+000,  0.10000000000E+001
  0.48691000000E+005,  0.33622501253E+006,  0.16500000000E+002,  0.00000000000E+000,  0.10000000000E+001
  0.48751000000E+005,  0.32268041740E+006,  0.16500000000E+002,  0.00000000000E+000,  0.10000000000E+001
  0.48811000000E+005,  0.31003054674E+006,  0.16500000000E+002,  0.00000000000E+000,  0.10000000000E+001
  0.48871000000E+005,  0.29823409092E+006,  0.16500000000E+002,  0.00000000000E+000,  0.10000000000E+001
  0.48931000000E+005,  0.28724752374E+006,  0.16500000000E+002,  0.00000000000E+000,  0.10000000000E+001
  0.48991000000E+005,  0.27702634799E+006,  0.16500000000E+002,  0.00000000000E+000,  0.10000000000E+001
  0.49051000000E+005,  0.26752602886E+006,  0.16500000000E+002,  0.00000000000E+000,  0.10000000000E+001
  0.49111000000E+005,  0.25870268153E+006,  0.16500000000E+002,  0.00000000000E+000,  0.10000000000E+001
  0.49171000000E+005,  0.25051356916E+006,  0.16500000000E+002,  0.00000000000E+000,  0.10000000000E+001
  0.49231000000E+005,  0.24291745281E+006,  0.16500000000E+002,  0.00000000000E+000,  0.10000000000E+001
  0.49291000000E+005,  0.23587482810E+006,  0.16500000000E+002,  0.00000000000E+000,  0.10000000000E+001
  0.49351000000E+005,  0.22934807241E+006,  0.16500000000E+002,  0.00000000000E+000,  0.10000000000E+001
  0.49411000000E+005,  0.22330152601E+006,  0.16500000000E+002,  0.00000000000E+000,  0.10000000000E+001
  0.49471000000E+005,  0.21770152182E+006,  0.16500000000E+002,  0.00000000000E+000,  0.10000000000E+001
  0.49531000000E+005,  0.21251637796E+006,  0.16500000000E+002,  0.00000000000E+000,  0.10000000000E+001
  0.49591000000E+005,  0.20771636109E+006,  0.16500000000E+002,  0.00000000000E+000,  0.10000000000E+001
  0.49651000000E+005,  0.20327363103E+006,  0.16500000000E+002,  0.00000000000E+000,  0.10000000000E+001
  0.49711000000E+005,  0.19916216982E+006,  0.16500000000E+002,  0.00000000000E+000,  0.10000000000E+001
  0.49771000000E+005,  0.19535770285E+006,  0.16500000000E+002,  0.00000000000E+000,  0.10000000000E+001
  0.49831000000E+005,  0.19183761318E+006,  0.16500000000E+002,  0.00000000000E+000,  0.10000000000E+001
  0.49891000000E+005,  0.18858085345E+006,  0.16500000000E+002,  0.00000000000E+000,  0.10000000000E+001
  0.49951000000E+005,  0.18556785691E+006,  0.16500000000E+002,  0.00000000000E+000,  0.10000000000E+001
  0.50011000000E+005,  0.18278044916E+006,  0.16500000000E+002,  0.00000000000E+000,  0.10000000000E+001
  0.50071000000E+005,  0.18020176138E+006,  0.16500000000E+002,  0.00000000000E+000,  0.10000000000E+001
  0.50131000000E+005,  0.17781614713E+006,  0.16500000000E+002,  0.00000000000E+000,  0.10000000000E+001
  0.50191000000E+005,  0.17560910159E+006,  0.16500000000E+002,  0.00000000000E+000,  0.10000000000E+001
  0.50251000000E+005,  0.17356718443E+006,  0.16500000000E+002,  0.00000000000E+000,  0.10000000000E+001
  0.50311000000E+005,  0.17167794718E+006,  0.16500000000E+002,  0.00000000000E+000,  0.10000000000E+001
  0.50371000000E+005,  0.16992986402E+006,  0.16500000000E+002,  0.00000000000E+000,  0.10000000000E+001
  0.50431000000E+005,  0.16831226677E+006,  0.16500000000E+002,  0.00000000000E+000,  0.10000000000E+001
  0.50491000000E+005,  0.16681528356E+006,  0.16500000000E+002,  0.00000000000E+000,  0.10000000000E+001
  0.50551000000E+005,  0.16542978173E+006,  0.16500000000E+002,  0.00000000000E+000,  0.10000000000E+001
  0.50611000000E+005,  0.16414731391E+006,  0.16500000000E+002,  0.00000000000E+000,  0.10000000000E+001
  0.50671000000E+005,  0.16296006824E+006,  0.16500000000E+002,  0.00000000000E+000,  0.10000000000E+001
  0.50731000000E+005,  0.16186082144E+006,  0.16500000000E+002,  0.00000000000E+000,  0.10000000000E+001
  0.50791000000E+005,  0.16084289540E+006,  0.16500000000E+002,  0.00000000000E+000,  0.10000000000E+001
  0.50851000000E+005,  0.15990011679E+006,  0.16500000000E+002,  0.00000000000E+000,  0.10000000000E+001
  0.50911000000E+005,  0.15902677929E+006,  0.16500000000E+002,  0.00000000000E+000,  0.10000000000E+001
  0.50971000000E+005,  0.15821760886E+006,  0.16500000000E+002,  0.00000000000E+000,  0.10000000000E+001
  0.51031000000E+005,  0.15746773137E+006,  0.16500000000E+002,  0.00000000000E+000,  0.10000000000E+001
  0.51091000000E+005,  0.15677264251E+006,  0.16500000000E+002,  0.00000000000E+000,  0.10000000000E+001
  0.51151000000E+005,  0.15612817996E+006,  0.16500000000E+002,  0.00000000000E+000,  0.10000000000E+001
  0.51211000000E+005,  0.15553049761E+006,  0.16500000000E+002,  0.00000000000E+000,  0.10000000000E+001
  0.51271000000E+005,  0.15497604179E+006,  0.16500000000E+002,  0.00000000000E+000,  0.10000000000E+001
  0.51331000000E+005,  0.15446152899E+006,  0.16500000000E+002,  0.00000000000E+000,  0.10000000000E+001
  0.51391000000E+005,  0.15398392551E+006,  0.16500000000E+002,  0.00000000000E+000,  0.10000000000E+001
  0.51451000000E+005,  0.15354042853E+006,  0.16500000000E+002,  0.00000000000E+000,  0.10000000000E+001
  0.51511000000E+005,  0.15312844854E+006,  0.16500000000E+002,  0.00000000000E+000,  0.10000000000E+001
  0.51571000000E+005,  0.15274559325E+006,  0.16500000000E+002,  0.00000000000E+000,  0.10000000000E+001
  0.51631000000E+005,  0.15238965249E+006,  0.16500000000E+002,  0.00000000000E+000,  0.10000000000E+001
  0.51691000000E+005,  0.15205858445E+006,  0.16500000000E+002,  0.00000000000E+000,  0.10000000000E+001
  0.51751000000E+005,  0.15175050287E+006,  0.16500000000E+002,  0.00000000000E+000,  0.10000000000E+001
  0.51811000000E+005,  0.15146366516E+006,  0.16500000000E+002,  0.00000000000E+000,  0.10000000000E+001
  0.51871000000E+005,  0.15119646155E+006,  0.16500000000E+002,  0.00000000000E+000,  0.10000000000E+001
  0.51931000000E+005,  0.15094740490E+006,  0.16500000000E+002,  0.00000000000E+000,  0.10000000000E+001
  0.51991000000E+005,  0.15071512141E+006,  0.16500000000E+002,  0.00000000000E+000,  0.10000000000E+001
  0.52051000000E+005,  0.15049834196E+006,  0.16500000000E+002,  0.00000000000E+000,  0.10000000000E+001
  0.52111000000E+005,  0.15029589415E+006,  0.16500000000E+002,  0.00000000000E+000,  0.10000000000E+001
  0.52171000000E+005,  0.15010669490E+006,  0.16500000000E+002,  0.00000000000E+000,  0.10000000000E+001
  0.52231000000E+005,  0.14992974372E+006,  0.16500000000E+002,  0.00000000000E+000,  0.10000000000E+001
  0.52291000000E+005,  0.14976411631E+006,  0.16500000000E+002,  0.00000000000E+000,  0.10000000000E+001
  0.52351000000E+005,  0.14960895885E+006,  0.16500000000E+002,  0.00000000000E+000,  0.10000000000E+001
  0.52411000000E+005,  0.14946348254E+006,  0.16500000000E+002,  0.00000000000E+000,  0.10000000000E+001
  0.52471000000E+005,  0.14932695870E+006,  0.16500000000E+002,  0.00000000000E+000,  0.10000000000E+001
  0.52531000000E+005,  0.14919871418E+006,  0.16500000000E+002,  0.00000000000E+000,  0.10000000000E+001
  0.52591000000E+005,  0.14907812709E+006,  0.16500000000E+002,  0.00000000000E+000,  0.10000000000E+001
  0.52651000000E+005,  0.14896462293E+006,  0.16500000000E+002,  0.00000000000E+000,  0.10000000000E+001
  0.52711000000E+005,  0.14885767094E+006,  0.16500000000E+002,  0.00000000000E+000,  0.10000000000E+001
  0.52771000000E+005,  0.14875678084E+006,  0.16500000000E+002,  0.00000000000E+000,  0.10000000000E+001
  0.52831000000E+005,  0.14866149959E+006,  0.16500000000E+002,  0.00000000000E+000,  0.10000000000E+001
  0.52891000000E+005,  0.14857140871E+006,  0.16500000000E+002,  0.00000000000E+000,  0.10000000000E+001
  0.52951000000E+005,  0.14848612159E+006,  0.16500000000E+002,  0.00000000000E+000,  0.10000000000E+001
  0.53011000000E+005,  0.14840528099E+006,  0.16500000000E+002,  0.00000000000E+000,  0.10000000000E+001
  0.53071000000E+005,  0.14832855690E+006,  0.16500000000E+002,  0.00000000000E+000,  0.10000000000E+001
  0.53131000000E+005,  0.14825564438E+006,  0.16500000000E+002,  0.00000000000E+000,  0.10000000000E+001
  0.53191000000E+005,  0.14818626175E+006,  0.16500000000E+002,  0.00000000000E+000,  0.10000000000E+001
  0.53251000000E+005,  0.14812014869E+006,  0.16500000000E+002,  0.00000000000E+000,  0.10000000000E+001
  0.53311000000E+005,  0.14805706470E+006,  0.16500000000E+002,  0.00000000000E+000,  0.10000000000E+001
  0.53371000000E+005,  0.14799678756E+006,  0.16500000000E+002,  0.00000000000E+000,  0.10000000000E+001
  0.53431000000E+005,  0.14793911195E+006,  0.16500000000E+002,  0.00000000000E+000,  0.10000000000E+001
  0.53491000000E+005,  0.14788384815E+006,  0.16500000000E+002,  0.00000000000E+000,  0.10000000000E+001
  0.53551000000E+005,  0.14783082082E+006,  0.16500000000E+002,  0.00000000000E+000,  0.10000000000E+001
  0.53611000000E+005,  0.14777986796E+006,  0.16500000000E+002,  0.00000000000E+000,  0.10000000000E+001
  0.53671000000E+005,  0.14773083986E+006,  0.16500000000E+002,  0.00000000000E+000,  0.10000000000E+001
  0.53731000000E+005,  0.14768359816E+006,  0.16500000000E+002,  0.00000000000E+000,  0.10000000000E+001
  0.53791000000E+005,  0.14763801501E+006,  0.16500000000E+002,  0.00000000000E+000,  0.10000000000E+001
  0.53851000000E+005,  0.14759397219E+006,  0.16500000000E+002,  0.00000000000E+000,  0.10000000000E+001
  0.53911000000E+005,  0.14755136052E+006,  0.16500000000E+002,  0.00000000000E+000,  0.10000000000E+001
  0.53971000000E+005,  0.14751007905E+006,  0.16500000000E+002,  0.00000000000E+000,  0.10000000000E+001
  0.54031000000E+005,  0.14747016522E+006,  0.16500000000E+002,  0.00000000000E+000,  0.10000000000E+001
  0.54091000000E+005,  0.14743178924E+006,  0.16500000000E+002,  0.00000000000E+000,  0.10000000000E+001
  0.54151000000E+005,  0.14739504317E+006,  0.16500000000E+002,  0.00000000000E+000,  0.10000000000E+001
  0.54211000000E+005,  0.14735986607E+006,  0.16500000000E+002,  0.00000000000E+000,  0.10000000000E+001
  0.54271000000E+005,  0.14732609702E+006,  0.16500000000E+002,  0.00000000000E+000,  0.10000000000E+001
  0.54331000000E+005,  0.14729354425E+006,  0.16500000000E+002,  0.00000000000E+000,  0.10000000000E+001
  0.54391000000E+005,  0.14726202630E+006,  0.16500000000E+002,  0.00000000000E+000,  0.10000000000E+001
  0.54451000000E+005,  0.14723138736E+006,  0.16500000000E+002,  0.00000000000E+000,  0.10000000000E+001
  0.54511000000E+005,  0.14720149893E+006,  0.16500000000E+002,  0.00000000000E+000,  0.10000000000E+001
  0.54571000000E+005,  0.14717225655E+006,  0.16500000000E+002,  0.00000000000E+000,  0.10000000000E+001
  0.54631000000E+005,  0.14714357541E+006,  0.16500000000E+002,  0.00000000000E+000,  0.10000000000E+001
  0.54691000000E+005,  0.14711538632E+006,  0.16500000000E+002,  0.00000000000E+000,  0.10000000000E+001
  0.54751000000E+005,  0.14708763257E+006,  0.16500000000E+002,  0.00000000000E+000,  0.10000000000E+001
  0.54811000000E+005,  0.14706026727E+006,  0.16500000000E+002,  0.00000000000E+000,  0.10000000000E+001
  0.54871000000E+005,  0.14703325148E+006,  0.16500000000E+002,  0.00000000000E+000,  0.10000000000E+001
  0.54931000000E+005,  0.14700655257E+006,  0.16500000000E+002,  0.00000000000E+000,  0.10000000000E+001
  0.54991000000E+005,  0.14698014309E+006,  0.16500000000E+002,  0.00000000000E+000,  0.10000000000E+001
  0.55051000000E+005,  0.14695399974E+006,  0.16500000000E+002,  0.00000000000E+000,  0.10000000000E+001
  0.55111000000E+005,  0.14692810269E+006,  0.16500000000E+002,  0.00000000000E+000,  0.10000000000E+001
  0.55171000000E+005,  0.14690243487E+006,  0.16500000000E+002,  0.00000000000E+000,  0.10000000000E+001
  0.55231000000E+005,  0.14687698158E+006,  0.16500000000E+002,  0.00000000000E+000,  0.10000000000E+001
  0.55291000000E+005,  0.14685173002E+006,  0.16500000000E+002,  0.00000000000E+000,  0.10000000000E+001
  0.55351000000E+005,  0.14682666902E+006,  0.16500000000E+002,  0.00000000000E+000,  0.10000000000E+001
  0.55411000000E+005,  0.14680178875E+006,  0.16500000000E+002,  0.00000000000E+000,  0.10000000000E+001
  0.55471000000E+005,  0.14677708054E+006,  0.16500000000E+002,  0.00000000000E+000,  0.10000000000E+001
  0.55531000000E+005,  0.14675253665E+006,  0.16500000000E+002,  0.00000000000E+000,  0.10000000000E+001
  0.55591000000E+005,  0.14672815019E+006,  0.16500000000E+002,  0.00000000000E+000,  0.10000000000E+001
  0.55651000000E+005,  0.14670391496E+006,  0.16500000000E+002,  0.00000000000E+000,  0.10000000000E+001
  0.55711000000E+005,  0.14667982537E+006,  0.16500000000E+002,  0.00000000000E+000,  0.10000000000E+001
  0.55771000000E+005,  0.14665587637E+006,  0.16500000000E+002,  0.00000000000E+000,  0.10000000000E+001
  0.55831000000E+005,  0.14663206335E+006,  0.16500000000E+002,  0.00000000000E+000,  0.10000000000E+001
  0.55891000000E+005,  0.14660838209E+006,  0.16500000000E+002,  0.00000000000E+000,  0.10000000000E+001
  0.55951000000E+005,  0.14658482873E+006,  0.16500000000E+002,  0.00000000000E+000,  0.10000000000E+001
  0.56011000000E+005,  0.14656139973E+006,  0.16500000000E+002,  0.00000000000E+000,  0.10000000000E+001
  0.56071000000E+005,  0.14653809182E+006,  0.16500000000E+002,  0.00000000000E+000,  0.10000000000E+001
  0.56131000000E+005,  0.14651490197E+006,  0.16500000000E+002,  0.00000000000E+000,  0.10000000000E+001
  0.56191000000E+005,  0.14649182737E+006,  0.16500000000E+002,  0.00000000000E+000,  0.10000000000E+001
  0.56251000000E+005,  0.14646886541E+006,  0.16500000000E+002,  0.00000000000E+000,  0.10000000000E+001
  0.56311000000E+005,  0.14644601366E+006,  0.16500000000E+002,  0.00000000000E+000,  0.10000000000E+001
  0.56371000000E+005,  0.14642326985E+006,  0.16500000000E+002,  0.00000000000E+000,  0.10000000000E+001
  0.56431000000E+005,  0.14640063184E+006,  0.16500000000E+002,  0.00000000000E+000,  0.10000000000E+001
  0.56491000000E+005,  0.14637809766E+006,  0.16500000000E+002,  0.00000000000E+000,  0.10000000000E+001
  0.56551000000E+005,  0.14635566542E+006,  0.16500000000E+002,  0.00000000000E+000,  0.10000000000E+001
  0.56611000000E+005,  0.14633333336E+006,  0.16500000000E+002,  0.00000000000E+000,  0.10000000000E+001
  0.56671000000E+005,  0.14631109982E+006,  0.16500000000E+002,  0.00000000000E+000,  0.10000000000E+001
  0.56731000000E+005,  0.14628896323E+006,  0.16500000000E+002,  0.00000000000E+000,  0.10000000000E+001
  0.56791000000E+005,  0.14626692212E+006,  0.16500000000E+002,  0.00000000000E+000,  0.10000000000E+001
  0.56851000000E+005,  0.14624497506E+006,  0.16500000000E+002,  0.00000000000E+000,  0.10000000000E+001
  0.56911000000E+005,  0.14622312074E+006,  0.16500000000E+002,  0.00000000000E+000,  0.10000000000E+001
  0.56971000000E+005,  0.14620135788E+006,  0.16500000000E+002,  0.00000000000E+000,  0.10000000000E+001
  0.57031000000E+005,  0.14617968529E+006,  0.16500000000E+002,  0.00000000000E+000,  0.10000000000E+001
  0.57091000000E+005,  0.14615810181E+006,  0.16500000000E+002,  0.00000000000E+000,  0.10000000000E+001
  0.57151000000E+005,  0.14613660635E+006,  0.16500000000E+002,  0.00000000000E+000,  0.10000000000E+001
  0.57211000000E+005,  0.14611519786E+006,  0.16500000000E+002,  0.00000000000E+000,  0.10000000000E+001
  0.57271000000E+005,  0.14609387534E+006,  0.16500000000E+002,  0.00000000000E+000,  0.10000000000E+001
  0.57331000000E+005,  0.14607263785E+006,  0.16500000000E+002,  0.00000000000E+000,  0.10000000000E+001
  0.57391000000E+005,  0.14605148445E+006,  0.16500000000E+002,  0.00000000000E+000,  0.10000000000E+001
  0.57451000000E+005,  0.14603041427E+006,  0.16500000000E+002,  0.00000000000E+000,  0.10000000000E+001
  0.57511000000E+005,  0.14600942648E+006,  0.16500000000E+002,  0.00000000000E+000,  0.10000000000E+001
  0.57571000000E+005,  0.14598852024E+006,  0.16500000000E+002,  0.00000000000E+000,  0.10000000000E+001
  0.57631000000E+005,  0.14596769477E+006,  0.16500000000E+002,  0.00000000000E+000,  0.10000000000E+001
  0.57691000000E+005,  0.14594694933E+006,  0.16500000000E+002,  0.00000000000E+000,  0.10000000000E+001
  0.57751000000E+005,  0.14592628316E+006,  0.16500000000E+002,  0.00000000000E+000,  0.10000000000E+001
  0.57811000000E+005,  0.14590569558E+006,  0.16500000000E+002,  0.00000000000E+000,  0.10000000000E+001
  0.57871000000E+005,  0.14588518588E+006,  0.16500000000E+002,  0.00000000000E+000,  0.10000000000E+001
  0.57931000000E+005,  0.14586475342E+006,  0.16500000000E+002,  0.00000000000E+000,  0.10000000000E+001
  0.57991000000E+005,  0.14584439753E+006,  0.16500000000E+002,  0.00000000000E+000,  0.10000000000E+001
  0.58051000000E+005,  0.14582411761E+006,  0.16500000000E+002,  0.00000000000E+000,  0.10000000000E+001
  0.58111000000E+005,  0.14580391303E+006,  0.16500000000E+002,  0.00000000000E+000,  0.10000000000E+001
  0.58171000000E+005,  0.14578378321E+006,  0.16500000000E+002,  0.00000000000E+000,  0.10000000000E+001
  0.58231000000E+005,  0.14576372758E+006,  0.16500000000E+002,  0.00000000000E+000,  0.10000000000E+001
  0.58291000000E+005,  0.14574374556E+006,  0.16500000000E+002,  0.00000000000E+000,  0.10000000000E+001
  0.58351000000E+005,  0.14572383662E+006,  0.16500000000E+002,  0.00000000000E+000,  0.10000000000E+001
  0.58411000000E+005,  0.14570400021E+006,  0.16500000000E+002,  0.00000000000E+000,  0.10000000000E+001
  0.58471000000E+005,  0.14568423581E+006,  0.16500000000E+002,  0.00000000000E+000,  0.10000000000E+001
  0.58531000000E+005,  0.14566454291E+006,  0.16500000000E+002,  0.00000000000E+000,  0.10000000000E+001
  0.58591000000E+005,  0.14564492102E+006,  0.16500000000E+002,  0.00000000000E+000,  0.10000000000E+001
  0.58651000000E+005,  0.14562536964E+006,  0.16500000000E+002,  0.00000000000E+000,  0.10000000000E+001
  0.58711000000E+005,  0.14560588829E+006,  0.16500000000E+002,  0.00000000000E+000,  0.10000000000E+001
  0.58771000000E+005,  0.14558647652E+006,  0.16500000000E+002,  0.00000000000E+000,  0.10000000000E+001
