"           TIME(S)","              PRES","              TEMP","             SAT_G","             SAT_L"
  0.94860000000E+005,  0.99952876306E+006,  0.16500000000E+002,  0.00000000000E+000,  0.10000000000E+001
  0.94870000000E+005,  0.99952876315E+006,  0.16500000000E+002,  0.00000000000E+000,  0.10000000000E+001
  0.94880000000E+005,  0.99952876309E+006,  0.16500000000E+002,  0.00000000000E+000,  0.10000000000E+001
  0.94890000000E+005,  0.17038002068E+007,  0.16500000000E+002,  0.00000000000E+000,  0.10000000000E+001
  0.94900000000E+005,  0.25194895775E+007,  0.16500000000E+002,  0.00000000000E+000,  0.10000000000E+001
  0.94910000000E+005,  0.33154559582E+007,  0.16500000000E+002,  0.00000000000E+000,  0.10000000000E+001
  0.94920000000E+005,  0.42124689557E+007,  0.16500000000E+002,  0.00000000000E+000,  0.10000000000E+001
  0.94930000000E+005,  0.53837739648E+007,  0.16500000000E+002,  0.00000000000E+000,  0.10000000000E+001
  0.94940000000E+005,  0.87226868559E+007,  0.16500000000E+002,  0.00000000000E+000,  0.10000000000E+001
  0.94950000000E+005,  0.12528288581E+008,  0.16500000000E+002,  0.00000000000E+000,  0.10000000000E+001
  0.94960000000E+005,  0.16391887479E+008,  0.16500000000E+002,  0.00000000000E+000,  0.10000000000E+001
  0.94970000000E+005,  0.20089979126E+008,  0.16500000000E+002,  0.00000000000E+000,  0.10000000000E+001
  0.94980000000E+005,  0.23706499977E+008,  0.16500000000E+002,  0.00000000000E+000,  0.10000000000E+001
  0.94990000000E+005,  0.27246913051E+008,  0.16500000000E+002,  0.00000000000E+000,  0.10000000000E+001
  0.95000000000E+005,  0.30795199941E+008,  0.16500000000E+002,  0.00000000000E+000,  0.10000000000E+001
  0.95010000000E+005,  0.34258709739E+008,  0.16500000000E+002,  0.00000000000E+000,  0.10000000000E+001
  0.95020000000E+005,  0.37656159592E+008,  0.16500000000E+002,  0.00000000000E+000,  0.10000000000E+001
  0.95030000000E+005,  0.40967855811E+008,  0.16500000000E+002,  0.00000000000E+000,  0.10000000000E+001
  0.95040000000E+005,  0.44178686229E+008,  0.16500000000E+002,  0.00000000000E+000,  0.10000000000E+001
  0.95050000000E+005,  0.47333847718E+008,  0.16500000000E+002,  0.00000000000E+000,  0.10000000000E+001
  0.95060000000E+005,  0.50435431466E+008,  0.16500000000E+002,  0.00000000000E+000,  0.10000000000E+001
  0.95070000000E+005,  0.53485403016E+008,  0.16500000000E+002,  0.00000000000E+000,  0.10000000000E+001
  0.95080000000E+005,  0.56485602140E+008,  0.16500000000E+002,  0.00000000000E+000,  0.10000000000E+001
  0.95090000000E+005,  0.59437750743E+008,  0.16500000000E+002,  0.00000000000E+000,  0.10000000000E+001
  0.95100000000E+005,  0.62343462699E+008,  0.16500000000E+002,  0.00000000000E+000,  0.10000000000E+001
  0.95110000000E+005,  0.65204253606E+008,  0.16500000000E+002,  0.00000000000E+000,  0.10000000000E+001
  0.95120000000E+005,  0.68021549793E+008,  0.16500000000E+002,  0.00000000000E+000,  0.10000000000E+001
  0.95128100000E+005,  0.70275269800E+008,  0.16500000000E+002,  0.00000000000E+000,  0.10000000000E+001
  0.95138100000E+005,  0.73017136530E+008,  0.16500000000E+002,  0.00000000000E+000,  0.10000000000E+001
  0.95148100000E+005,  0.75719108007E+008,  0.16500000000E+002,  0.00000000000E+000,  0.10000000000E+001
  0.95158100000E+005,  0.78382336856E+008,  0.16500000000E+002,  0.00000000000E+000,  0.10000000000E+001
  0.95168100000E+005,  0.81007917666E+008,  0.16500000000E+002,  0.00000000000E+000,  0.10000000000E+001
  0.95178100000E+005,  0.83596891562E+008,  0.16500000000E+002,  0.00000000000E+000,  0.10000000000E+001
  0.95188100000E+005,  0.86150250267E+008,  0.16500000000E+002,  0.00000000000E+000,  0.10000000000E+001
  0.95198100000E+005,  0.88668939737E+008,  0.16500000000E+002,  0.00000000000E+000,  0.10000000000E+001
  0.95208100000E+005,  0.91153863409E+008,  0.16500000000E+002,  0.00000000000E+000,  0.10000000000E+001
  0.95218100000E+005,  0.93605885146E+008,  0.16500000000E+002,  0.00000000000E+000,  0.10000000000E+001
  0.95228100000E+005,  0.96025831887E+008,  0.16500000000E+002,  0.00000000000E+000,  0.10000000000E+001
  0.95238100000E+005,  0.98414496053E+008,  0.16500000000E+002,  0.00000000000E+000,  0.10000000000E+001
  0.95239350000E+005,  0.98712334734E+008,  0.16500000000E+002,  0.00000000000E+000,  0.10000000000E+001
  0.95240131250E+005,  0.98898286242E+008,  0.16500000000E+002,  0.00000000000E+000,  0.10000000000E+001
  0.95244037500E+005,  0.99823643335E+008,  0.16500000000E+002,  0.00000000000E+000,  0.10000000000E+001
  0.95244193750E+005,  0.99860636887E+008,  0.16500000000E+002,  0.00000000000E+000,  0.10000000000E+001
  0.95244291406E+005,  0.99883754718E+008,  0.16500000000E+002,  0.00000000000E+000,  0.10000000000E+001
  0.95244352441E+005,  0.99898202122E+008,  0.16500000000E+002,  0.00000000000E+000,  0.10000000000E+001
  0.95244657617E+005,  0.99970413717E+008,  0.16500000000E+002,  0.00000000000E+000,  0.10000000000E+001
  0.95244681459E+005,  0.99976054817E+008,  0.16500000000E+002,  0.00000000000E+000,  0.10000000000E+001
  0.95244696360E+005,  0.99979580431E+008,  0.16500000000E+002,  0.00000000000E+000,  0.10000000000E+001
  0.95244705673E+005,  0.99981783912E+008,  0.16500000000E+002,  0.00000000000E+000,  0.10000000000E+001
  0.95244752240E+005,  0.99992800714E+008,  0.16500000000E+002,  0.00000000000E+000,  0.10000000000E+001
  0.95244755878E+005,  0.99993661389E+008,  0.16500000000E+002,  0.00000000000E+000,  0.10000000000E+001
  0.95244758151E+005,  0.99994199310E+008,  0.16500000000E+002,  0.00000000000E+000,  0.10000000000E+001
  0.95244759572E+005,  0.99994535510E+008,  0.16500000000E+002,  0.00000000000E+000,  0.10000000000E+001
  0.95244766678E+005,  0.99996216497E+008,  0.16500000000E+002,  0.00000000000E+000,  0.10000000000E+001
  0.95244767233E+005,  0.99996347823E+008,  0.16500000000E+002,  0.00000000000E+000,  0.10000000000E+001
  0.95244767580E+005,  0.99996429903E+008,  0.16500000000E+002,  0.00000000000E+000,  0.10000000000E+001
  0.95244767797E+005,  0.99996481202E+008,  0.16500000000E+002,  0.00000000000E+000,  0.10000000000E+001
  0.95244768881E+005,  0.99996737699E+008,  0.16500000000E+002,  0.00000000000E+000,  0.10000000000E+001
  0.95244768966E+005,  0.99996757738E+008,  0.16500000000E+002,  0.00000000000E+000,  0.10000000000E+001
  0.95244769019E+005,  0.99996757738E+008,  0.16500000000E+002,  0.00000000000E+000,  0.10000000000E+001
  0.95244769283E+005,  0.99996820359E+008,  0.16500000000E+002,  0.00000000000E+000,  0.10000000000E+001
  0.95244769304E+005,  0.99996820359E+008,  0.16500000000E+002,  0.00000000000E+000,  0.10000000000E+001
  0.95244769317E+005,  0.99996820359E+008,  0.16500000000E+002,  0.00000000000E+000,  0.10000000000E+001
  0.95244769381E+005,  0.99996820359E+008,  0.16500000000E+002,  0.00000000000E+000,  0.10000000000E+001
  0.95244769422E+005,  0.99996820359E+008,  0.16500000000E+002,  0.00000000000E+000,  0.10000000000E+001
