"           TIME(S)","              PRES","              TEMP","             SAT_G","             SAT_L"
  0.32540100000E+005,  0.59892381560E+007,  0.16500000000E+002,  0.00000000000E+000,  0.10000000000E+001
  0.32540600000E+005,  0.42339488210E+007,  0.16500000000E+002,  0.00000000000E+000,  0.10000000000E+001
  0.32543100000E+005,  0.29745326425E+007,  0.16500000000E+002,  0.00000000000E+000,  0.10000000000E+001
  0.32553100000E+005,  0.24996366145E+007,  0.16500000000E+002,  0.00000000000E+000,  0.10000000000E+001
  0.32563100000E+005,  0.23709005658E+007,  0.16500000000E+002,  0.00000000000E+000,  0.10000000000E+001
  0.32573100000E+005,  0.23595074006E+007,  0.16500000000E+002,  0.00000000000E+000,  0.10000000000E+001
  0.32583100000E+005,  0.23752232629E+007,  0.16500000000E+002,  0.00000000000E+000,  0.10000000000E+001
  0.32593100000E+005,  0.24019058939E+007,  0.16500000000E+002,  0.00000000000E+000,  0.10000000000E+001
  0.32603100000E+005,  0.24469679938E+007,  0.16500000000E+002,  0.00000000000E+000,  0.10000000000E+001
  0.32613100000E+005,  0.24645481527E+007,  0.16500000000E+002,  0.00000000000E+000,  0.10000000000E+001
  0.32623100000E+005,  0.24905113471E+007,  0.16500000000E+002,  0.00000000000E+000,  0.10000000000E+001
  0.32633100000E+005,  0.24888964636E+007,  0.16500000000E+002,  0.00000000000E+000,  0.10000000000E+001
  0.32643100000E+005,  0.25020084044E+007,  0.16500000000E+002,  0.00000000000E+000,  0.10000000000E+001
  0.32653100000E+005,  0.25169555975E+007,  0.16500000000E+002,  0.00000000000E+000,  0.10000000000E+001
  0.32663100000E+005,  0.25315791713E+007,  0.16500000000E+002,  0.00000000000E+000,  0.10000000000E+001
  0.32673100000E+005,  0.25455950576E+007,  0.16500000000E+002,  0.00000000000E+000,  0.10000000000E+001
  0.32683100000E+005,  0.25589421925E+007,  0.16500000000E+002,  0.00000000000E+000,  0.10000000000E+001
  0.32693100000E+005,  0.25716201903E+007,  0.16500000000E+002,  0.00000000000E+000,  0.10000000000E+001
  0.32703100000E+005,  0.25836903755E+007,  0.16500000000E+002,  0.00000000000E+000,  0.10000000000E+001
  0.32713100000E+005,  0.25952024688E+007,  0.16500000000E+002,  0.00000000000E+000,  0.10000000000E+001
  0.32723100000E+005,  0.26061859098E+007,  0.16500000000E+002,  0.00000000000E+000,  0.10000000000E+001
  0.32733100000E+005,  0.26166795471E+007,  0.16500000000E+002,  0.00000000000E+000,  0.10000000000E+001
  0.32743100000E+005,  0.26267158091E+007,  0.16500000000E+002,  0.00000000000E+000,  0.10000000000E+001
  0.32753100000E+005,  0.26363244970E+007,  0.16500000000E+002,  0.00000000000E+000,  0.10000000000E+001
  0.32763100000E+005,  0.26455585891E+007,  0.16500000000E+002,  0.00000000000E+000,  0.10000000000E+001
  0.32773100000E+005,  0.26544342757E+007,  0.16500000000E+002,  0.00000000000E+000,  0.10000000000E+001
  0.32783100000E+005,  0.26629712509E+007,  0.16500000000E+002,  0.00000000000E+000,  0.10000000000E+001
  0.32793100000E+005,  0.26711950211E+007,  0.16500000000E+002,  0.00000000000E+000,  0.10000000000E+001
  0.32803100000E+005,  0.26791315996E+007,  0.16500000000E+002,  0.00000000000E+000,  0.10000000000E+001
  0.32813100000E+005,  0.26867989246E+007,  0.16500000000E+002,  0.00000000000E+000,  0.10000000000E+001
  0.32823100000E+005,  0.26941969537E+007,  0.16500000000E+002,  0.00000000000E+000,  0.10000000000E+001
  0.32833100000E+005,  0.27013654571E+007,  0.16500000000E+002,  0.00000000000E+000,  0.10000000000E+001
  0.32843100000E+005,  0.27083142064E+007,  0.16500000000E+002,  0.00000000000E+000,  0.10000000000E+001
  0.32853100000E+005,  0.27150519590E+007,  0.16500000000E+002,  0.00000000000E+000,  0.10000000000E+001
  0.32863100000E+005,  0.27215872242E+007,  0.16500000000E+002,  0.00000000000E+000,  0.10000000000E+001
  0.32873100000E+005,  0.27279428689E+007,  0.16500000000E+002,  0.00000000000E+000,  0.10000000000E+001
  0.32883100000E+005,  0.27341229331E+007,  0.16500000000E+002,  0.00000000000E+000,  0.10000000000E+001
  0.32893100000E+005,  0.27401378588E+007,  0.16500000000E+002,  0.00000000000E+000,  0.10000000000E+001
  0.32903100000E+005,  0.27459946340E+007,  0.16500000000E+002,  0.00000000000E+000,  0.10000000000E+001
  0.32913100000E+005,  0.27517024024E+007,  0.16500000000E+002,  0.00000000000E+000,  0.10000000000E+001
  0.32923100000E+005,  0.27572611207E+007,  0.16500000000E+002,  0.00000000000E+000,  0.10000000000E+001
  0.32933100000E+005,  0.27626870099E+007,  0.16500000000E+002,  0.00000000000E+000,  0.10000000000E+001
  0.32943100000E+005,  0.27679824609E+007,  0.16500000000E+002,  0.00000000000E+000,  0.10000000000E+001
  0.32953100000E+005,  0.27731589632E+007,  0.16500000000E+002,  0.00000000000E+000,  0.10000000000E+001
  0.32963100000E+005,  0.27782198497E+007,  0.16500000000E+002,  0.00000000000E+000,  0.10000000000E+001
  0.32973100000E+005,  0.27831694134E+007,  0.16500000000E+002,  0.00000000000E+000,  0.10000000000E+001
  0.32983100000E+005,  0.27880106887E+007,  0.16500000000E+002,  0.00000000000E+000,  0.10000000000E+001
  0.32993100000E+005,  0.27927467616E+007,  0.16500000000E+002,  0.00000000000E+000,  0.10000000000E+001
  0.33003100000E+005,  0.27973848863E+007,  0.16500000000E+002,  0.00000000000E+000,  0.10000000000E+001
  0.33013100000E+005,  0.28019276333E+007,  0.16500000000E+002,  0.00000000000E+000,  0.10000000000E+001
  0.33023100000E+005,  0.28063803793E+007,  0.16500000000E+002,  0.00000000000E+000,  0.10000000000E+001
  0.33033100000E+005,  0.28107467677E+007,  0.16500000000E+002,  0.00000000000E+000,  0.10000000000E+001
  0.33043100000E+005,  0.28150278678E+007,  0.16500000000E+002,  0.00000000000E+000,  0.10000000000E+001
  0.33053100000E+005,  0.28192282282E+007,  0.16500000000E+002,  0.00000000000E+000,  0.10000000000E+001
  0.33063100000E+005,  0.28233499664E+007,  0.16500000000E+002,  0.00000000000E+000,  0.10000000000E+001
  0.33073100000E+005,  0.28273977976E+007,  0.16500000000E+002,  0.00000000000E+000,  0.10000000000E+001
  0.33083100000E+005,  0.28313744951E+007,  0.16500000000E+002,  0.00000000000E+000,  0.10000000000E+001
  0.33093100000E+005,  0.28352819017E+007,  0.16500000000E+002,  0.00000000000E+000,  0.10000000000E+001
  0.33103100000E+005,  0.28391220831E+007,  0.16500000000E+002,  0.00000000000E+000,  0.10000000000E+001
  0.33113100000E+005,  0.28428971314E+007,  0.16500000000E+002,  0.00000000000E+000,  0.10000000000E+001
  0.33123100000E+005,  0.28466090852E+007,  0.16500000000E+002,  0.00000000000E+000,  0.10000000000E+001
  0.33133100000E+005,  0.28502576424E+007,  0.16500000000E+002,  0.00000000000E+000,  0.10000000000E+001
  0.33143100000E+005,  0.28538480791E+007,  0.16500000000E+002,  0.00000000000E+000,  0.10000000000E+001
  0.33153100000E+005,  0.28573809559E+007,  0.16500000000E+002,  0.00000000000E+000,  0.10000000000E+001
  0.33163100000E+005,  0.28608572690E+007,  0.16500000000E+002,  0.00000000000E+000,  0.10000000000E+001
  0.33173100000E+005,  0.28642805546E+007,  0.16500000000E+002,  0.00000000000E+000,  0.10000000000E+001
  0.33183100000E+005,  0.28676516816E+007,  0.16500000000E+002,  0.00000000000E+000,  0.10000000000E+001
  0.33193100000E+005,  0.28709714555E+007,  0.16500000000E+002,  0.00000000000E+000,  0.10000000000E+001
  0.33203100000E+005,  0.28742416525E+007,  0.16500000000E+002,  0.00000000000E+000,  0.10000000000E+001
  0.33213100000E+005,  0.28774637486E+007,  0.16500000000E+002,  0.00000000000E+000,  0.10000000000E+001
  0.33223100000E+005,  0.28806389823E+007,  0.16500000000E+002,  0.00000000000E+000,  0.10000000000E+001
  0.33233100000E+005,  0.28837685446E+007,  0.16500000000E+002,  0.00000000000E+000,  0.10000000000E+001
  0.33243100000E+005,  0.28868535930E+007,  0.16500000000E+002,  0.00000000000E+000,  0.10000000000E+001
  0.33253100000E+005,  0.28898952473E+007,  0.16500000000E+002,  0.00000000000E+000,  0.10000000000E+001
  0.33263100000E+005,  0.28928945860E+007,  0.16500000000E+002,  0.00000000000E+000,  0.10000000000E+001
  0.33273100000E+005,  0.28958526471E+007,  0.16500000000E+002,  0.00000000000E+000,  0.10000000000E+001
  0.33283100000E+005,  0.28987704282E+007,  0.16500000000E+002,  0.00000000000E+000,  0.10000000000E+001
  0.33293100000E+005,  0.29016488888E+007,  0.16500000000E+002,  0.00000000000E+000,  0.10000000000E+001
  0.33303100000E+005,  0.29044889511E+007,  0.16500000000E+002,  0.00000000000E+000,  0.10000000000E+001
  0.33313100000E+005,  0.29072914383E+007,  0.16500000000E+002,  0.00000000000E+000,  0.10000000000E+001
  0.33323100000E+005,  0.29100566064E+007,  0.16500000000E+002,  0.00000000000E+000,  0.10000000000E+001
  0.33333100000E+005,  0.29127864235E+007,  0.16500000000E+002,  0.00000000000E+000,  0.10000000000E+001
  0.33343100000E+005,  0.29154813344E+007,  0.16500000000E+002,  0.00000000000E+000,  0.10000000000E+001
  0.33353100000E+005,  0.29181420122E+007,  0.16500000000E+002,  0.00000000000E+000,  0.10000000000E+001
  0.33363100000E+005,  0.29207691679E+007,  0.16500000000E+002,  0.00000000000E+000,  0.10000000000E+001
  0.33373100000E+005,  0.29233635025E+007,  0.16500000000E+002,  0.00000000000E+000,  0.10000000000E+001
  0.33383100000E+005,  0.29259256969E+007,  0.16500000000E+002,  0.00000000000E+000,  0.10000000000E+001
  0.33393100000E+005,  0.29284564103E+007,  0.16500000000E+002,  0.00000000000E+000,  0.10000000000E+001
  0.33403100000E+005,  0.29309562806E+007,  0.16500000000E+002,  0.00000000000E+000,  0.10000000000E+001
  0.33413100000E+005,  0.29334254011E+007,  0.16500000000E+002,  0.00000000000E+000,  0.10000000000E+001
  0.33423100000E+005,  0.29358650110E+007,  0.16500000000E+002,  0.00000000000E+000,  0.10000000000E+001
  0.33433100000E+005,  0.29382758380E+007,  0.16500000000E+002,  0.00000000000E+000,  0.10000000000E+001
  0.33443100000E+005,  0.29406582528E+007,  0.16500000000E+002,  0.00000000000E+000,  0.10000000000E+001
  0.33453100000E+005,  0.29430127488E+007,  0.16500000000E+002,  0.00000000000E+000,  0.10000000000E+001
  0.33463100000E+005,  0.29453398364E+007,  0.16500000000E+002,  0.00000000000E+000,  0.10000000000E+001
  0.33473100000E+005,  0.29476400185E+007,  0.16500000000E+002,  0.00000000000E+000,  0.10000000000E+001
  0.33483100000E+005,  0.29499137859E+007,  0.16500000000E+002,  0.00000000000E+000,  0.10000000000E+001
  0.33493100000E+005,  0.29521616158E+007,  0.16500000000E+002,  0.00000000000E+000,  0.10000000000E+001
  0.33503100000E+005,  0.29543839171E+007,  0.16500000000E+002,  0.00000000000E+000,  0.10000000000E+001
  0.33513100000E+005,  0.29565806415E+007,  0.16500000000E+002,  0.00000000000E+000,  0.10000000000E+001
  0.33523100000E+005,  0.29587531057E+007,  0.16500000000E+002,  0.00000000000E+000,  0.10000000000E+001
  0.33533100000E+005,  0.29609015410E+007,  0.16500000000E+002,  0.00000000000E+000,  0.10000000000E+001
  0.33543100000E+005,  0.29630262149E+007,  0.16500000000E+002,  0.00000000000E+000,  0.10000000000E+001
  0.33553100000E+005,  0.29651270407E+007,  0.16500000000E+002,  0.00000000000E+000,  0.10000000000E+001
  0.33563100000E+005,  0.29672053538E+007,  0.16500000000E+002,  0.00000000000E+000,  0.10000000000E+001
  0.33573100000E+005,  0.29692612295E+007,  0.16500000000E+002,  0.00000000000E+000,  0.10000000000E+001
  0.33583100000E+005,  0.29712949602E+007,  0.16500000000E+002,  0.00000000000E+000,  0.10000000000E+001
  0.33593100000E+005,  0.29733068852E+007,  0.16500000000E+002,  0.00000000000E+000,  0.10000000000E+001
  0.33603100000E+005,  0.29752973487E+007,  0.16500000000E+002,  0.00000000000E+000,  0.10000000000E+001
  0.33613100000E+005,  0.29772666901E+007,  0.16500000000E+002,  0.00000000000E+000,  0.10000000000E+001
  0.33623100000E+005,  0.29792152423E+007,  0.16500000000E+002,  0.00000000000E+000,  0.10000000000E+001
  0.33633100000E+005,  0.29811433309E+007,  0.16500000000E+002,  0.00000000000E+000,  0.10000000000E+001
  0.33643100000E+005,  0.29830512624E+007,  0.16500000000E+002,  0.00000000000E+000,  0.10000000000E+001
  0.33653100000E+005,  0.29849388450E+007,  0.16500000000E+002,  0.00000000000E+000,  0.10000000000E+001
  0.33663100000E+005,  0.29868072683E+007,  0.16500000000E+002,  0.00000000000E+000,  0.10000000000E+001
  0.33673100000E+005,  0.29886565560E+007,  0.16500000000E+002,  0.00000000000E+000,  0.10000000000E+001
  0.33683100000E+005,  0.29904869319E+007,  0.16500000000E+002,  0.00000000000E+000,  0.10000000000E+001
  0.33693100000E+005,  0.29922986622E+007,  0.16500000000E+002,  0.00000000000E+000,  0.10000000000E+001
  0.33703100000E+005,  0.29940920176E+007,  0.16500000000E+002,  0.00000000000E+000,  0.10000000000E+001
  0.33713100000E+005,  0.29958672662E+007,  0.16500000000E+002,  0.00000000000E+000,  0.10000000000E+001
  0.33723100000E+005,  0.29976246715E+007,  0.16500000000E+002,  0.00000000000E+000,  0.10000000000E+001
  0.33733100000E+005,  0.29993644920E+007,  0.16500000000E+002,  0.00000000000E+000,  0.10000000000E+001
  0.33743100000E+005,  0.30010869808E+007,  0.16500000000E+002,  0.00000000000E+000,  0.10000000000E+001
  0.33753100000E+005,  0.30027923858E+007,  0.16500000000E+002,  0.00000000000E+000,  0.10000000000E+001
  0.33763100000E+005,  0.30044809500E+007,  0.16500000000E+002,  0.00000000000E+000,  0.10000000000E+001
  0.33773100000E+005,  0.30061529114E+007,  0.16500000000E+002,  0.00000000000E+000,  0.10000000000E+001
  0.33783100000E+005,  0.30078085031E+007,  0.16500000000E+002,  0.00000000000E+000,  0.10000000000E+001
  0.33793100000E+005,  0.30094479534E+007,  0.16500000000E+002,  0.00000000000E+000,  0.10000000000E+001
  0.33803100000E+005,  0.30110714863E+007,  0.16500000000E+002,  0.00000000000E+000,  0.10000000000E+001
  0.33813100000E+005,  0.30126793211E+007,  0.16500000000E+002,  0.00000000000E+000,  0.10000000000E+001
  0.33823100000E+005,  0.30142716729E+007,  0.16500000000E+002,  0.00000000000E+000,  0.10000000000E+001
  0.33833100000E+005,  0.30158487526E+007,  0.16500000000E+002,  0.00000000000E+000,  0.10000000000E+001
  0.33843100000E+005,  0.30174107670E+007,  0.16500000000E+002,  0.00000000000E+000,  0.10000000000E+001
  0.33853100000E+005,  0.30189579190E+007,  0.16500000000E+002,  0.00000000000E+000,  0.10000000000E+001
  0.33863100000E+005,  0.30204904076E+007,  0.16500000000E+002,  0.00000000000E+000,  0.10000000000E+001
  0.33873100000E+005,  0.30220084280E+007,  0.16500000000E+002,  0.00000000000E+000,  0.10000000000E+001
  0.33883100000E+005,  0.30235121719E+007,  0.16500000000E+002,  0.00000000000E+000,  0.10000000000E+001
  0.33893100000E+005,  0.30250018272E+007,  0.16500000000E+002,  0.00000000000E+000,  0.10000000000E+001
  0.33903100000E+005,  0.30264775787E+007,  0.16500000000E+002,  0.00000000000E+000,  0.10000000000E+001
  0.33913100000E+005,  0.30279396075E+007,  0.16500000000E+002,  0.00000000000E+000,  0.10000000000E+001
  0.33923100000E+005,  0.30293880917E+007,  0.16500000000E+002,  0.00000000000E+000,  0.10000000000E+001
  0.33933100000E+005,  0.30308232061E+007,  0.16500000000E+002,  0.00000000000E+000,  0.10000000000E+001
  0.33943100000E+005,  0.30322451223E+007,  0.16500000000E+002,  0.00000000000E+000,  0.10000000000E+001
  0.33953100000E+005,  0.30336540089E+007,  0.16500000000E+002,  0.00000000000E+000,  0.10000000000E+001
  0.33963100000E+005,  0.30350500318E+007,  0.16500000000E+002,  0.00000000000E+000,  0.10000000000E+001
  0.33973100000E+005,  0.30364333536E+007,  0.16500000000E+002,  0.00000000000E+000,  0.10000000000E+001
  0.33983100000E+005,  0.30378041345E+007,  0.16500000000E+002,  0.00000000000E+000,  0.10000000000E+001
  0.33993100000E+005,  0.30391625318E+007,  0.16500000000E+002,  0.00000000000E+000,  0.10000000000E+001
  0.34003100000E+005,  0.30405086999E+007,  0.16500000000E+002,  0.00000000000E+000,  0.10000000000E+001
  0.34013100000E+005,  0.30418427910E+007,  0.16500000000E+002,  0.00000000000E+000,  0.10000000000E+001
  0.34023100000E+005,  0.30431649545E+007,  0.16500000000E+002,  0.00000000000E+000,  0.10000000000E+001
  0.34033100000E+005,  0.30444753372E+007,  0.16500000000E+002,  0.00000000000E+000,  0.10000000000E+001
  0.34043100000E+005,  0.30457740839E+007,  0.16500000000E+002,  0.00000000000E+000,  0.10000000000E+001
  0.34053100000E+005,  0.30470613366E+007,  0.16500000000E+002,  0.00000000000E+000,  0.10000000000E+001
  0.34063100000E+005,  0.30483372351E+007,  0.16500000000E+002,  0.00000000000E+000,  0.10000000000E+001
  0.34073100000E+005,  0.30496019169E+007,  0.16500000000E+002,  0.00000000000E+000,  0.10000000000E+001
  0.34083100000E+005,  0.30508555176E+007,  0.16500000000E+002,  0.00000000000E+000,  0.10000000000E+001
  0.34093100000E+005,  0.30520981701E+007,  0.16500000000E+002,  0.00000000000E+000,  0.10000000000E+001
  0.34103100000E+005,  0.30533300056E+007,  0.16500000000E+002,  0.00000000000E+000,  0.10000000000E+001
  0.34113100000E+005,  0.30545511530E+007,  0.16500000000E+002,  0.00000000000E+000,  0.10000000000E+001
  0.34123100000E+005,  0.30557617392E+007,  0.16500000000E+002,  0.00000000000E+000,  0.10000000000E+001
  0.34133100000E+005,  0.30569618892E+007,  0.16500000000E+002,  0.00000000000E+000,  0.10000000000E+001
  0.34143100000E+005,  0.30581517260E+007,  0.16500000000E+002,  0.00000000000E+000,  0.10000000000E+001
  0.34153100000E+005,  0.30593313706E+007,  0.16500000000E+002,  0.00000000000E+000,  0.10000000000E+001
  0.34163100000E+005,  0.30605009423E+007,  0.16500000000E+002,  0.00000000000E+000,  0.10000000000E+001
  0.34173100000E+005,  0.30616605584E+007,  0.16500000000E+002,  0.00000000000E+000,  0.10000000000E+001
  0.34183100000E+005,  0.30628103345E+007,  0.16500000000E+002,  0.00000000000E+000,  0.10000000000E+001
  0.34193100000E+005,  0.30639503845E+007,  0.16500000000E+002,  0.00000000000E+000,  0.10000000000E+001
  0.34203100000E+005,  0.30650808205E+007,  0.16500000000E+002,  0.00000000000E+000,  0.10000000000E+001
  0.34213100000E+005,  0.30662017529E+007,  0.16500000000E+002,  0.00000000000E+000,  0.10000000000E+001
  0.34223100000E+005,  0.30673132904E+007,  0.16500000000E+002,  0.00000000000E+000,  0.10000000000E+001
  0.34233100000E+005,  0.30684155403E+007,  0.16500000000E+002,  0.00000000000E+000,  0.10000000000E+001
  0.34243100000E+005,  0.30695086080E+007,  0.16500000000E+002,  0.00000000000E+000,  0.10000000000E+001
  0.34253100000E+005,  0.30705925975E+007,  0.16500000000E+002,  0.00000000000E+000,  0.10000000000E+001
  0.34263100000E+005,  0.30716676113E+007,  0.16500000000E+002,  0.00000000000E+000,  0.10000000000E+001
  0.34273100000E+005,  0.30727337504E+007,  0.16500000000E+002,  0.00000000000E+000,  0.10000000000E+001
  0.34283100000E+005,  0.30737911142E+007,  0.16500000000E+002,  0.00000000000E+000,  0.10000000000E+001
  0.34293100000E+005,  0.30748398007E+007,  0.16500000000E+002,  0.00000000000E+000,  0.10000000000E+001
  0.34303100000E+005,  0.30758799067E+007,  0.16500000000E+002,  0.00000000000E+000,  0.10000000000E+001
  0.34313100000E+005,  0.30769115273E+007,  0.16500000000E+002,  0.00000000000E+000,  0.10000000000E+001
  0.34323100000E+005,  0.30779347563E+007,  0.16500000000E+002,  0.00000000000E+000,  0.10000000000E+001
  0.34333100000E+005,  0.30789496863E+007,  0.16500000000E+002,  0.00000000000E+000,  0.10000000000E+001
  0.34343100000E+005,  0.30799564085E+007,  0.16500000000E+002,  0.00000000000E+000,  0.10000000000E+001
  0.34353100000E+005,  0.30809550127E+007,  0.16500000000E+002,  0.00000000000E+000,  0.10000000000E+001
  0.34363100000E+005,  0.30819455876E+007,  0.16500000000E+002,  0.00000000000E+000,  0.10000000000E+001
  0.34373100000E+005,  0.30829282206E+007,  0.16500000000E+002,  0.00000000000E+000,  0.10000000000E+001
  0.34383100000E+005,  0.30839029978E+007,  0.16500000000E+002,  0.00000000000E+000,  0.10000000000E+001
  0.34393100000E+005,  0.30848700042E+007,  0.16500000000E+002,  0.00000000000E+000,  0.10000000000E+001
  0.34403100000E+005,  0.30858293234E+007,  0.16500000000E+002,  0.00000000000E+000,  0.10000000000E+001
