"           TIME(S)","              PRES","              TEMP","             SAT_G","             SAT_L"
  0.94879000000E+005,  0.70405065271E+006,  0.16500000000E+002,  0.00000000000E+000,  0.10000000000E+001
  0.94884000000E+005,  0.70405065271E+006,  0.16500000000E+002,  0.00000000000E+000,  0.10000000000E+001
  0.94909000000E+005,  0.70405065272E+006,  0.16500000000E+002,  0.00000000000E+000,  0.10000000000E+001
  0.94939000000E+005,  0.70405065272E+006,  0.16500000000E+002,  0.00000000000E+000,  0.10000000000E+001
  0.94969000000E+005,  0.70405065272E+006,  0.16500000000E+002,  0.00000000000E+000,  0.10000000000E+001
  0.94999000000E+005,  0.70405065272E+006,  0.16500000000E+002,  0.00000000000E+000,  0.10000000000E+001
  0.95029000000E+005,  0.70405065272E+006,  0.16500000000E+002,  0.00000000000E+000,  0.10000000000E+001
  0.95059000000E+005,  0.70405065272E+006,  0.16500000000E+002,  0.00000000000E+000,  0.10000000000E+001
  0.95089000000E+005,  0.70405065272E+006,  0.16500000000E+002,  0.00000000000E+000,  0.10000000000E+001
  0.95119000000E+005,  0.70405065272E+006,  0.16500000000E+002,  0.00000000000E+000,  0.10000000000E+001
  0.95149000000E+005,  0.70405065272E+006,  0.16500000000E+002,  0.00000000000E+000,  0.10000000000E+001
  0.95179000000E+005,  0.70405065272E+006,  0.16500000000E+002,  0.00000000000E+000,  0.10000000000E+001
  0.95209000000E+005,  0.70405065272E+006,  0.16500000000E+002,  0.00000000000E+000,  0.10000000000E+001
  0.95239000000E+005,  0.70405065272E+006,  0.16500000000E+002,  0.00000000000E+000,  0.10000000000E+001
  0.95269000000E+005,  0.70405065272E+006,  0.16500000000E+002,  0.00000000000E+000,  0.10000000000E+001
  0.95299000000E+005,  0.70405065273E+006,  0.16500000000E+002,  0.00000000000E+000,  0.10000000000E+001
  0.95329000000E+005,  0.70405065273E+006,  0.16500000000E+002,  0.00000000000E+000,  0.10000000000E+001
  0.95359000000E+005,  0.70405065274E+006,  0.16500000000E+002,  0.00000000000E+000,  0.10000000000E+001
  0.95389000000E+005,  0.70405065275E+006,  0.16500000000E+002,  0.00000000000E+000,  0.10000000000E+001
  0.95419000000E+005,  0.70405065276E+006,  0.16500000000E+002,  0.00000000000E+000,  0.10000000000E+001
  0.95449000000E+005,  0.70405065279E+006,  0.16500000000E+002,  0.00000000000E+000,  0.10000000000E+001
  0.95479000000E+005,  0.70405065281E+006,  0.16500000000E+002,  0.00000000000E+000,  0.10000000000E+001
  0.95509000000E+005,  0.70405065285E+006,  0.16500000000E+002,  0.00000000000E+000,  0.10000000000E+001
  0.95539000000E+005,  0.70405065291E+006,  0.16500000000E+002,  0.00000000000E+000,  0.10000000000E+001
  0.95569000000E+005,  0.70405065297E+006,  0.16500000000E+002,  0.00000000000E+000,  0.10000000000E+001
  0.95599000000E+005,  0.70405065306E+006,  0.16500000000E+002,  0.00000000000E+000,  0.10000000000E+001
  0.95629000000E+005,  0.70405065317E+006,  0.16500000000E+002,  0.00000000000E+000,  0.10000000000E+001
  0.95659000000E+005,  0.70405065331E+006,  0.16500000000E+002,  0.00000000000E+000,  0.10000000000E+001
  0.95689000000E+005,  0.70405065349E+006,  0.16500000000E+002,  0.00000000000E+000,  0.10000000000E+001
  0.95719000000E+005,  0.70405065370E+006,  0.16500000000E+002,  0.00000000000E+000,  0.10000000000E+001
  0.95749000000E+005,  0.70405065396E+006,  0.16500000000E+002,  0.00000000000E+000,  0.10000000000E+001
  0.95779000000E+005,  0.70405065428E+006,  0.16500000000E+002,  0.00000000000E+000,  0.10000000000E+001
  0.95809000000E+005,  0.70405065466E+006,  0.16500000000E+002,  0.00000000000E+000,  0.10000000000E+001
  0.95839000000E+005,  0.70405065511E+006,  0.16500000000E+002,  0.00000000000E+000,  0.10000000000E+001
  0.95869000000E+005,  0.70405065564E+006,  0.16500000000E+002,  0.00000000000E+000,  0.10000000000E+001
  0.95899000000E+005,  0.70405065627E+006,  0.16500000000E+002,  0.00000000000E+000,  0.10000000000E+001
  0.95929000000E+005,  0.70405065700E+006,  0.16500000000E+002,  0.00000000000E+000,  0.10000000000E+001
  0.95959000000E+005,  0.70405065784E+006,  0.16500000000E+002,  0.00000000000E+000,  0.10000000000E+001
  0.95989000000E+005,  0.70405065882E+006,  0.16500000000E+002,  0.00000000000E+000,  0.10000000000E+001
  0.96019000000E+005,  0.70405065993E+006,  0.16500000000E+002,  0.00000000000E+000,  0.10000000000E+001
  0.96049000000E+005,  0.70405066121E+006,  0.16500000000E+002,  0.00000000000E+000,  0.10000000000E+001
  0.96079000000E+005,  0.70405066266E+006,  0.16500000000E+002,  0.00000000000E+000,  0.10000000000E+001
  0.96109000000E+005,  0.70405066429E+006,  0.16500000000E+002,  0.00000000000E+000,  0.10000000000E+001
  0.96139000000E+005,  0.70405066614E+006,  0.16500000000E+002,  0.00000000000E+000,  0.10000000000E+001
  0.96169000000E+005,  0.70405066820E+006,  0.16500000000E+002,  0.00000000000E+000,  0.10000000000E+001
  0.96199000000E+005,  0.70405067051E+006,  0.16500000000E+002,  0.00000000000E+000,  0.10000000000E+001
  0.96229000000E+005,  0.70405067309E+006,  0.16500000000E+002,  0.00000000000E+000,  0.10000000000E+001
  0.96259000000E+005,  0.70405067594E+006,  0.16500000000E+002,  0.00000000000E+000,  0.10000000000E+001
  0.96289000000E+005,  0.70405067910E+006,  0.16500000000E+002,  0.00000000000E+000,  0.10000000000E+001
  0.96319000000E+005,  0.70405068258E+006,  0.16500000000E+002,  0.00000000000E+000,  0.10000000000E+001
  0.96349000000E+005,  0.70405068641E+006,  0.16500000000E+002,  0.00000000000E+000,  0.10000000000E+001
  0.96379000000E+005,  0.70405069061E+006,  0.16500000000E+002,  0.00000000000E+000,  0.10000000000E+001
  0.96409000000E+005,  0.70405069521E+006,  0.16500000000E+002,  0.00000000000E+000,  0.10000000000E+001
  0.96439000000E+005,  0.70405070022E+006,  0.16500000000E+002,  0.00000000000E+000,  0.10000000000E+001
  0.96469000000E+005,  0.70405070568E+006,  0.16500000000E+002,  0.00000000000E+000,  0.10000000000E+001
  0.96499000000E+005,  0.70405071160E+006,  0.16500000000E+002,  0.00000000000E+000,  0.10000000000E+001
  0.96529000000E+005,  0.70405071802E+006,  0.16500000000E+002,  0.00000000000E+000,  0.10000000000E+001
  0.96559000000E+005,  0.70405072497E+006,  0.16500000000E+002,  0.00000000000E+000,  0.10000000000E+001
  0.96589000000E+005,  0.70405073246E+006,  0.16500000000E+002,  0.00000000000E+000,  0.10000000000E+001
  0.96619000000E+005,  0.70405074053E+006,  0.16500000000E+002,  0.00000000000E+000,  0.10000000000E+001
  0.96649000000E+005,  0.70405074921E+006,  0.16500000000E+002,  0.00000000000E+000,  0.10000000000E+001
  0.96679000000E+005,  0.70405075852E+006,  0.16500000000E+002,  0.00000000000E+000,  0.10000000000E+001
  0.96709000000E+005,  0.70405076850E+006,  0.16500000000E+002,  0.00000000000E+000,  0.10000000000E+001
  0.96739000000E+005,  0.70405077917E+006,  0.16500000000E+002,  0.00000000000E+000,  0.10000000000E+001
  0.96769000000E+005,  0.70405079056E+006,  0.16500000000E+002,  0.00000000000E+000,  0.10000000000E+001
  0.96799000000E+005,  0.70405080271E+006,  0.16500000000E+002,  0.00000000000E+000,  0.10000000000E+001
  0.96829000000E+005,  0.70405081565E+006,  0.16500000000E+002,  0.00000000000E+000,  0.10000000000E+001
  0.96859000000E+005,  0.70405082940E+006,  0.16500000000E+002,  0.00000000000E+000,  0.10000000000E+001
  0.96889000000E+005,  0.70405084400E+006,  0.16500000000E+002,  0.00000000000E+000,  0.10000000000E+001
  0.96919000000E+005,  0.70405085948E+006,  0.16500000000E+002,  0.00000000000E+000,  0.10000000000E+001
  0.96949000000E+005,  0.70405087588E+006,  0.16500000000E+002,  0.00000000000E+000,  0.10000000000E+001
  0.96979000000E+005,  0.70405089323E+006,  0.16500000000E+002,  0.00000000000E+000,  0.10000000000E+001
  0.97009000000E+005,  0.70405091155E+006,  0.16500000000E+002,  0.00000000000E+000,  0.10000000000E+001
  0.97039000000E+005,  0.70405093088E+006,  0.16500000000E+002,  0.00000000000E+000,  0.10000000000E+001
  0.97069000000E+005,  0.70405095127E+006,  0.16500000000E+002,  0.00000000000E+000,  0.10000000000E+001
  0.97099000000E+005,  0.70405097273E+006,  0.16500000000E+002,  0.00000000000E+000,  0.10000000000E+001
  0.97129000000E+005,  0.70405099531E+006,  0.16500000000E+002,  0.00000000000E+000,  0.10000000000E+001
  0.97159000000E+005,  0.70405101903E+006,  0.16500000000E+002,  0.00000000000E+000,  0.10000000000E+001
  0.97189000000E+005,  0.70405104394E+006,  0.16500000000E+002,  0.00000000000E+000,  0.10000000000E+001
  0.97219000000E+005,  0.70405107006E+006,  0.16500000000E+002,  0.00000000000E+000,  0.10000000000E+001
  0.97249000000E+005,  0.70405109744E+006,  0.16500000000E+002,  0.00000000000E+000,  0.10000000000E+001
  0.97279000000E+005,  0.70405112610E+006,  0.16500000000E+002,  0.00000000000E+000,  0.10000000000E+001
  0.97309000000E+005,  0.70405115608E+006,  0.16500000000E+002,  0.00000000000E+000,  0.10000000000E+001
  0.97339000000E+005,  0.70405118742E+006,  0.16500000000E+002,  0.00000000000E+000,  0.10000000000E+001
  0.97369000000E+005,  0.70405122016E+006,  0.16500000000E+002,  0.00000000000E+000,  0.10000000000E+001
  0.97399000000E+005,  0.70405125432E+006,  0.16500000000E+002,  0.00000000000E+000,  0.10000000000E+001
  0.97429000000E+005,  0.70405128994E+006,  0.16500000000E+002,  0.00000000000E+000,  0.10000000000E+001
  0.97459000000E+005,  0.70405132705E+006,  0.16500000000E+002,  0.00000000000E+000,  0.10000000000E+001
  0.97489000000E+005,  0.70405136571E+006,  0.16500000000E+002,  0.00000000000E+000,  0.10000000000E+001
  0.97519000000E+005,  0.70405140593E+006,  0.16500000000E+002,  0.00000000000E+000,  0.10000000000E+001
  0.97549000000E+005,  0.70405144775E+006,  0.16500000000E+002,  0.00000000000E+000,  0.10000000000E+001
  0.97579000000E+005,  0.70405149121E+006,  0.16500000000E+002,  0.00000000000E+000,  0.10000000000E+001
  0.97609000000E+005,  0.70405153635E+006,  0.16500000000E+002,  0.00000000000E+000,  0.10000000000E+001
  0.97639000000E+005,  0.70405158320E+006,  0.16500000000E+002,  0.00000000000E+000,  0.10000000000E+001
  0.97669000000E+005,  0.70405163179E+006,  0.16500000000E+002,  0.00000000000E+000,  0.10000000000E+001
  0.97699000000E+005,  0.70405168217E+006,  0.16500000000E+002,  0.00000000000E+000,  0.10000000000E+001
  0.97729000000E+005,  0.70405173437E+006,  0.16500000000E+002,  0.00000000000E+000,  0.10000000000E+001
  0.97759000000E+005,  0.70405178841E+006,  0.16500000000E+002,  0.00000000000E+000,  0.10000000000E+001
  0.97789000000E+005,  0.70405184435E+006,  0.16500000000E+002,  0.00000000000E+000,  0.10000000000E+001
  0.97819000000E+005,  0.70405190221E+006,  0.16500000000E+002,  0.00000000000E+000,  0.10000000000E+001
  0.97849000000E+005,  0.70405196203E+006,  0.16500000000E+002,  0.00000000000E+000,  0.10000000000E+001
  0.97879000000E+005,  0.70405202384E+006,  0.16500000000E+002,  0.00000000000E+000,  0.10000000000E+001
  0.97909000000E+005,  0.70405208768E+006,  0.16500000000E+002,  0.00000000000E+000,  0.10000000000E+001
  0.97939000000E+005,  0.70405215359E+006,  0.16500000000E+002,  0.00000000000E+000,  0.10000000000E+001
  0.97969000000E+005,  0.70405222160E+006,  0.16500000000E+002,  0.00000000000E+000,  0.10000000000E+001
  0.97999000000E+005,  0.70405229175E+006,  0.16500000000E+002,  0.00000000000E+000,  0.10000000000E+001
  0.98029000000E+005,  0.70405236406E+006,  0.16500000000E+002,  0.00000000000E+000,  0.10000000000E+001
  0.98059000000E+005,  0.70405243858E+006,  0.16500000000E+002,  0.00000000000E+000,  0.10000000000E+001
  0.98089000000E+005,  0.70405251534E+006,  0.16500000000E+002,  0.00000000000E+000,  0.10000000000E+001
  0.98119000000E+005,  0.70405259438E+006,  0.16500000000E+002,  0.00000000000E+000,  0.10000000000E+001
  0.98149000000E+005,  0.70405267573E+006,  0.16500000000E+002,  0.00000000000E+000,  0.10000000000E+001
  0.98179000000E+005,  0.70405275942E+006,  0.16500000000E+002,  0.00000000000E+000,  0.10000000000E+001
  0.98209000000E+005,  0.70405284549E+006,  0.16500000000E+002,  0.00000000000E+000,  0.10000000000E+001
  0.98239000000E+005,  0.70405293397E+006,  0.16500000000E+002,  0.00000000000E+000,  0.10000000000E+001
  0.98269000000E+005,  0.70405302490E+006,  0.16500000000E+002,  0.00000000000E+000,  0.10000000000E+001
  0.98299000000E+005,  0.70405311831E+006,  0.16500000000E+002,  0.00000000000E+000,  0.10000000000E+001
  0.98329000000E+005,  0.70405321424E+006,  0.16500000000E+002,  0.00000000000E+000,  0.10000000000E+001
  0.98359000000E+005,  0.70405331271E+006,  0.16500000000E+002,  0.00000000000E+000,  0.10000000000E+001
  0.98389000000E+005,  0.70405341377E+006,  0.16500000000E+002,  0.00000000000E+000,  0.10000000000E+001
  0.98419000000E+005,  0.70405351745E+006,  0.16500000000E+002,  0.00000000000E+000,  0.10000000000E+001
  0.98449000000E+005,  0.70405362378E+006,  0.16500000000E+002,  0.00000000000E+000,  0.10000000000E+001
  0.98479000000E+005,  0.70405373279E+006,  0.16500000000E+002,  0.00000000000E+000,  0.10000000000E+001
  0.98509000000E+005,  0.70405384452E+006,  0.16500000000E+002,  0.00000000000E+000,  0.10000000000E+001
  0.98539000000E+005,  0.70405395899E+006,  0.16500000000E+002,  0.00000000000E+000,  0.10000000000E+001
  0.98569000000E+005,  0.70405407626E+006,  0.16500000000E+002,  0.00000000000E+000,  0.10000000000E+001
  0.98599000000E+005,  0.70405419633E+006,  0.16500000000E+002,  0.00000000000E+000,  0.10000000000E+001
  0.98629000000E+005,  0.70405431926E+006,  0.16500000000E+002,  0.00000000000E+000,  0.10000000000E+001
  0.98659000000E+005,  0.70405444506E+006,  0.16500000000E+002,  0.00000000000E+000,  0.10000000000E+001
  0.98689000000E+005,  0.70405457378E+006,  0.16500000000E+002,  0.00000000000E+000,  0.10000000000E+001
  0.98719000000E+005,  0.70405470545E+006,  0.16500000000E+002,  0.00000000000E+000,  0.10000000000E+001
  0.98749000000E+005,  0.70405484009E+006,  0.16500000000E+002,  0.00000000000E+000,  0.10000000000E+001
  0.98779000000E+005,  0.70405497774E+006,  0.16500000000E+002,  0.00000000000E+000,  0.10000000000E+001
  0.98809000000E+005,  0.70405511843E+006,  0.16500000000E+002,  0.00000000000E+000,  0.10000000000E+001
  0.98839000000E+005,  0.70405526220E+006,  0.16500000000E+002,  0.00000000000E+000,  0.10000000000E+001
  0.98869000000E+005,  0.70405540907E+006,  0.16500000000E+002,  0.00000000000E+000,  0.10000000000E+001
  0.98899000000E+005,  0.70405555908E+006,  0.16500000000E+002,  0.00000000000E+000,  0.10000000000E+001
  0.98929000000E+005,  0.70405571225E+006,  0.16500000000E+002,  0.00000000000E+000,  0.10000000000E+001
  0.98959000000E+005,  0.70405586862E+006,  0.16500000000E+002,  0.00000000000E+000,  0.10000000000E+001
  0.98989000000E+005,  0.70405602822E+006,  0.16500000000E+002,  0.00000000000E+000,  0.10000000000E+001
  0.99019000000E+005,  0.70405619108E+006,  0.16500000000E+002,  0.00000000000E+000,  0.10000000000E+001
  0.99049000000E+005,  0.70405635722E+006,  0.16500000000E+002,  0.00000000000E+000,  0.10000000000E+001
  0.99079000000E+005,  0.70405652669E+006,  0.16500000000E+002,  0.00000000000E+000,  0.10000000000E+001
  0.99109000000E+005,  0.70405669951E+006,  0.16500000000E+002,  0.00000000000E+000,  0.10000000000E+001
  0.99139000000E+005,  0.70405687571E+006,  0.16500000000E+002,  0.00000000000E+000,  0.10000000000E+001
  0.99169000000E+005,  0.70405705531E+006,  0.16500000000E+002,  0.00000000000E+000,  0.10000000000E+001
  0.99199000000E+005,  0.70405723836E+006,  0.16500000000E+002,  0.00000000000E+000,  0.10000000000E+001
  0.99229000000E+005,  0.70405742488E+006,  0.16500000000E+002,  0.00000000000E+000,  0.10000000000E+001
  0.99259000000E+005,  0.70405761489E+006,  0.16500000000E+002,  0.00000000000E+000,  0.10000000000E+001
  0.99289000000E+005,  0.70405780843E+006,  0.16500000000E+002,  0.00000000000E+000,  0.10000000000E+001
  0.99319000000E+005,  0.70405800553E+006,  0.16500000000E+002,  0.00000000000E+000,  0.10000000000E+001
  0.99349000000E+005,  0.70405820621E+006,  0.16500000000E+002,  0.00000000000E+000,  0.10000000000E+001
  0.99379000000E+005,  0.70405841051E+006,  0.16500000000E+002,  0.00000000000E+000,  0.10000000000E+001
  0.99409000000E+005,  0.70405861845E+006,  0.16500000000E+002,  0.00000000000E+000,  0.10000000000E+001
  0.99439000000E+005,  0.70405883006E+006,  0.16500000000E+002,  0.00000000000E+000,  0.10000000000E+001
  0.99469000000E+005,  0.70405904537E+006,  0.16500000000E+002,  0.00000000000E+000,  0.10000000000E+001
  0.99499000000E+005,  0.70405926441E+006,  0.16500000000E+002,  0.00000000000E+000,  0.10000000000E+001
  0.99529000000E+005,  0.70405948720E+006,  0.16500000000E+002,  0.00000000000E+000,  0.10000000000E+001
  0.99559000000E+005,  0.70405971378E+006,  0.16500000000E+002,  0.00000000000E+000,  0.10000000000E+001
  0.99589000000E+005,  0.70405994416E+006,  0.16500000000E+002,  0.00000000000E+000,  0.10000000000E+001
  0.99619000000E+005,  0.70406017839E+006,  0.16500000000E+002,  0.00000000000E+000,  0.10000000000E+001
  0.99649000000E+005,  0.70406041647E+006,  0.16500000000E+002,  0.00000000000E+000,  0.10000000000E+001
  0.99679000000E+005,  0.70406065845E+006,  0.16500000000E+002,  0.00000000000E+000,  0.10000000000E+001
  0.99709000000E+005,  0.70406090435E+006,  0.16500000000E+002,  0.00000000000E+000,  0.10000000000E+001
  0.99739000000E+005,  0.70406115419E+006,  0.16500000000E+002,  0.00000000000E+000,  0.10000000000E+001
  0.99769000000E+005,  0.70406140800E+006,  0.16500000000E+002,  0.00000000000E+000,  0.10000000000E+001
  0.99799000000E+005,  0.70406166582E+006,  0.16500000000E+002,  0.00000000000E+000,  0.10000000000E+001
  0.99829000000E+005,  0.70406192765E+006,  0.16500000000E+002,  0.00000000000E+000,  0.10000000000E+001
  0.99859000000E+005,  0.70406219354E+006,  0.16500000000E+002,  0.00000000000E+000,  0.10000000000E+001
  0.99889000000E+005,  0.70406246350E+006,  0.16500000000E+002,  0.00000000000E+000,  0.10000000000E+001
  0.99919000000E+005,  0.70406273757E+006,  0.16500000000E+002,  0.00000000000E+000,  0.10000000000E+001
  0.99949000000E+005,  0.70406301576E+006,  0.16500000000E+002,  0.00000000000E+000,  0.10000000000E+001
  0.99979000000E+005,  0.70406329810E+006,  0.16500000000E+002,  0.00000000000E+000,  0.10000000000E+001
  0.10000900000E+006,  0.70406358462E+006,  0.16500000000E+002,  0.00000000000E+000,  0.10000000000E+001
  0.10003900000E+006,  0.70406387535E+006,  0.16500000000E+002,  0.00000000000E+000,  0.10000000000E+001
  0.10006900000E+006,  0.70406417030E+006,  0.16500000000E+002,  0.00000000000E+000,  0.10000000000E+001
  0.10009900000E+006,  0.70406446951E+006,  0.16500000000E+002,  0.00000000000E+000,  0.10000000000E+001
  0.10012900000E+006,  0.70406477299E+006,  0.16500000000E+002,  0.00000000000E+000,  0.10000000000E+001
  0.10015900000E+006,  0.70406508078E+006,  0.16500000000E+002,  0.00000000000E+000,  0.10000000000E+001
  0.10018900000E+006,  0.70406539289E+006,  0.16500000000E+002,  0.00000000000E+000,  0.10000000000E+001
  0.10021900000E+006,  0.70406570935E+006,  0.16500000000E+002,  0.00000000000E+000,  0.10000000000E+001
  0.10024900000E+006,  0.70406603018E+006,  0.16500000000E+002,  0.00000000000E+000,  0.10000000000E+001
  0.10027900000E+006,  0.70406635541E+006,  0.16500000000E+002,  0.00000000000E+000,  0.10000000000E+001
  0.10030900000E+006,  0.70406668507E+006,  0.16500000000E+002,  0.00000000000E+000,  0.10000000000E+001
  0.10033900000E+006,  0.70406701916E+006,  0.16500000000E+002,  0.00000000000E+000,  0.10000000000E+001
  0.10036900000E+006,  0.70406735773E+006,  0.16500000000E+002,  0.00000000000E+000,  0.10000000000E+001
  0.10039900000E+006,  0.70406770078E+006,  0.16500000000E+002,  0.00000000000E+000,  0.10000000000E+001
  0.10042900000E+006,  0.70406804835E+006,  0.16500000000E+002,  0.00000000000E+000,  0.10000000000E+001
  0.10045900000E+006,  0.70406840046E+006,  0.16500000000E+002,  0.00000000000E+000,  0.10000000000E+001
  0.10048900000E+006,  0.70406875712E+006,  0.16500000000E+002,  0.00000000000E+000,  0.10000000000E+001
