"           TIME(S)","              PRES","              TEMP","             SAT_G","             SAT_L"
  0.94860000000E+005,  0.99606484265E+006,  0.16500000000E+002,  0.00000000000E+000,  0.10000000000E+001
  0.94870000000E+005,  0.99606484272E+006,  0.16500000000E+002,  0.00000000000E+000,  0.10000000000E+001
  0.94880000000E+005,  0.99606484278E+006,  0.16500000000E+002,  0.00000000000E+000,  0.10000000000E+001
  0.94890000000E+005,  0.17003224202E+007,  0.16500000000E+002,  0.00000000000E+000,  0.10000000000E+001
  0.94900000000E+005,  0.25159867338E+007,  0.16500000000E+002,  0.00000000000E+000,  0.10000000000E+001
  0.94910000000E+005,  0.33119279445E+007,  0.16500000000E+002,  0.00000000000E+000,  0.10000000000E+001
  0.94920000000E+005,  0.42089162809E+007,  0.16500000000E+002,  0.00000000000E+000,  0.10000000000E+001
  0.94930000000E+005,  0.53801918640E+007,  0.16500000000E+002,  0.00000000000E+000,  0.10000000000E+001
  0.94940000000E+005,  0.87190304215E+007,  0.16500000000E+002,  0.00000000000E+000,  0.10000000000E+001
  0.94950000000E+005,  0.12524522382E+008,  0.16500000000E+002,  0.00000000000E+000,  0.10000000000E+001
  0.94960000000E+005,  0.16388008734E+008,  0.16500000000E+002,  0.00000000000E+000,  0.10000000000E+001
  0.94970000000E+005,  0.20085998341E+008,  0.16500000000E+002,  0.00000000000E+000,  0.10000000000E+001
  0.94980000000E+005,  0.23702427623E+008,  0.16500000000E+002,  0.00000000000E+000,  0.10000000000E+001
  0.94990000000E+005,  0.27242755631E+008,  0.16500000000E+002,  0.00000000000E+000,  0.10000000000E+001
  0.95000000000E+005,  0.30790959621E+008,  0.16500000000E+002,  0.00000000000E+000,  0.10000000000E+001
  0.95010000000E+005,  0.34254387822E+008,  0.16500000000E+002,  0.00000000000E+000,  0.10000000000E+001
  0.95020000000E+005,  0.37651757338E+008,  0.16500000000E+002,  0.00000000000E+000,  0.10000000000E+001
  0.95030000000E+005,  0.40963374241E+008,  0.16500000000E+002,  0.00000000000E+000,  0.10000000000E+001
  0.95040000000E+005,  0.44174126599E+008,  0.16500000000E+002,  0.00000000000E+000,  0.10000000000E+001
  0.95050000000E+005,  0.47329210492E+008,  0.16500000000E+002,  0.00000000000E+000,  0.10000000000E+001
  0.95060000000E+005,  0.50430716455E+008,  0.16500000000E+002,  0.00000000000E+000,  0.10000000000E+001
  0.95070000000E+005,  0.53480610051E+008,  0.16500000000E+002,  0.00000000000E+000,  0.10000000000E+001
  0.95080000000E+005,  0.56480731214E+008,  0.16500000000E+002,  0.00000000000E+000,  0.10000000000E+001
  0.95090000000E+005,  0.59432802035E+008,  0.16500000000E+002,  0.00000000000E+000,  0.10000000000E+001
  0.95100000000E+005,  0.62338436557E+008,  0.16500000000E+002,  0.00000000000E+000,  0.10000000000E+001
  0.95110000000E+005,  0.65199150535E+008,  0.16500000000E+002,  0.00000000000E+000,  0.10000000000E+001
  0.95120000000E+005,  0.68016370428E+008,  0.16500000000E+002,  0.00000000000E+000,  0.10000000000E+001
  0.95128100000E+005,  0.70270029128E+008,  0.16500000000E+002,  0.00000000000E+000,  0.10000000000E+001
  0.95138100000E+005,  0.73011820980E+008,  0.16500000000E+002,  0.00000000000E+000,  0.10000000000E+001
  0.95148100000E+005,  0.75713718483E+008,  0.16500000000E+002,  0.00000000000E+000,  0.10000000000E+001
  0.95158100000E+005,  0.78376874331E+008,  0.16500000000E+002,  0.00000000000E+000,  0.10000000000E+001
  0.95168100000E+005,  0.81002383166E+008,  0.16500000000E+002,  0.00000000000E+000,  0.10000000000E+001
  0.95178100000E+005,  0.83591286154E+008,  0.16500000000E+002,  0.00000000000E+000,  0.10000000000E+001
  0.95188100000E+005,  0.86144575051E+008,  0.16500000000E+002,  0.00000000000E+000,  0.10000000000E+001
  0.95198100000E+005,  0.88663195834E+008,  0.16500000000E+002,  0.00000000000E+000,  0.10000000000E+001
  0.95208100000E+005,  0.91148051958E+008,  0.16500000000E+002,  0.00000000000E+000,  0.10000000000E+001
  0.95218100000E+005,  0.93600007294E+008,  0.16500000000E+002,  0.00000000000E+000,  0.10000000000E+001
  0.95228100000E+005,  0.96019888783E+008,  0.16500000000E+002,  0.00000000000E+000,  0.10000000000E+001
  0.95238100000E+005,  0.98408488849E+008,  0.16500000000E+002,  0.00000000000E+000,  0.10000000000E+001
  0.95239350000E+005,  0.98706319543E+008,  0.16500000000E+002,  0.00000000000E+000,  0.10000000000E+001
  0.95240131250E+005,  0.98892266066E+008,  0.16500000000E+002,  0.00000000000E+000,  0.10000000000E+001
  0.95244037500E+005,  0.99817598405E+008,  0.16500000000E+002,  0.00000000000E+000,  0.10000000000E+001
  0.95244193750E+005,  0.99854591013E+008,  0.16500000000E+002,  0.00000000000E+000,  0.10000000000E+001
  0.95244291406E+005,  0.99877708207E+008,  0.16500000000E+002,  0.00000000000E+000,  0.10000000000E+001
  0.95244352441E+005,  0.99892155252E+008,  0.16500000000E+002,  0.00000000000E+000,  0.10000000000E+001
  0.95244657617E+005,  0.99964364859E+008,  0.16500000000E+002,  0.00000000000E+000,  0.10000000000E+001
  0.95244681459E+005,  0.99970005801E+008,  0.16500000000E+002,  0.00000000000E+000,  0.10000000000E+001
  0.95244696360E+005,  0.99973531314E+008,  0.16500000000E+002,  0.00000000000E+000,  0.10000000000E+001
  0.95244705673E+005,  0.99975734732E+008,  0.16500000000E+002,  0.00000000000E+000,  0.10000000000E+001
  0.95244752240E+005,  0.99986751242E+008,  0.16500000000E+002,  0.00000000000E+000,  0.10000000000E+001
  0.95244755878E+005,  0.99987611894E+008,  0.16500000000E+002,  0.00000000000E+000,  0.10000000000E+001
  0.95244758151E+005,  0.99988149800E+008,  0.16500000000E+002,  0.00000000000E+000,  0.10000000000E+001
  0.95244759572E+005,  0.99988485991E+008,  0.16500000000E+002,  0.00000000000E+000,  0.10000000000E+001
  0.95244766678E+005,  0.99990166933E+008,  0.16500000000E+002,  0.00000000000E+000,  0.10000000000E+001
  0.95244767233E+005,  0.99990298256E+008,  0.16500000000E+002,  0.00000000000E+000,  0.10000000000E+001
  0.95244767580E+005,  0.99990380333E+008,  0.16500000000E+002,  0.00000000000E+000,  0.10000000000E+001
  0.95244767797E+005,  0.99990431631E+008,  0.16500000000E+002,  0.00000000000E+000,  0.10000000000E+001
  0.95244768881E+005,  0.99990688121E+008,  0.16500000000E+002,  0.00000000000E+000,  0.10000000000E+001
  0.95244768966E+005,  0.99990708159E+008,  0.16500000000E+002,  0.00000000000E+000,  0.10000000000E+001
  0.95244769019E+005,  0.99990708159E+008,  0.16500000000E+002,  0.00000000000E+000,  0.10000000000E+001
  0.95244769283E+005,  0.99990770779E+008,  0.16500000000E+002,  0.00000000000E+000,  0.10000000000E+001
  0.95244769304E+005,  0.99990770779E+008,  0.16500000000E+002,  0.00000000000E+000,  0.10000000000E+001
  0.95244769317E+005,  0.99990770779E+008,  0.16500000000E+002,  0.00000000000E+000,  0.10000000000E+001
  0.95244769381E+005,  0.99990770779E+008,  0.16500000000E+002,  0.00000000000E+000,  0.10000000000E+001
  0.95244769422E+005,  0.99990770779E+008,  0.16500000000E+002,  0.00000000000E+000,  0.10000000000E+001
