"           TIME(S)","              PRES","              TEMP","             SAT_G","             SAT_L"
  0.10000000000E+001,  0.10983088874E+006,  0.16500000000E+002,  0.00000000000E+000,  0.10000000000E+001
  0.60000000000E+001,  0.10994818723E+006,  0.16500000000E+002,  0.00000000000E+000,  0.10000000000E+001
  0.31000000000E+002,  0.11004291542E+006,  0.16500000000E+002,  0.00000000000E+000,  0.10000000000E+001
  0.91000000000E+002,  0.11009704594E+006,  0.16500000000E+002,  0.00000000000E+000,  0.10000000000E+001
  0.15100000000E+003,  0.11012140076E+006,  0.16500000000E+002,  0.00000000000E+000,  0.10000000000E+001
  0.21100000000E+003,  0.11013633305E+006,  0.16500000000E+002,  0.00000000000E+000,  0.10000000000E+001
  0.27100000000E+003,  0.11014697339E+006,  0.16500000000E+002,  0.00000000000E+000,  0.10000000000E+001
  0.33100000000E+003,  0.11015520865E+006,  0.16500000000E+002,  0.00000000000E+000,  0.10000000000E+001
  0.39100000000E+003,  0.11016191836E+006,  0.16500000000E+002,  0.00000000000E+000,  0.10000000000E+001
  0.45100000000E+003,  0.11016757860E+006,  0.16500000000E+002,  0.00000000000E+000,  0.10000000000E+001
  0.51100000000E+003,  0.11017247405E+006,  0.16500000000E+002,  0.00000000000E+000,  0.10000000000E+001
  0.57100000000E+003,  0.11017678763E+006,  0.16500000000E+002,  0.00000000000E+000,  0.10000000000E+001
  0.63100000000E+003,  0.11018064353E+006,  0.16500000000E+002,  0.00000000000E+000,  0.10000000000E+001
  0.69100000000E+003,  0.11018064353E+006,  0.16500000000E+002,  0.00000000000E+000,  0.10000000000E+001
  0.75100000000E+003,  0.11018064353E+006,  0.16500000000E+002,  0.00000000000E+000,  0.10000000000E+001
  0.81100000000E+003,  0.11018064353E+006,  0.16500000000E+002,  0.00000000000E+000,  0.10000000000E+001
  0.87100000000E+003,  0.11018064353E+006,  0.16500000000E+002,  0.00000000000E+000,  0.10000000000E+001
  0.93100000000E+003,  0.11018064353E+006,  0.16500000000E+002,  0.00000000000E+000,  0.10000000000E+001
  0.99100000000E+003,  0.11018064353E+006,  0.16500000000E+002,  0.00000000000E+000,  0.10000000000E+001
  0.10510000000E+004,  0.11018064353E+006,  0.16500000000E+002,  0.00000000000E+000,  0.10000000000E+001
  0.11110000000E+004,  0.11018064353E+006,  0.16500000000E+002,  0.00000000000E+000,  0.10000000000E+001
  0.11710000000E+004,  0.11018064353E+006,  0.16500000000E+002,  0.00000000000E+000,  0.10000000000E+001
  0.12310000000E+004,  0.11018064353E+006,  0.16500000000E+002,  0.00000000000E+000,  0.10000000000E+001
