"           TIME(S)","              PRES","              TEMP","             SAT_G","             SAT_L"
  0.32549000000E+005,  0.58555838408E+007,  0.16500000000E+002,  0.00000000000E+000,  0.10000000000E+001
  0.32559000000E+005,  0.50581447438E+007,  0.16500000000E+002,  0.00000000000E+000,  0.10000000000E+001
  0.32609000000E+005,  0.51992619472E+007,  0.16500000000E+002,  0.00000000000E+000,  0.10000000000E+001
  0.32669000000E+005,  0.54998143586E+007,  0.16500000000E+002,  0.00000000000E+000,  0.10000000000E+001
  0.32729000000E+005,  0.57196533720E+007,  0.16500000000E+002,  0.00000000000E+000,  0.10000000000E+001
  0.32789000000E+005,  0.59029979960E+007,  0.16500000000E+002,  0.00000000000E+000,  0.10000000000E+001
  0.32849000000E+005,  0.60526475556E+007,  0.16500000000E+002,  0.00000000000E+000,  0.10000000000E+001
  0.32909000000E+005,  0.61782030905E+007,  0.16500000000E+002,  0.00000000000E+000,  0.10000000000E+001
  0.32969000000E+005,  0.62860796113E+007,  0.16500000000E+002,  0.00000000000E+000,  0.10000000000E+001
  0.33029000000E+005,  0.63805335654E+007,  0.16500000000E+002,  0.00000000000E+000,  0.10000000000E+001
  0.33089000000E+005,  0.64644883581E+007,  0.16500000000E+002,  0.00000000000E+000,  0.10000000000E+001
  0.33149000000E+005,  0.65400231127E+007,  0.16500000000E+002,  0.00000000000E+000,  0.10000000000E+001
  0.33209000000E+005,  0.66086627626E+007,  0.16500000000E+002,  0.00000000000E+000,  0.10000000000E+001
  0.33269000000E+005,  0.66715559637E+007,  0.16500000000E+002,  0.00000000000E+000,  0.10000000000E+001
  0.33329000000E+005,  0.67295880929E+007,  0.16500000000E+002,  0.00000000000E+000,  0.10000000000E+001
  0.33389000000E+005,  0.67834553539E+007,  0.16500000000E+002,  0.00000000000E+000,  0.10000000000E+001
  0.33449000000E+005,  0.68337148046E+007,  0.16500000000E+002,  0.00000000000E+000,  0.10000000000E+001
  0.33509000000E+005,  0.68808190047E+007,  0.16500000000E+002,  0.00000000000E+000,  0.10000000000E+001
  0.33569000000E+005,  0.69251405733E+007,  0.16500000000E+002,  0.00000000000E+000,  0.10000000000E+001
  0.33629000000E+005,  0.69669899601E+007,  0.16500000000E+002,  0.00000000000E+000,  0.10000000000E+001
  0.33689000000E+005,  0.70066285389E+007,  0.16500000000E+002,  0.00000000000E+000,  0.10000000000E+001
  0.33749000000E+005,  0.70442784298E+007,  0.16500000000E+002,  0.00000000000E+000,  0.10000000000E+001
  0.33809000000E+005,  0.70801299783E+007,  0.16500000000E+002,  0.00000000000E+000,  0.10000000000E+001
  0.33869000000E+005,  0.71143475235E+007,  0.16500000000E+002,  0.00000000000E+000,  0.10000000000E+001
  0.33929000000E+005,  0.71470739140E+007,  0.16500000000E+002,  0.00000000000E+000,  0.10000000000E+001
  0.33989000000E+005,  0.71784340799E+007,  0.16500000000E+002,  0.00000000000E+000,  0.10000000000E+001
  0.34049000000E+005,  0.72085378884E+007,  0.16500000000E+002,  0.00000000000E+000,  0.10000000000E+001
  0.34109000000E+005,  0.72374824503E+007,  0.16500000000E+002,  0.00000000000E+000,  0.10000000000E+001
  0.34169000000E+005,  0.72653540010E+007,  0.16500000000E+002,  0.00000000000E+000,  0.10000000000E+001
  0.34229000000E+005,  0.72922294449E+007,  0.16500000000E+002,  0.00000000000E+000,  0.10000000000E+001
  0.34289000000E+005,  0.73181776363E+007,  0.16500000000E+002,  0.00000000000E+000,  0.10000000000E+001
  0.34349000000E+005,  0.73432604467E+007,  0.16500000000E+002,  0.00000000000E+000,  0.10000000000E+001
  0.34409000000E+005,  0.73675336618E+007,  0.16500000000E+002,  0.00000000000E+000,  0.10000000000E+001
  0.34469000000E+005,  0.73910477398E+007,  0.16500000000E+002,  0.00000000000E+000,  0.10000000000E+001
  0.34529000000E+005,  0.74138484552E+007,  0.16500000000E+002,  0.00000000000E+000,  0.10000000000E+001
  0.34589000000E+005,  0.74359774494E+007,  0.16500000000E+002,  0.00000000000E+000,  0.10000000000E+001
  0.34649000000E+005,  0.74574727039E+007,  0.16500000000E+002,  0.00000000000E+000,  0.10000000000E+001
  0.34709000000E+005,  0.74783689478E+007,  0.16500000000E+002,  0.00000000000E+000,  0.10000000000E+001
  0.34769000000E+005,  0.74986980116E+007,  0.16500000000E+002,  0.00000000000E+000,  0.10000000000E+001
  0.34829000000E+005,  0.75184891348E+007,  0.16500000000E+002,  0.00000000000E+000,  0.10000000000E+001
  0.34889000000E+005,  0.75377692341E+007,  0.16500000000E+002,  0.00000000000E+000,  0.10000000000E+001
  0.34949000000E+005,  0.75565631401E+007,  0.16500000000E+002,  0.00000000000E+000,  0.10000000000E+001
  0.35009000000E+005,  0.75748938030E+007,  0.16500000000E+002,  0.00000000000E+000,  0.10000000000E+001
  0.35069000000E+005,  0.75927824764E+007,  0.16500000000E+002,  0.00000000000E+000,  0.10000000000E+001
  0.35129000000E+005,  0.76102488784E+007,  0.16500000000E+002,  0.00000000000E+000,  0.10000000000E+001
  0.35189000000E+005,  0.76273113352E+007,  0.16500000000E+002,  0.00000000000E+000,  0.10000000000E+001
  0.35249000000E+005,  0.76439869089E+007,  0.16500000000E+002,  0.00000000000E+000,  0.10000000000E+001
  0.35309000000E+005,  0.76602915108E+007,  0.16500000000E+002,  0.00000000000E+000,  0.10000000000E+001
  0.35369000000E+005,  0.76762400034E+007,  0.16500000000E+002,  0.00000000000E+000,  0.10000000000E+001
  0.35429000000E+005,  0.76918462913E+007,  0.16500000000E+002,  0.00000000000E+000,  0.10000000000E+001
  0.35489000000E+005,  0.77071234029E+007,  0.16500000000E+002,  0.00000000000E+000,  0.10000000000E+001
  0.35549000000E+005,  0.77220835640E+007,  0.16500000000E+002,  0.00000000000E+000,  0.10000000000E+001
  0.35609000000E+005,  0.77367382635E+007,  0.16500000000E+002,  0.00000000000E+000,  0.10000000000E+001
  0.35669000000E+005,  0.77510983137E+007,  0.16500000000E+002,  0.00000000000E+000,  0.10000000000E+001
  0.35729000000E+005,  0.77651739040E+007,  0.16500000000E+002,  0.00000000000E+000,  0.10000000000E+001
  0.35789000000E+005,  0.77789746493E+007,  0.16500000000E+002,  0.00000000000E+000,  0.10000000000E+001
  0.35849000000E+005,  0.77925096351E+007,  0.16500000000E+002,  0.00000000000E+000,  0.10000000000E+001
  0.35909000000E+005,  0.78057874571E+007,  0.16500000000E+002,  0.00000000000E+000,  0.10000000000E+001
  0.35969000000E+005,  0.78188162577E+007,  0.16500000000E+002,  0.00000000000E+000,  0.10000000000E+001
  0.36029000000E+005,  0.77909997580E+007,  0.16500000000E+002,  0.00000000000E+000,  0.10000000000E+001
  0.36089000000E+005,  0.77529230532E+007,  0.16500000000E+002,  0.00000000000E+000,  0.10000000000E+001
  0.36149000000E+005,  0.77537878582E+007,  0.16500000000E+002,  0.00000000000E+000,  0.10000000000E+001
  0.36209000000E+005,  0.77593091345E+007,  0.16500000000E+002,  0.00000000000E+000,  0.10000000000E+001
  0.36269000000E+005,  0.77664920874E+007,  0.16500000000E+002,  0.00000000000E+000,  0.10000000000E+001
  0.36329000000E+005,  0.77745009817E+007,  0.16500000000E+002,  0.00000000000E+000,  0.10000000000E+001
  0.36389000000E+005,  0.77829684550E+007,  0.16500000000E+002,  0.00000000000E+000,  0.10000000000E+001
  0.36449000000E+005,  0.77916987500E+007,  0.16500000000E+002,  0.00000000000E+000,  0.10000000000E+001
  0.36509000000E+005,  0.78005756775E+007,  0.16500000000E+002,  0.00000000000E+000,  0.10000000000E+001
  0.36569000000E+005,  0.78095252821E+007,  0.16500000000E+002,  0.00000000000E+000,  0.10000000000E+001
  0.36629000000E+005,  0.78184981436E+007,  0.16500000000E+002,  0.00000000000E+000,  0.10000000000E+001
  0.36689000000E+005,  0.78274600537E+007,  0.16500000000E+002,  0.00000000000E+000,  0.10000000000E+001
  0.36749000000E+005,  0.78363867119E+007,  0.16500000000E+002,  0.00000000000E+000,  0.10000000000E+001
  0.36809000000E+005,  0.78452605252E+007,  0.16500000000E+002,  0.00000000000E+000,  0.10000000000E+001
  0.36869000000E+005,  0.78540685857E+007,  0.16500000000E+002,  0.00000000000E+000,  0.10000000000E+001
  0.36929000000E+005,  0.78628013441E+007,  0.16500000000E+002,  0.00000000000E+000,  0.10000000000E+001
  0.36989000000E+005,  0.78714517115E+007,  0.16500000000E+002,  0.00000000000E+000,  0.10000000000E+001
  0.37049000000E+005,  0.78800144351E+007,  0.16500000000E+002,  0.00000000000E+000,  0.10000000000E+001
  0.37109000000E+005,  0.78884856548E+007,  0.16500000000E+002,  0.00000000000E+000,  0.10000000000E+001
  0.37169000000E+005,  0.78968625804E+007,  0.16500000000E+002,  0.00000000000E+000,  0.10000000000E+001
  0.37229000000E+005,  0.79051432540E+007,  0.16500000000E+002,  0.00000000000E+000,  0.10000000000E+001
  0.37289000000E+005,  0.79133263711E+007,  0.16500000000E+002,  0.00000000000E+000,  0.10000000000E+001
  0.37349000000E+005,  0.79214111448E+007,  0.16500000000E+002,  0.00000000000E+000,  0.10000000000E+001
  0.37409000000E+005,  0.79293972006E+007,  0.16500000000E+002,  0.00000000000E+000,  0.10000000000E+001
  0.37469000000E+005,  0.79000494806E+007,  0.16500000000E+002,  0.00000000000E+000,  0.10000000000E+001
  0.37529000000E+005,  0.80218971337E+007,  0.16500000000E+002,  0.00000000000E+000,  0.10000000000E+001
  0.37589000000E+005,  0.80475944117E+007,  0.16500000000E+002,  0.00000000000E+000,  0.10000000000E+001
  0.37649000000E+005,  0.80639867122E+007,  0.16500000000E+002,  0.00000000000E+000,  0.10000000000E+001
  0.37709000000E+005,  0.80773304908E+007,  0.16500000000E+002,  0.00000000000E+000,  0.10000000000E+001
  0.37769000000E+005,  0.80891031130E+007,  0.16500000000E+002,  0.00000000000E+000,  0.10000000000E+001
  0.37829000000E+005,  0.80998926999E+007,  0.16500000000E+002,  0.00000000000E+000,  0.10000000000E+001
  0.37889000000E+005,  0.81099961201E+007,  0.16500000000E+002,  0.00000000000E+000,  0.10000000000E+001
  0.37949000000E+005,  0.81195845044E+007,  0.16500000000E+002,  0.00000000000E+000,  0.10000000000E+001
  0.38009000000E+005,  0.81287655420E+007,  0.16500000000E+002,  0.00000000000E+000,  0.10000000000E+001
  0.38069000000E+005,  0.81376114402E+007,  0.16500000000E+002,  0.00000000000E+000,  0.10000000000E+001
  0.38129000000E+005,  0.81461730314E+007,  0.16500000000E+002,  0.00000000000E+000,  0.10000000000E+001
  0.38189000000E+005,  0.81544875247E+007,  0.16500000000E+002,  0.00000000000E+000,  0.10000000000E+001
  0.38249000000E+005,  0.81625830511E+007,  0.16500000000E+002,  0.00000000000E+000,  0.10000000000E+001
  0.38309000000E+005,  0.81704814688E+007,  0.16500000000E+002,  0.00000000000E+000,  0.10000000000E+001
  0.38369000000E+005,  0.81782001672E+007,  0.16500000000E+002,  0.00000000000E+000,  0.10000000000E+001
  0.38429000000E+005,  0.81857532683E+007,  0.16500000000E+002,  0.00000000000E+000,  0.10000000000E+001
  0.38489000000E+005,  0.81931524498E+007,  0.16500000000E+002,  0.00000000000E+000,  0.10000000000E+001
  0.38549000000E+005,  0.82004075237E+007,  0.16500000000E+002,  0.00000000000E+000,  0.10000000000E+001
  0.38609000000E+005,  0.82075268522E+007,  0.16500000000E+002,  0.00000000000E+000,  0.10000000000E+001
  0.38669000000E+005,  0.82145176526E+007,  0.16500000000E+002,  0.00000000000E+000,  0.10000000000E+001
  0.38729000000E+005,  0.82213862251E+007,  0.16500000000E+002,  0.00000000000E+000,  0.10000000000E+001
  0.38789000000E+005,  0.82281381251E+007,  0.16500000000E+002,  0.00000000000E+000,  0.10000000000E+001
  0.38849000000E+005,  0.82347782962E+007,  0.16500000000E+002,  0.00000000000E+000,  0.10000000000E+001
  0.38909000000E+005,  0.82413111740E+007,  0.16500000000E+002,  0.00000000000E+000,  0.10000000000E+001
  0.38969000000E+005,  0.82477407672E+007,  0.16500000000E+002,  0.00000000000E+000,  0.10000000000E+001
  0.39029000000E+005,  0.82540707240E+007,  0.16500000000E+002,  0.00000000000E+000,  0.10000000000E+001
  0.39089000000E+005,  0.82603043836E+007,  0.16500000000E+002,  0.00000000000E+000,  0.10000000000E+001
  0.39149000000E+005,  0.82664448200E+007,  0.16500000000E+002,  0.00000000000E+000,  0.10000000000E+001
  0.39209000000E+005,  0.82724948766E+007,  0.16500000000E+002,  0.00000000000E+000,  0.10000000000E+001
  0.39269000000E+005,  0.82784571960E+007,  0.16500000000E+002,  0.00000000000E+000,  0.10000000000E+001
  0.39329000000E+005,  0.82843342439E+007,  0.16500000000E+002,  0.00000000000E+000,  0.10000000000E+001
  0.39389000000E+005,  0.82901283297E+007,  0.16500000000E+002,  0.00000000000E+000,  0.10000000000E+001
  0.39449000000E+005,  0.82958416241E+007,  0.16500000000E+002,  0.00000000000E+000,  0.10000000000E+001
  0.39509000000E+005,  0.83014761736E+007,  0.16500000000E+002,  0.00000000000E+000,  0.10000000000E+001
  0.39569000000E+005,  0.83070339131E+007,  0.16500000000E+002,  0.00000000000E+000,  0.10000000000E+001
  0.39629000000E+005,  0.83125166773E+007,  0.16500000000E+002,  0.00000000000E+000,  0.10000000000E+001
  0.39689000000E+005,  0.83179262096E+007,  0.16500000000E+002,  0.00000000000E+000,  0.10000000000E+001
  0.39749000000E+005,  0.83232641706E+007,  0.16500000000E+002,  0.00000000000E+000,  0.10000000000E+001
  0.39809000000E+005,  0.83285321452E+007,  0.16500000000E+002,  0.00000000000E+000,  0.10000000000E+001
  0.39869000000E+005,  0.83337316491E+007,  0.16500000000E+002,  0.00000000000E+000,  0.10000000000E+001
  0.39929000000E+005,  0.83388641342E+007,  0.16500000000E+002,  0.00000000000E+000,  0.10000000000E+001
  0.39989000000E+005,  0.83439309934E+007,  0.16500000000E+002,  0.00000000000E+000,  0.10000000000E+001
  0.40049000000E+005,  0.83489335655E+007,  0.16500000000E+002,  0.00000000000E+000,  0.10000000000E+001
  0.40109000000E+005,  0.83538731386E+007,  0.16500000000E+002,  0.00000000000E+000,  0.10000000000E+001
  0.40169000000E+005,  0.83587509539E+007,  0.16500000000E+002,  0.00000000000E+000,  0.10000000000E+001
  0.40229000000E+005,  0.83635682085E+007,  0.16500000000E+002,  0.00000000000E+000,  0.10000000000E+001
  0.40289000000E+005,  0.83683260588E+007,  0.16500000000E+002,  0.00000000000E+000,  0.10000000000E+001
  0.40349000000E+005,  0.83730256226E+007,  0.16500000000E+002,  0.00000000000E+000,  0.10000000000E+001
  0.40409000000E+005,  0.83776679815E+007,  0.16500000000E+002,  0.00000000000E+000,  0.10000000000E+001
  0.40469000000E+005,  0.83822541834E+007,  0.16500000000E+002,  0.00000000000E+000,  0.10000000000E+001
  0.40529000000E+005,  0.83867852437E+007,  0.16500000000E+002,  0.00000000000E+000,  0.10000000000E+001
  0.40589000000E+005,  0.83912621476E+007,  0.16500000000E+002,  0.00000000000E+000,  0.10000000000E+001
  0.40649000000E+005,  0.83956858518E+007,  0.16500000000E+002,  0.00000000000E+000,  0.10000000000E+001
  0.40709000000E+005,  0.84000572855E+007,  0.16500000000E+002,  0.00000000000E+000,  0.10000000000E+001
  0.40769000000E+005,  0.84043773519E+007,  0.16500000000E+002,  0.00000000000E+000,  0.10000000000E+001
  0.40829000000E+005,  0.84086469300E+007,  0.16500000000E+002,  0.00000000000E+000,  0.10000000000E+001
  0.40889000000E+005,  0.84128668747E+007,  0.16500000000E+002,  0.00000000000E+000,  0.10000000000E+001
  0.40949000000E+005,  0.84170380190E+007,  0.16500000000E+002,  0.00000000000E+000,  0.10000000000E+001
  0.41009000000E+005,  0.84211611743E+007,  0.16500000000E+002,  0.00000000000E+000,  0.10000000000E+001
  0.41069000000E+005,  0.84252371314E+007,  0.16500000000E+002,  0.00000000000E+000,  0.10000000000E+001
  0.41129000000E+005,  0.84292666615E+007,  0.16500000000E+002,  0.00000000000E+000,  0.10000000000E+001
  0.41189000000E+005,  0.84332505169E+007,  0.16500000000E+002,  0.00000000000E+000,  0.10000000000E+001
  0.41249000000E+005,  0.84371894319E+007,  0.16500000000E+002,  0.00000000000E+000,  0.10000000000E+001
  0.41309000000E+005,  0.84410841233E+007,  0.16500000000E+002,  0.00000000000E+000,  0.10000000000E+001
  0.41369000000E+005,  0.84449352913E+007,  0.16500000000E+002,  0.00000000000E+000,  0.10000000000E+001
  0.41429000000E+005,  0.84487436198E+007,  0.16500000000E+002,  0.00000000000E+000,  0.10000000000E+001
  0.41489000000E+005,  0.84525097772E+007,  0.16500000000E+002,  0.00000000000E+000,  0.10000000000E+001
  0.41549000000E+005,  0.84562344170E+007,  0.16500000000E+002,  0.00000000000E+000,  0.10000000000E+001
  0.41609000000E+005,  0.84599181780E+007,  0.16500000000E+002,  0.00000000000E+000,  0.10000000000E+001
  0.41669000000E+005,  0.84635616852E+007,  0.16500000000E+002,  0.00000000000E+000,  0.10000000000E+001
  0.41729000000E+005,  0.84671655499E+007,  0.16500000000E+002,  0.00000000000E+000,  0.10000000000E+001
  0.41789000000E+005,  0.84707303704E+007,  0.16500000000E+002,  0.00000000000E+000,  0.10000000000E+001
  0.41849000000E+005,  0.84742567324E+007,  0.16500000000E+002,  0.00000000000E+000,  0.10000000000E+001
  0.41909000000E+005,  0.84777452090E+007,  0.16500000000E+002,  0.00000000000E+000,  0.10000000000E+001
  0.41969000000E+005,  0.84811963616E+007,  0.16500000000E+002,  0.00000000000E+000,  0.10000000000E+001
  0.42029000000E+005,  0.84611932363E+007,  0.16500000000E+002,  0.00000000000E+000,  0.10000000000E+001
  0.42089000000E+005,  0.84353619407E+007,  0.16500000000E+002,  0.00000000000E+000,  0.10000000000E+001
  0.42149000000E+005,  0.84320917378E+007,  0.16500000000E+002,  0.00000000000E+000,  0.10000000000E+001
  0.42209000000E+005,  0.84316088719E+007,  0.16500000000E+002,  0.00000000000E+000,  0.10000000000E+001
  0.42269000000E+005,  0.84321723212E+007,  0.16500000000E+002,  0.00000000000E+000,  0.10000000000E+001
  0.42329000000E+005,  0.84332948451E+007,  0.16500000000E+002,  0.00000000000E+000,  0.10000000000E+001
  0.42389000000E+005,  0.84347623631E+007,  0.16500000000E+002,  0.00000000000E+000,  0.10000000000E+001
  0.42449000000E+005,  0.84364595229E+007,  0.16500000000E+002,  0.00000000000E+000,  0.10000000000E+001
  0.42509000000E+005,  0.84383189859E+007,  0.16500000000E+002,  0.00000000000E+000,  0.10000000000E+001
  0.42569000000E+005,  0.84402953644E+007,  0.16500000000E+002,  0.00000000000E+000,  0.10000000000E+001
  0.42629000000E+005,  0.84423580793E+007,  0.16500000000E+002,  0.00000000000E+000,  0.10000000000E+001
  0.42689000000E+005,  0.84444850068E+007,  0.16500000000E+002,  0.00000000000E+000,  0.10000000000E+001
  0.42749000000E+005,  0.84466604066E+007,  0.16500000000E+002,  0.00000000000E+000,  0.10000000000E+001
  0.42809000000E+005,  0.84488720031E+007,  0.16500000000E+002,  0.00000000000E+000,  0.10000000000E+001
  0.42869000000E+005,  0.84511102830E+007,  0.16500000000E+002,  0.00000000000E+000,  0.10000000000E+001
  0.42929000000E+005,  0.84533677566E+007,  0.16500000000E+002,  0.00000000000E+000,  0.10000000000E+001
  0.42989000000E+005,  0.84556386329E+007,  0.16500000000E+002,  0.00000000000E+000,  0.10000000000E+001
  0.43049000000E+005,  0.84579181609E+007,  0.16500000000E+002,  0.00000000000E+000,  0.10000000000E+001
  0.43109000000E+005,  0.84602024489E+007,  0.16500000000E+002,  0.00000000000E+000,  0.10000000000E+001
  0.43169000000E+005,  0.84624882907E+007,  0.16500000000E+002,  0.00000000000E+000,  0.10000000000E+001
  0.43229000000E+005,  0.84647730243E+007,  0.16500000000E+002,  0.00000000000E+000,  0.10000000000E+001
  0.43289000000E+005,  0.84670544242E+007,  0.16500000000E+002,  0.00000000000E+000,  0.10000000000E+001
  0.43349000000E+005,  0.84693306186E+007,  0.16500000000E+002,  0.00000000000E+000,  0.10000000000E+001
  0.43409000000E+005,  0.84716000262E+007,  0.16500000000E+002,  0.00000000000E+000,  0.10000000000E+001
  0.43469000000E+005,  0.84738613055E+007,  0.16500000000E+002,  0.00000000000E+000,  0.10000000000E+001
  0.43529000000E+005,  0.84761133153E+007,  0.16500000000E+002,  0.00000000000E+000,  0.10000000000E+001
  0.43589000000E+005,  0.84783550828E+007,  0.16500000000E+002,  0.00000000000E+000,  0.10000000000E+001
  0.43649000000E+005,  0.84805857776E+007,  0.16500000000E+002,  0.00000000000E+000,  0.10000000000E+001
  0.43709000000E+005,  0.84828046906E+007,  0.16500000000E+002,  0.00000000000E+000,  0.10000000000E+001
  0.43769000000E+005,  0.84850112160E+007,  0.16500000000E+002,  0.00000000000E+000,  0.10000000000E+001
