"           TIME(S)","              PRES","              TEMP","             SAT_G","             SAT_L"
  0.23620500000E+005,  0.80485315709E+006,  0.16500000000E+002,  0.00000000000E+000,  0.10000000000E+001
  0.23623000000E+005,  0.97976893278E+006,  0.16500000000E+002,  0.00000000000E+000,  0.10000000000E+001
  0.23628000000E+005,  0.12843971031E+007,  0.16500000000E+002,  0.00000000000E+000,  0.10000000000E+001
  0.23633000000E+005,  0.15628134242E+007,  0.16500000000E+002,  0.00000000000E+000,  0.10000000000E+001
  0.23638000000E+005,  0.18232627304E+007,  0.16500000000E+002,  0.00000000000E+000,  0.10000000000E+001
  0.23643000000E+005,  0.20548709255E+007,  0.16500000000E+002,  0.00000000000E+000,  0.10000000000E+001
  0.23648000000E+005,  0.19709401941E+007,  0.16500000000E+002,  0.00000000000E+000,  0.10000000000E+001
  0.23653000000E+005,  0.19187729550E+007,  0.16500000000E+002,  0.00000000000E+000,  0.10000000000E+001
  0.23658000000E+005,  0.18806628875E+007,  0.16500000000E+002,  0.00000000000E+000,  0.10000000000E+001
  0.23663000000E+005,  0.18514295324E+007,  0.16500000000E+002,  0.00000000000E+000,  0.10000000000E+001
  0.23668000000E+005,  0.18282616291E+007,  0.16500000000E+002,  0.00000000000E+000,  0.10000000000E+001
  0.23673000000E+005,  0.18093816849E+007,  0.16500000000E+002,  0.00000000000E+000,  0.10000000000E+001
  0.23678000000E+005,  0.17936237155E+007,  0.16500000000E+002,  0.00000000000E+000,  0.10000000000E+001
  0.23683000000E+005,  0.17802054772E+007,  0.16500000000E+002,  0.00000000000E+000,  0.10000000000E+001
  0.23688000000E+005,  0.17685882932E+007,  0.16500000000E+002,  0.00000000000E+000,  0.10000000000E+001
  0.23693000000E+005,  0.17583899889E+007,  0.16500000000E+002,  0.00000000000E+000,  0.10000000000E+001
  0.23698000000E+005,  0.17493309988E+007,  0.16500000000E+002,  0.00000000000E+000,  0.10000000000E+001
  0.23703000000E+005,  0.17412008649E+007,  0.16500000000E+002,  0.00000000000E+000,  0.10000000000E+001
  0.23708000000E+005,  0.17338371297E+007,  0.16500000000E+002,  0.00000000000E+000,  0.10000000000E+001
  0.23713000000E+005,  0.17271117557E+007,  0.16500000000E+002,  0.00000000000E+000,  0.10000000000E+001
  0.23718000000E+005,  0.17209221466E+007,  0.16500000000E+002,  0.00000000000E+000,  0.10000000000E+001
  0.23723000000E+005,  0.17151850258E+007,  0.16500000000E+002,  0.00000000000E+000,  0.10000000000E+001
  0.23728000000E+005,  0.17098321258E+007,  0.16500000000E+002,  0.00000000000E+000,  0.10000000000E+001
  0.23733000000E+005,  0.17048070566E+007,  0.16500000000E+002,  0.00000000000E+000,  0.10000000000E+001
  0.23738000000E+005,  0.17000629643E+007,  0.16500000000E+002,  0.00000000000E+000,  0.10000000000E+001
  0.23743000000E+005,  0.16955607371E+007,  0.16500000000E+002,  0.00000000000E+000,  0.10000000000E+001
  0.23748000000E+005,  0.16912676025E+007,  0.16500000000E+002,  0.00000000000E+000,  0.10000000000E+001
  0.23753000000E+005,  0.16871560122E+007,  0.16500000000E+002,  0.00000000000E+000,  0.10000000000E+001
  0.23758000000E+005,  0.16832027449E+007,  0.16500000000E+002,  0.00000000000E+000,  0.10000000000E+001
  0.23763000000E+005,  0.16793881771E+007,  0.16500000000E+002,  0.00000000000E+000,  0.10000000000E+001
  0.23768000000E+005,  0.16756956859E+007,  0.16500000000E+002,  0.00000000000E+000,  0.10000000000E+001
  0.23773000000E+005,  0.16721111576E+007,  0.16500000000E+002,  0.00000000000E+000,  0.10000000000E+001
  0.23778000000E+005,  0.16686225814E+007,  0.16500000000E+002,  0.00000000000E+000,  0.10000000000E+001
  0.23783000000E+005,  0.16652197118E+007,  0.16500000000E+002,  0.00000000000E+000,  0.10000000000E+001
  0.23788000000E+005,  0.16618937886E+007,  0.16500000000E+002,  0.00000000000E+000,  0.10000000000E+001
  0.23793000000E+005,  0.16586373026E+007,  0.16500000000E+002,  0.00000000000E+000,  0.10000000000E+001
  0.23798000000E+005,  0.16554438001E+007,  0.16500000000E+002,  0.00000000000E+000,  0.10000000000E+001
  0.23803000000E+005,  0.16523077197E+007,  0.16500000000E+002,  0.00000000000E+000,  0.10000000000E+001
  0.23808000000E+005,  0.16492242554E+007,  0.16500000000E+002,  0.00000000000E+000,  0.10000000000E+001
  0.23813000000E+005,  0.16461892408E+007,  0.16500000000E+002,  0.00000000000E+000,  0.10000000000E+001
  0.23818000000E+005,  0.16431990536E+007,  0.16500000000E+002,  0.00000000000E+000,  0.10000000000E+001
  0.23823000000E+005,  0.16402505334E+007,  0.16500000000E+002,  0.00000000000E+000,  0.10000000000E+001
  0.23828000000E+005,  0.16373409141E+007,  0.16500000000E+002,  0.00000000000E+000,  0.10000000000E+001
  0.23833000000E+005,  0.16344677653E+007,  0.16500000000E+002,  0.00000000000E+000,  0.10000000000E+001
  0.23838000000E+005,  0.16316289446E+007,  0.16500000000E+002,  0.00000000000E+000,  0.10000000000E+001
  0.23843000000E+005,  0.16288225555E+007,  0.16500000000E+002,  0.00000000000E+000,  0.10000000000E+001
  0.23848000000E+005,  0.16260469131E+007,  0.16500000000E+002,  0.00000000000E+000,  0.10000000000E+001
  0.23853000000E+005,  0.16233005147E+007,  0.16500000000E+002,  0.00000000000E+000,  0.10000000000E+001
  0.23858000000E+005,  0.16205820144E+007,  0.16500000000E+002,  0.00000000000E+000,  0.10000000000E+001
  0.23863000000E+005,  0.16178902019E+007,  0.16500000000E+002,  0.00000000000E+000,  0.10000000000E+001
  0.23868000000E+005,  0.16152239848E+007,  0.16500000000E+002,  0.00000000000E+000,  0.10000000000E+001
  0.23873000000E+005,  0.16125823726E+007,  0.16500000000E+002,  0.00000000000E+000,  0.10000000000E+001
  0.23878000000E+005,  0.16099644641E+007,  0.16500000000E+002,  0.00000000000E+000,  0.10000000000E+001
  0.23883000000E+005,  0.16073694359E+007,  0.16500000000E+002,  0.00000000000E+000,  0.10000000000E+001
  0.23888000000E+005,  0.16047965328E+007,  0.16500000000E+002,  0.00000000000E+000,  0.10000000000E+001
  0.23893000000E+005,  0.16022450596E+007,  0.16500000000E+002,  0.00000000000E+000,  0.10000000000E+001
  0.23898000000E+005,  0.15997143740E+007,  0.16500000000E+002,  0.00000000000E+000,  0.10000000000E+001
  0.23903000000E+005,  0.15972038807E+007,  0.16500000000E+002,  0.00000000000E+000,  0.10000000000E+001
  0.23908000000E+005,  0.15947130257E+007,  0.16500000000E+002,  0.00000000000E+000,  0.10000000000E+001
  0.23913000000E+005,  0.15922412924E+007,  0.16500000000E+002,  0.00000000000E+000,  0.10000000000E+001
  0.23918000000E+005,  0.15897881968E+007,  0.16500000000E+002,  0.00000000000E+000,  0.10000000000E+001
  0.23920000000E+005,  0.15888098405E+007,  0.16500000000E+002,  0.00000000000E+000,  0.10000000000E+001
