"           TIME(S)","              PRES","              TEMP","             SAT_G","             SAT_L"
  0.94880000000E+005,  0.35450879397E+006,  0.16500000000E+002,  0.00000000000E+000,  0.10000000000E+001
  0.94890000000E+005,  0.35450880428E+006,  0.16500000000E+002,  0.00000000000E+000,  0.10000000000E+001
  0.94920000000E+005,  0.35450888862E+006,  0.16500000000E+002,  0.00000000000E+000,  0.10000000000E+001
  0.94950000000E+005,  0.35450925869E+006,  0.16500000000E+002,  0.00000000000E+000,  0.10000000000E+001
  0.94980000000E+005,  0.35451066948E+006,  0.16500000000E+002,  0.00000000000E+000,  0.10000000000E+001
  0.95010000000E+005,  0.35451476051E+006,  0.16500000000E+002,  0.00000000000E+000,  0.10000000000E+001
  0.95040000000E+005,  0.35452431049E+006,  0.16500000000E+002,  0.00000000000E+000,  0.10000000000E+001
  0.95070000000E+005,  0.35454325287E+006,  0.16500000000E+002,  0.00000000000E+000,  0.10000000000E+001
  0.95100000000E+005,  0.35457644968E+006,  0.16500000000E+002,  0.00000000000E+000,  0.10000000000E+001
  0.95130000000E+005,  0.35462930504E+006,  0.16500000000E+002,  0.00000000000E+000,  0.10000000000E+001
  0.95160000000E+005,  0.35470732841E+006,  0.16500000000E+002,  0.00000000000E+000,  0.10000000000E+001
  0.95190000000E+005,  0.35481573816E+006,  0.16500000000E+002,  0.00000000000E+000,  0.10000000000E+001
  0.95220000000E+005,  0.35495915775E+006,  0.16500000000E+002,  0.00000000000E+000,  0.10000000000E+001
  0.95250000000E+005,  0.35514142132E+006,  0.16500000000E+002,  0.00000000000E+000,  0.10000000000E+001
  0.95280000000E+005,  0.35536548088E+006,  0.16500000000E+002,  0.00000000000E+000,  0.10000000000E+001
  0.95310000000E+005,  0.35563339533E+006,  0.16500000000E+002,  0.00000000000E+000,  0.10000000000E+001
  0.95340000000E+005,  0.35594637801E+006,  0.16500000000E+002,  0.00000000000E+000,  0.10000000000E+001
  0.95370000000E+005,  0.35630488101E+006,  0.16500000000E+002,  0.00000000000E+000,  0.10000000000E+001
  0.95400000000E+005,  0.35670869876E+006,  0.16500000000E+002,  0.00000000000E+000,  0.10000000000E+001
  0.95430000000E+005,  0.35715707785E+006,  0.16500000000E+002,  0.00000000000E+000,  0.10000000000E+001
  0.95460000000E+005,  0.35764882417E+006,  0.16500000000E+002,  0.00000000000E+000,  0.10000000000E+001
  0.95490000000E+005,  0.35818240192E+006,  0.16500000000E+002,  0.00000000000E+000,  0.10000000000E+001
  0.95520000000E+005,  0.35875602168E+006,  0.16500000000E+002,  0.00000000000E+000,  0.10000000000E+001
  0.95550000000E+005,  0.35936771629E+006,  0.16500000000E+002,  0.00000000000E+000,  0.10000000000E+001
  0.95580000000E+005,  0.36001540457E+006,  0.16500000000E+002,  0.00000000000E+000,  0.10000000000E+001
  0.95610000000E+005,  0.36069694373E+006,  0.16500000000E+002,  0.00000000000E+000,  0.10000000000E+001
  0.95640000000E+005,  0.36141017156E+006,  0.16500000000E+002,  0.00000000000E+000,  0.10000000000E+001
  0.95670000000E+005,  0.36215293951E+006,  0.16500000000E+002,  0.00000000000E+000,  0.10000000000E+001
  0.95700000000E+005,  0.36292313846E+006,  0.16500000000E+002,  0.00000000000E+000,  0.10000000000E+001
  0.95730000000E+005,  0.36371871769E+006,  0.16500000000E+002,  0.00000000000E+000,  0.10000000000E+001
  0.95760000000E+005,  0.36453769887E+006,  0.16500000000E+002,  0.00000000000E+000,  0.10000000000E+001
  0.95790000000E+005,  0.36537818556E+006,  0.16500000000E+002,  0.00000000000E+000,  0.10000000000E+001
  0.95820000000E+005,  0.36623836937E+006,  0.16500000000E+002,  0.00000000000E+000,  0.10000000000E+001
  0.95850000000E+005,  0.36711653339E+006,  0.16500000000E+002,  0.00000000000E+000,  0.10000000000E+001
  0.95880000000E+005,  0.36801105341E+006,  0.16500000000E+002,  0.00000000000E+000,  0.10000000000E+001
  0.95910000000E+005,  0.36892039763E+006,  0.16500000000E+002,  0.00000000000E+000,  0.10000000000E+001
  0.95940000000E+005,  0.36984312503E+006,  0.16500000000E+002,  0.00000000000E+000,  0.10000000000E+001
  0.95970000000E+005,  0.37077788291E+006,  0.16500000000E+002,  0.00000000000E+000,  0.10000000000E+001
  0.96000000000E+005,  0.37172340375E+006,  0.16500000000E+002,  0.00000000000E+000,  0.10000000000E+001
  0.96030000000E+005,  0.37267849934E+006,  0.16500000000E+002,  0.00000000000E+000,  0.10000000000E+001
  0.96060000000E+005,  0.37364205110E+006,  0.16500000000E+002,  0.00000000000E+000,  0.10000000000E+001
  0.96090000000E+005,  0.37461299907E+006,  0.16500000000E+002,  0.00000000000E+000,  0.10000000000E+001
  0.96120000000E+005,  0.37559033328E+006,  0.16500000000E+002,  0.00000000000E+000,  0.10000000000E+001
  0.96150000000E+005,  0.37657308963E+006,  0.16500000000E+002,  0.00000000000E+000,  0.10000000000E+001
  0.96180000000E+005,  0.37756035014E+006,  0.16500000000E+002,  0.00000000000E+000,  0.10000000000E+001
  0.96210000000E+005,  0.37855124601E+006,  0.16500000000E+002,  0.00000000000E+000,  0.10000000000E+001
  0.96240000000E+005,  0.37954496135E+006,  0.16500000000E+002,  0.00000000000E+000,  0.10000000000E+001
  0.96270000000E+005,  0.38054073626E+006,  0.16500000000E+002,  0.00000000000E+000,  0.10000000000E+001
  0.96300000000E+005,  0.38153786851E+006,  0.16500000000E+002,  0.00000000000E+000,  0.10000000000E+001
  0.96330000000E+005,  0.38253571333E+006,  0.16500000000E+002,  0.00000000000E+000,  0.10000000000E+001
  0.96360000000E+005,  0.38353368211E+006,  0.16500000000E+002,  0.00000000000E+000,  0.10000000000E+001
  0.96390000000E+005,  0.38453123952E+006,  0.16500000000E+002,  0.00000000000E+000,  0.10000000000E+001
  0.96420000000E+005,  0.38552790011E+006,  0.16500000000E+002,  0.00000000000E+000,  0.10000000000E+001
  0.96450000000E+005,  0.38652322444E+006,  0.16500000000E+002,  0.00000000000E+000,  0.10000000000E+001
  0.96480000000E+005,  0.38751681501E+006,  0.16500000000E+002,  0.00000000000E+000,  0.10000000000E+001
  0.96510000000E+005,  0.38850831241E+006,  0.16500000000E+002,  0.00000000000E+000,  0.10000000000E+001
  0.96540000000E+005,  0.38949739147E+006,  0.16500000000E+002,  0.00000000000E+000,  0.10000000000E+001
  0.96570000000E+005,  0.39048375786E+006,  0.16500000000E+002,  0.00000000000E+000,  0.10000000000E+001
  0.96600000000E+005,  0.39146714488E+006,  0.16500000000E+002,  0.00000000000E+000,  0.10000000000E+001
  0.96630000000E+005,  0.39244731065E+006,  0.16500000000E+002,  0.00000000000E+000,  0.10000000000E+001
  0.96660000000E+005,  0.39342403557E+006,  0.16500000000E+002,  0.00000000000E+000,  0.10000000000E+001
  0.96690000000E+005,  0.39439712008E+006,  0.16500000000E+002,  0.00000000000E+000,  0.10000000000E+001
  0.96720000000E+005,  0.39536638271E+006,  0.16500000000E+002,  0.00000000000E+000,  0.10000000000E+001
  0.96750000000E+005,  0.39633165832E+006,  0.16500000000E+002,  0.00000000000E+000,  0.10000000000E+001
  0.96780000000E+005,  0.39729279661E+006,  0.16500000000E+002,  0.00000000000E+000,  0.10000000000E+001
  0.96810000000E+005,  0.39824966073E+006,  0.16500000000E+002,  0.00000000000E+000,  0.10000000000E+001
  0.96840000000E+005,  0.39920212615E+006,  0.16500000000E+002,  0.00000000000E+000,  0.10000000000E+001
  0.96870000000E+005,  0.40015007959E+006,  0.16500000000E+002,  0.00000000000E+000,  0.10000000000E+001
  0.96900000000E+005,  0.40109341809E+006,  0.16500000000E+002,  0.00000000000E+000,  0.10000000000E+001
  0.96930000000E+005,  0.40203204819E+006,  0.16500000000E+002,  0.00000000000E+000,  0.10000000000E+001
  0.96960000000E+005,  0.40296588521E+006,  0.16500000000E+002,  0.00000000000E+000,  0.10000000000E+001
  0.96990000000E+005,  0.40389485257E+006,  0.16500000000E+002,  0.00000000000E+000,  0.10000000000E+001
  0.97020000000E+005,  0.40481888121E+006,  0.16500000000E+002,  0.00000000000E+000,  0.10000000000E+001
  0.97050000000E+005,  0.40573790905E+006,  0.16500000000E+002,  0.00000000000E+000,  0.10000000000E+001
  0.97080000000E+005,  0.40665188048E+006,  0.16500000000E+002,  0.00000000000E+000,  0.10000000000E+001
  0.97110000000E+005,  0.40756074597E+006,  0.16500000000E+002,  0.00000000000E+000,  0.10000000000E+001
  0.97140000000E+005,  0.40846446160E+006,  0.16500000000E+002,  0.00000000000E+000,  0.10000000000E+001
  0.97170000000E+005,  0.40936298875E+006,  0.16500000000E+002,  0.00000000000E+000,  0.10000000000E+001
  0.97200000000E+005,  0.41025629371E+006,  0.16500000000E+002,  0.00000000000E+000,  0.10000000000E+001
  0.97230000000E+005,  0.41114434738E+006,  0.16500000000E+002,  0.00000000000E+000,  0.10000000000E+001
  0.97260000000E+005,  0.41202712500E+006,  0.16500000000E+002,  0.00000000000E+000,  0.10000000000E+001
  0.97290000000E+005,  0.41290460585E+006,  0.16500000000E+002,  0.00000000000E+000,  0.10000000000E+001
  0.97320000000E+005,  0.41377677300E+006,  0.16500000000E+002,  0.00000000000E+000,  0.10000000000E+001
  0.97350000000E+005,  0.41464361309E+006,  0.16500000000E+002,  0.00000000000E+000,  0.10000000000E+001
  0.97380000000E+005,  0.41550511611E+006,  0.16500000000E+002,  0.00000000000E+000,  0.10000000000E+001
  0.97410000000E+005,  0.41636127517E+006,  0.16500000000E+002,  0.00000000000E+000,  0.10000000000E+001
  0.97440000000E+005,  0.41721208636E+006,  0.16500000000E+002,  0.00000000000E+000,  0.10000000000E+001
  0.97470000000E+005,  0.41805754850E+006,  0.16500000000E+002,  0.00000000000E+000,  0.10000000000E+001
  0.97500000000E+005,  0.41889766304E+006,  0.16500000000E+002,  0.00000000000E+000,  0.10000000000E+001
  0.97530000000E+005,  0.41973243385E+006,  0.16500000000E+002,  0.00000000000E+000,  0.10000000000E+001
  0.97560000000E+005,  0.42056186710E+006,  0.16500000000E+002,  0.00000000000E+000,  0.10000000000E+001
  0.97590000000E+005,  0.42138597110E+006,  0.16500000000E+002,  0.00000000000E+000,  0.10000000000E+001
  0.97620000000E+005,  0.42220475618E+006,  0.16500000000E+002,  0.00000000000E+000,  0.10000000000E+001
  0.97650000000E+005,  0.42301823457E+006,  0.16500000000E+002,  0.00000000000E+000,  0.10000000000E+001
  0.97680000000E+005,  0.42382642026E+006,  0.16500000000E+002,  0.00000000000E+000,  0.10000000000E+001
  0.97710000000E+005,  0.42462932891E+006,  0.16500000000E+002,  0.00000000000E+000,  0.10000000000E+001
  0.97740000000E+005,  0.42542697773E+006,  0.16500000000E+002,  0.00000000000E+000,  0.10000000000E+001
  0.97770000000E+005,  0.42621938540E+006,  0.16500000000E+002,  0.00000000000E+000,  0.10000000000E+001
  0.97800000000E+005,  0.42700657194E+006,  0.16500000000E+002,  0.00000000000E+000,  0.10000000000E+001
  0.97830000000E+005,  0.42778855866E+006,  0.16500000000E+002,  0.00000000000E+000,  0.10000000000E+001
  0.97860000000E+005,  0.42856536805E+006,  0.16500000000E+002,  0.00000000000E+000,  0.10000000000E+001
  0.97890000000E+005,  0.42933702371E+006,  0.16500000000E+002,  0.00000000000E+000,  0.10000000000E+001
  0.97920000000E+005,  0.43010355027E+006,  0.16500000000E+002,  0.00000000000E+000,  0.10000000000E+001
  0.97950000000E+005,  0.43086497333E+006,  0.16500000000E+002,  0.00000000000E+000,  0.10000000000E+001
  0.97980000000E+005,  0.43162131937E+006,  0.16500000000E+002,  0.00000000000E+000,  0.10000000000E+001
  0.98010000000E+005,  0.43237261570E+006,  0.16500000000E+002,  0.00000000000E+000,  0.10000000000E+001
  0.98040000000E+005,  0.43311889040E+006,  0.16500000000E+002,  0.00000000000E+000,  0.10000000000E+001
  0.98070000000E+005,  0.43386017228E+006,  0.16500000000E+002,  0.00000000000E+000,  0.10000000000E+001
  0.98100000000E+005,  0.43459649076E+006,  0.16500000000E+002,  0.00000000000E+000,  0.10000000000E+001
  0.98130000000E+005,  0.43532787589E+006,  0.16500000000E+002,  0.00000000000E+000,  0.10000000000E+001
  0.98160000000E+005,  0.43605435828E+006,  0.16500000000E+002,  0.00000000000E+000,  0.10000000000E+001
  0.98190000000E+005,  0.43677596903E+006,  0.16500000000E+002,  0.00000000000E+000,  0.10000000000E+001
  0.98220000000E+005,  0.43749273971E+006,  0.16500000000E+002,  0.00000000000E+000,  0.10000000000E+001
  0.98250000000E+005,  0.43820470230E+006,  0.16500000000E+002,  0.00000000000E+000,  0.10000000000E+001
  0.98280000000E+005,  0.43891188918E+006,  0.16500000000E+002,  0.00000000000E+000,  0.10000000000E+001
  0.98310000000E+005,  0.43961433306E+006,  0.16500000000E+002,  0.00000000000E+000,  0.10000000000E+001
  0.98340000000E+005,  0.44031206694E+006,  0.16500000000E+002,  0.00000000000E+000,  0.10000000000E+001
  0.98370000000E+005,  0.44100512413E+006,  0.16500000000E+002,  0.00000000000E+000,  0.10000000000E+001
  0.98400000000E+005,  0.44169353815E+006,  0.16500000000E+002,  0.00000000000E+000,  0.10000000000E+001
  0.98430000000E+005,  0.44237734275E+006,  0.16500000000E+002,  0.00000000000E+000,  0.10000000000E+001
  0.98460000000E+005,  0.44305657185E+006,  0.16500000000E+002,  0.00000000000E+000,  0.10000000000E+001
  0.98490000000E+005,  0.44373125952E+006,  0.16500000000E+002,  0.00000000000E+000,  0.10000000000E+001
  0.98520000000E+005,  0.44440143997E+006,  0.16500000000E+002,  0.00000000000E+000,  0.10000000000E+001
  0.98533000000E+005,  0.44469100739E+006,  0.16500000000E+002,  0.00000000000E+000,  0.10000000000E+001
