"           TIME(S)","              PRES","              TEMP","             SAT_G","             SAT_L"
  0.32549000000E+005,  0.59635990336E+007,  0.16500000000E+002,  0.00000000000E+000,  0.10000000000E+001
  0.32559000000E+005,  0.51565788973E+007,  0.16500000000E+002,  0.00000000000E+000,  0.10000000000E+001
  0.32609000000E+005,  0.52968586102E+007,  0.16500000000E+002,  0.00000000000E+000,  0.10000000000E+001
  0.32669000000E+005,  0.55978646026E+007,  0.16500000000E+002,  0.00000000000E+000,  0.10000000000E+001
  0.32729000000E+005,  0.58175503006E+007,  0.16500000000E+002,  0.00000000000E+000,  0.10000000000E+001
  0.32789000000E+005,  0.60010937719E+007,  0.16500000000E+002,  0.00000000000E+000,  0.10000000000E+001
  0.32849000000E+005,  0.61509123694E+007,  0.16500000000E+002,  0.00000000000E+000,  0.10000000000E+001
  0.32909000000E+005,  0.62766100464E+007,  0.16500000000E+002,  0.00000000000E+000,  0.10000000000E+001
  0.32969000000E+005,  0.63846073877E+007,  0.16500000000E+002,  0.00000000000E+000,  0.10000000000E+001
  0.33029000000E+005,  0.64791651053E+007,  0.16500000000E+002,  0.00000000000E+000,  0.10000000000E+001
  0.33089000000E+005,  0.65632101579E+007,  0.16500000000E+002,  0.00000000000E+000,  0.10000000000E+001
  0.33149000000E+005,  0.66388245570E+007,  0.16500000000E+002,  0.00000000000E+000,  0.10000000000E+001
  0.33209000000E+005,  0.67075354917E+007,  0.16500000000E+002,  0.00000000000E+000,  0.10000000000E+001
  0.33269000000E+005,  0.67704933266E+007,  0.16500000000E+002,  0.00000000000E+000,  0.10000000000E+001
  0.33329000000E+005,  0.68285847214E+007,  0.16500000000E+002,  0.00000000000E+000,  0.10000000000E+001
  0.33389000000E+005,  0.68825068343E+007,  0.16500000000E+002,  0.00000000000E+000,  0.10000000000E+001
  0.33449000000E+005,  0.69328174378E+007,  0.16500000000E+002,  0.00000000000E+000,  0.10000000000E+001
  0.33509000000E+005,  0.69799696340E+007,  0.16500000000E+002,  0.00000000000E+000,  0.10000000000E+001
  0.33569000000E+005,  0.70243364576E+007,  0.16500000000E+002,  0.00000000000E+000,  0.10000000000E+001
  0.33629000000E+005,  0.70662286824E+007,  0.16500000000E+002,  0.00000000000E+000,  0.10000000000E+001
  0.33689000000E+005,  0.71059079374E+007,  0.16500000000E+002,  0.00000000000E+000,  0.10000000000E+001
  0.33749000000E+005,  0.71435965495E+007,  0.16500000000E+002,  0.00000000000E+000,  0.10000000000E+001
  0.33809000000E+005,  0.71794850292E+007,  0.16500000000E+002,  0.00000000000E+000,  0.10000000000E+001
  0.33869000000E+005,  0.72137378531E+007,  0.16500000000E+002,  0.00000000000E+000,  0.10000000000E+001
  0.33929000000E+005,  0.72464979838E+007,  0.16500000000E+002,  0.00000000000E+000,  0.10000000000E+001
  0.33989000000E+005,  0.72778904466E+007,  0.16500000000E+002,  0.00000000000E+000,  0.10000000000E+001
  0.34049000000E+005,  0.73080251895E+007,  0.16500000000E+002,  0.00000000000E+000,  0.10000000000E+001
  0.34109000000E+005,  0.73369993925E+007,  0.16500000000E+002,  0.00000000000E+000,  0.10000000000E+001
  0.34169000000E+005,  0.73648993507E+007,  0.16500000000E+002,  0.00000000000E+000,  0.10000000000E+001
  0.34229000000E+005,  0.73918020207E+007,  0.16500000000E+002,  0.00000000000E+000,  0.10000000000E+001
  0.34289000000E+005,  0.74177763028E+007,  0.16500000000E+002,  0.00000000000E+000,  0.10000000000E+001
  0.34349000000E+005,  0.74428841097E+007,  0.16500000000E+002,  0.00000000000E+000,  0.10000000000E+001
  0.34409000000E+005,  0.74671812641E+007,  0.16500000000E+002,  0.00000000000E+000,  0.10000000000E+001
  0.34469000000E+005,  0.74907182583E+007,  0.16500000000E+002,  0.00000000000E+000,  0.10000000000E+001
  0.34529000000E+005,  0.75135408983E+007,  0.16500000000E+002,  0.00000000000E+000,  0.10000000000E+001
  0.34589000000E+005,  0.75356908546E+007,  0.16500000000E+002,  0.00000000000E+000,  0.10000000000E+001
  0.34649000000E+005,  0.75572061371E+007,  0.16500000000E+002,  0.00000000000E+000,  0.10000000000E+001
  0.34709000000E+005,  0.75781215014E+007,  0.16500000000E+002,  0.00000000000E+000,  0.10000000000E+001
  0.34769000000E+005,  0.75984688035E+007,  0.16500000000E+002,  0.00000000000E+000,  0.10000000000E+001
  0.34829000000E+005,  0.76182773077E+007,  0.16500000000E+002,  0.00000000000E+000,  0.10000000000E+001
  0.34889000000E+005,  0.76375739555E+007,  0.16500000000E+002,  0.00000000000E+000,  0.10000000000E+001
  0.34949000000E+005,  0.76563836008E+007,  0.16500000000E+002,  0.00000000000E+000,  0.10000000000E+001
  0.35009000000E+005,  0.76747292175E+007,  0.16500000000E+002,  0.00000000000E+000,  0.10000000000E+001
  0.35069000000E+005,  0.76926320823E+007,  0.16500000000E+002,  0.00000000000E+000,  0.10000000000E+001
  0.35129000000E+005,  0.77101119363E+007,  0.16500000000E+002,  0.00000000000E+000,  0.10000000000E+001
  0.35189000000E+005,  0.77271871284E+007,  0.16500000000E+002,  0.00000000000E+000,  0.10000000000E+001
  0.35249000000E+005,  0.77438747430E+007,  0.16500000000E+002,  0.00000000000E+000,  0.10000000000E+001
  0.35309000000E+005,  0.77601907135E+007,  0.16500000000E+002,  0.00000000000E+000,  0.10000000000E+001
  0.35369000000E+005,  0.77761499246E+007,  0.16500000000E+002,  0.00000000000E+000,  0.10000000000E+001
  0.35429000000E+005,  0.77917663024E+007,  0.16500000000E+002,  0.00000000000E+000,  0.10000000000E+001
  0.35489000000E+005,  0.78070528968E+007,  0.16500000000E+002,  0.00000000000E+000,  0.10000000000E+001
  0.35549000000E+005,  0.78220219547E+007,  0.16500000000E+002,  0.00000000000E+000,  0.10000000000E+001
  0.35609000000E+005,  0.78366849859E+007,  0.16500000000E+002,  0.00000000000E+000,  0.10000000000E+001
  0.35669000000E+005,  0.78510528232E+007,  0.16500000000E+002,  0.00000000000E+000,  0.10000000000E+001
  0.35729000000E+005,  0.78651356759E+007,  0.16500000000E+002,  0.00000000000E+000,  0.10000000000E+001
  0.35789000000E+005,  0.78789431791E+007,  0.16500000000E+002,  0.00000000000E+000,  0.10000000000E+001
  0.35849000000E+005,  0.78924844374E+007,  0.16500000000E+002,  0.00000000000E+000,  0.10000000000E+001
  0.35909000000E+005,  0.79057680654E+007,  0.16500000000E+002,  0.00000000000E+000,  0.10000000000E+001
  0.35969000000E+005,  0.79188022242E+007,  0.16500000000E+002,  0.00000000000E+000,  0.10000000000E+001
  0.36029000000E+005,  0.78899677836E+007,  0.16500000000E+002,  0.00000000000E+000,  0.10000000000E+001
  0.36089000000E+005,  0.78507629856E+007,  0.16500000000E+002,  0.00000000000E+000,  0.10000000000E+001
  0.36149000000E+005,  0.78515875522E+007,  0.16500000000E+002,  0.00000000000E+000,  0.10000000000E+001
  0.36209000000E+005,  0.78571046253E+007,  0.16500000000E+002,  0.00000000000E+000,  0.10000000000E+001
  0.36269000000E+005,  0.78642862920E+007,  0.16500000000E+002,  0.00000000000E+000,  0.10000000000E+001
  0.36329000000E+005,  0.78722945562E+007,  0.16500000000E+002,  0.00000000000E+000,  0.10000000000E+001
  0.36389000000E+005,  0.78807616091E+007,  0.16500000000E+002,  0.00000000000E+000,  0.10000000000E+001
  0.36449000000E+005,  0.78894915838E+007,  0.16500000000E+002,  0.00000000000E+000,  0.10000000000E+001
  0.36509000000E+005,  0.78983682406E+007,  0.16500000000E+002,  0.00000000000E+000,  0.10000000000E+001
  0.36569000000E+005,  0.79073175791E+007,  0.16500000000E+002,  0.00000000000E+000,  0.10000000000E+001
  0.36629000000E+005,  0.79162901379E+007,  0.16500000000E+002,  0.00000000000E+000,  0.10000000000E+001
  0.36689000000E+005,  0.79252516751E+007,  0.16500000000E+002,  0.00000000000E+000,  0.10000000000E+001
  0.36749000000E+005,  0.79341778649E+007,  0.16500000000E+002,  0.00000000000E+000,  0.10000000000E+001
  0.36809000000E+005,  0.79430510971E+007,  0.16500000000E+002,  0.00000000000E+000,  0.10000000000E+001
  0.36869000000E+005,  0.79518584533E+007,  0.16500000000E+002,  0.00000000000E+000,  0.10000000000E+001
  0.36929000000E+005,  0.79605903784E+007,  0.16500000000E+002,  0.00000000000E+000,  0.10000000000E+001
  0.36989000000E+005,  0.79692397812E+007,  0.16500000000E+002,  0.00000000000E+000,  0.10000000000E+001
  0.37049000000E+005,  0.79778014097E+007,  0.16500000000E+002,  0.00000000000E+000,  0.10000000000E+001
  0.37109000000E+005,  0.79862714059E+007,  0.16500000000E+002,  0.00000000000E+000,  0.10000000000E+001
  0.37169000000E+005,  0.79946469830E+007,  0.16500000000E+002,  0.00000000000E+000,  0.10000000000E+001
  0.37229000000E+005,  0.80029261875E+007,  0.16500000000E+002,  0.00000000000E+000,  0.10000000000E+001
  0.37289000000E+005,  0.80111077197E+007,  0.16500000000E+002,  0.00000000000E+000,  0.10000000000E+001
  0.37349000000E+005,  0.80191907979E+007,  0.16500000000E+002,  0.00000000000E+000,  0.10000000000E+001
  0.37409000000E+005,  0.80271750530E+007,  0.16500000000E+002,  0.00000000000E+000,  0.10000000000E+001
  0.37469000000E+005,  0.79968871349E+007,  0.16500000000E+002,  0.00000000000E+000,  0.10000000000E+001
  0.37529000000E+005,  0.81217384427E+007,  0.16500000000E+002,  0.00000000000E+000,  0.10000000000E+001
  0.37589000000E+005,  0.81475420080E+007,  0.16500000000E+002,  0.00000000000E+000,  0.10000000000E+001
  0.37649000000E+005,  0.81639451578E+007,  0.16500000000E+002,  0.00000000000E+000,  0.10000000000E+001
  0.37709000000E+005,  0.81772921351E+007,  0.16500000000E+002,  0.00000000000E+000,  0.10000000000E+001
  0.37769000000E+005,  0.81890664703E+007,  0.16500000000E+002,  0.00000000000E+000,  0.10000000000E+001
  0.37829000000E+005,  0.81998571326E+007,  0.16500000000E+002,  0.00000000000E+000,  0.10000000000E+001
  0.37889000000E+005,  0.82099611274E+007,  0.16500000000E+002,  0.00000000000E+000,  0.10000000000E+001
  0.37949000000E+005,  0.82195496360E+007,  0.16500000000E+002,  0.00000000000E+000,  0.10000000000E+001
  0.38009000000E+005,  0.82287304038E+007,  0.16500000000E+002,  0.00000000000E+000,  0.10000000000E+001
  0.38069000000E+005,  0.82375756998E+007,  0.16500000000E+002,  0.00000000000E+000,  0.10000000000E+001
  0.38129000000E+005,  0.82461364143E+007,  0.16500000000E+002,  0.00000000000E+000,  0.10000000000E+001
  0.38189000000E+005,  0.82544498057E+007,  0.16500000000E+002,  0.00000000000E+000,  0.10000000000E+001
  0.38249000000E+005,  0.82625440444E+007,  0.16500000000E+002,  0.00000000000E+000,  0.10000000000E+001
  0.38309000000E+005,  0.82704410196E+007,  0.16500000000E+002,  0.00000000000E+000,  0.10000000000E+001
  0.38369000000E+005,  0.82781581451E+007,  0.16500000000E+002,  0.00000000000E+000,  0.10000000000E+001
  0.38429000000E+005,  0.82857095618E+007,  0.16500000000E+002,  0.00000000000E+000,  0.10000000000E+001
  0.38489000000E+005,  0.82931069623E+007,  0.16500000000E+002,  0.00000000000E+000,  0.10000000000E+001
  0.38549000000E+005,  0.83003601707E+007,  0.16500000000E+002,  0.00000000000E+000,  0.10000000000E+001
  0.38609000000E+005,  0.83074775590E+007,  0.16500000000E+002,  0.00000000000E+000,  0.10000000000E+001
  0.38669000000E+005,  0.83144663527E+007,  0.16500000000E+002,  0.00000000000E+000,  0.10000000000E+001
  0.38729000000E+005,  0.83213328588E+007,  0.16500000000E+002,  0.00000000000E+000,  0.10000000000E+001
  0.38789000000E+005,  0.83280826388E+007,  0.16500000000E+002,  0.00000000000E+000,  0.10000000000E+001
  0.38849000000E+005,  0.83347206413E+007,  0.16500000000E+002,  0.00000000000E+000,  0.10000000000E+001
  0.38909000000E+005,  0.83412513063E+007,  0.16500000000E+002,  0.00000000000E+000,  0.10000000000E+001
  0.38969000000E+005,  0.83476786467E+007,  0.16500000000E+002,  0.00000000000E+000,  0.10000000000E+001
  0.39029000000E+005,  0.83540063140E+007,  0.16500000000E+002,  0.00000000000E+000,  0.10000000000E+001
  0.39089000000E+005,  0.83602376506E+007,  0.16500000000E+002,  0.00000000000E+000,  0.10000000000E+001
  0.39149000000E+005,  0.83663757333E+007,  0.16500000000E+002,  0.00000000000E+000,  0.10000000000E+001
  0.39209000000E+005,  0.83724234082E+007,  0.16500000000E+002,  0.00000000000E+000,  0.10000000000E+001
  0.39269000000E+005,  0.83783833202E+007,  0.16500000000E+002,  0.00000000000E+000,  0.10000000000E+001
  0.39329000000E+005,  0.83842579372E+007,  0.16500000000E+002,  0.00000000000E+000,  0.10000000000E+001
  0.39389000000E+005,  0.83900495705E+007,  0.16500000000E+002,  0.00000000000E+000,  0.10000000000E+001
  0.39449000000E+005,  0.83957603928E+007,  0.16500000000E+002,  0.00000000000E+000,  0.10000000000E+001
  0.39509000000E+005,  0.84013924521E+007,  0.16500000000E+002,  0.00000000000E+000,  0.10000000000E+001
  0.39569000000E+005,  0.84069476853E+007,  0.16500000000E+002,  0.00000000000E+000,  0.10000000000E+001
  0.39629000000E+005,  0.84124279282E+007,  0.16500000000E+002,  0.00000000000E+000,  0.10000000000E+001
  0.39689000000E+005,  0.84178349259E+007,  0.16500000000E+002,  0.00000000000E+000,  0.10000000000E+001
  0.39749000000E+005,  0.84231703403E+007,  0.16500000000E+002,  0.00000000000E+000,  0.10000000000E+001
  0.39809000000E+005,  0.84284357576E+007,  0.16500000000E+002,  0.00000000000E+000,  0.10000000000E+001
  0.39869000000E+005,  0.84336326946E+007,  0.16500000000E+002,  0.00000000000E+000,  0.10000000000E+001
  0.39929000000E+005,  0.84387626045E+007,  0.16500000000E+002,  0.00000000000E+000,  0.10000000000E+001
  0.39989000000E+005,  0.84438268814E+007,  0.16500000000E+002,  0.00000000000E+000,  0.10000000000E+001
  0.40049000000E+005,  0.84488268651E+007,  0.16500000000E+002,  0.00000000000E+000,  0.10000000000E+001
  0.40109000000E+005,  0.84537638446E+007,  0.16500000000E+002,  0.00000000000E+000,  0.10000000000E+001
  0.40169000000E+005,  0.84586390621E+007,  0.16500000000E+002,  0.00000000000E+000,  0.10000000000E+001
  0.40229000000E+005,  0.84634537158E+007,  0.16500000000E+002,  0.00000000000E+000,  0.10000000000E+001
  0.40289000000E+005,  0.84682089630E+007,  0.16500000000E+002,  0.00000000000E+000,  0.10000000000E+001
  0.40349000000E+005,  0.84729059222E+007,  0.16500000000E+002,  0.00000000000E+000,  0.10000000000E+001
  0.40409000000E+005,  0.84775456761E+007,  0.16500000000E+002,  0.00000000000E+000,  0.10000000000E+001
  0.40469000000E+005,  0.84821292731E+007,  0.16500000000E+002,  0.00000000000E+000,  0.10000000000E+001
  0.40529000000E+005,  0.84866577297E+007,  0.16500000000E+002,  0.00000000000E+000,  0.10000000000E+001
  0.40589000000E+005,  0.84911320317E+007,  0.16500000000E+002,  0.00000000000E+000,  0.10000000000E+001
  0.40649000000E+005,  0.84955531364E+007,  0.16500000000E+002,  0.00000000000E+000,  0.10000000000E+001
  0.40709000000E+005,  0.84999219737E+007,  0.16500000000E+002,  0.00000000000E+000,  0.10000000000E+001
  0.40769000000E+005,  0.85042394477E+007,  0.16500000000E+002,  0.00000000000E+000,  0.10000000000E+001
  0.40829000000E+005,  0.85085064378E+007,  0.16500000000E+002,  0.00000000000E+000,  0.10000000000E+001
  0.40889000000E+005,  0.85127237996E+007,  0.16500000000E+002,  0.00000000000E+000,  0.10000000000E+001
  0.40949000000E+005,  0.85168923668E+007,  0.16500000000E+002,  0.00000000000E+000,  0.10000000000E+001
  0.41009000000E+005,  0.85210129510E+007,  0.16500000000E+002,  0.00000000000E+000,  0.10000000000E+001
  0.41069000000E+005,  0.85250863437E+007,  0.16500000000E+002,  0.00000000000E+000,  0.10000000000E+001
  0.41129000000E+005,  0.85291133167E+007,  0.16500000000E+002,  0.00000000000E+000,  0.10000000000E+001
  0.41189000000E+005,  0.85330946228E+007,  0.16500000000E+002,  0.00000000000E+000,  0.10000000000E+001
  0.41249000000E+005,  0.85370309965E+007,  0.16500000000E+002,  0.00000000000E+000,  0.10000000000E+001
  0.41309000000E+005,  0.85409231554E+007,  0.16500000000E+002,  0.00000000000E+000,  0.10000000000E+001
  0.41369000000E+005,  0.85447717997E+007,  0.16500000000E+002,  0.00000000000E+000,  0.10000000000E+001
  0.41429000000E+005,  0.85485776140E+007,  0.16500000000E+002,  0.00000000000E+000,  0.10000000000E+001
  0.41489000000E+005,  0.85523412669E+007,  0.16500000000E+002,  0.00000000000E+000,  0.10000000000E+001
  0.41549000000E+005,  0.85560634123E+007,  0.16500000000E+002,  0.00000000000E+000,  0.10000000000E+001
  0.41609000000E+005,  0.85597446893E+007,  0.16500000000E+002,  0.00000000000E+000,  0.10000000000E+001
  0.41669000000E+005,  0.85633857233E+007,  0.16500000000E+002,  0.00000000000E+000,  0.10000000000E+001
  0.41729000000E+005,  0.85669871258E+007,  0.16500000000E+002,  0.00000000000E+000,  0.10000000000E+001
  0.41789000000E+005,  0.85705494955E+007,  0.16500000000E+002,  0.00000000000E+000,  0.10000000000E+001
  0.41849000000E+005,  0.85740734182E+007,  0.16500000000E+002,  0.00000000000E+000,  0.10000000000E+001
  0.41909000000E+005,  0.85775594673E+007,  0.16500000000E+002,  0.00000000000E+000,  0.10000000000E+001
  0.41969000000E+005,  0.85810082045E+007,  0.16500000000E+002,  0.00000000000E+000,  0.10000000000E+001
  0.42029000000E+005,  0.85604113703E+007,  0.16500000000E+002,  0.00000000000E+000,  0.10000000000E+001
  0.42089000000E+005,  0.85339236618E+007,  0.16500000000E+002,  0.00000000000E+000,  0.10000000000E+001
  0.42149000000E+005,  0.85306251005E+007,  0.16500000000E+002,  0.00000000000E+000,  0.10000000000E+001
  0.42209000000E+005,  0.85301359618E+007,  0.16500000000E+002,  0.00000000000E+000,  0.10000000000E+001
  0.42269000000E+005,  0.85306943961E+007,  0.16500000000E+002,  0.00000000000E+000,  0.10000000000E+001
  0.42329000000E+005,  0.85318125549E+007,  0.16500000000E+002,  0.00000000000E+000,  0.10000000000E+001
  0.42389000000E+005,  0.85332767904E+007,  0.16500000000E+002,  0.00000000000E+000,  0.10000000000E+001
  0.42449000000E+005,  0.85349707455E+007,  0.16500000000E+002,  0.00000000000E+000,  0.10000000000E+001
  0.42509000000E+005,  0.85368267743E+007,  0.16500000000E+002,  0.00000000000E+000,  0.10000000000E+001
  0.42569000000E+005,  0.85387995855E+007,  0.16500000000E+002,  0.00000000000E+000,  0.10000000000E+001
  0.42629000000E+005,  0.85408590402E+007,  0.16500000000E+002,  0.00000000000E+000,  0.10000000000E+001
  0.42689000000E+005,  0.85429830483E+007,  0.16500000000E+002,  0.00000000000E+000,  0.10000000000E+001
  0.42749000000E+005,  0.85451554880E+007,  0.16500000000E+002,  0.00000000000E+000,  0.10000000000E+001
  0.42809000000E+005,  0.85473641216E+007,  0.16500000000E+002,  0.00000000000E+000,  0.10000000000E+001
  0.42869000000E+005,  0.85495994567E+007,  0.16500000000E+002,  0.00000000000E+000,  0.10000000000E+001
  0.42929000000E+005,  0.85518538857E+007,  0.16500000000E+002,  0.00000000000E+000,  0.10000000000E+001
  0.42989000000E+005,  0.85541218838E+007,  0.16500000000E+002,  0.00000000000E+000,  0.10000000000E+001
  0.43049000000E+005,  0.85563986190E+007,  0.16500000000E+002,  0.00000000000E+000,  0.10000000000E+001
  0.43109000000E+005,  0.85586801675E+007,  0.16500000000E+002,  0.00000000000E+000,  0.10000000000E+001
  0.43169000000E+005,  0.85609633131E+007,  0.16500000000E+002,  0.00000000000E+000,  0.10000000000E+001
  0.43229000000E+005,  0.85632453895E+007,  0.16500000000E+002,  0.00000000000E+000,  0.10000000000E+001
  0.43289000000E+005,  0.85655241687E+007,  0.16500000000E+002,  0.00000000000E+000,  0.10000000000E+001
  0.43349000000E+005,  0.85677977772E+007,  0.16500000000E+002,  0.00000000000E+000,  0.10000000000E+001
  0.43409000000E+005,  0.85700646324E+007,  0.16500000000E+002,  0.00000000000E+000,  0.10000000000E+001
  0.43469000000E+005,  0.85723233917E+007,  0.16500000000E+002,  0.00000000000E+000,  0.10000000000E+001
  0.43529000000E+005,  0.85745729131E+007,  0.16500000000E+002,  0.00000000000E+000,  0.10000000000E+001
  0.43589000000E+005,  0.85768122230E+007,  0.16500000000E+002,  0.00000000000E+000,  0.10000000000E+001
  0.43649000000E+005,  0.85790404902E+007,  0.16500000000E+002,  0.00000000000E+000,  0.10000000000E+001
  0.43709000000E+005,  0.85812570050E+007,  0.16500000000E+002,  0.00000000000E+000,  0.10000000000E+001
  0.43769000000E+005,  0.85834611612E+007,  0.16500000000E+002,  0.00000000000E+000,  0.10000000000E+001
