"           TIME(S)","              PRES","              TEMP","             SAT_G","             SAT_L"
  0.10000000000E+001,  0.62754351341E+006,  0.16500000000E+002,  0.00000000000E+000,  0.10000000000E+001
  0.60000000000E+001,  0.75195471054E+006,  0.16500000000E+002,  0.00000000000E+000,  0.10000000000E+001
  0.31000000000E+002,  0.13297733237E+007,  0.16500000000E+002,  0.00000000000E+000,  0.10000000000E+001
  0.15600000000E+003,  0.36707626401E+007,  0.16500000000E+002,  0.00000000000E+000,  0.10000000000E+001
  0.45600000000E+003,  0.74832994817E+007,  0.16500000000E+002,  0.00000000000E+000,  0.10000000000E+001
  0.75600000000E+003,  0.10254608665E+008,  0.16500000000E+002,  0.00000000000E+000,  0.10000000000E+001
  0.10560000000E+004,  0.12393837408E+008,  0.16500000000E+002,  0.00000000000E+000,  0.10000000000E+001
  0.13560000000E+004,  0.14119611052E+008,  0.16500000000E+002,  0.00000000000E+000,  0.10000000000E+001
  0.16560000000E+004,  0.15557835890E+008,  0.16500000000E+002,  0.00000000000E+000,  0.10000000000E+001
  0.19560000000E+004,  0.16786150029E+008,  0.16500000000E+002,  0.00000000000E+000,  0.10000000000E+001
  0.22560000000E+004,  0.17855220530E+008,  0.16500000000E+002,  0.00000000000E+000,  0.10000000000E+001
  0.25560000000E+004,  0.18799703470E+008,  0.16500000000E+002,  0.00000000000E+000,  0.10000000000E+001
  0.28560000000E+004,  0.19644233714E+008,  0.16500000000E+002,  0.00000000000E+000,  0.10000000000E+001
  0.31560000000E+004,  0.20406893613E+008,  0.16500000000E+002,  0.00000000000E+000,  0.10000000000E+001
  0.34560000000E+004,  0.21101328711E+008,  0.16500000000E+002,  0.00000000000E+000,  0.10000000000E+001
  0.37560000000E+004,  0.21738085871E+008,  0.16500000000E+002,  0.00000000000E+000,  0.10000000000E+001
  0.40560000000E+004,  0.22325478561E+008,  0.16500000000E+002,  0.00000000000E+000,  0.10000000000E+001
  0.43560000000E+004,  0.22870164808E+008,  0.16500000000E+002,  0.00000000000E+000,  0.10000000000E+001
  0.46560000000E+004,  0.23377561320E+008,  0.16500000000E+002,  0.00000000000E+000,  0.10000000000E+001
  0.49560000000E+004,  0.23852133921E+008,  0.16500000000E+002,  0.00000000000E+000,  0.10000000000E+001
  0.52560000000E+004,  0.24297603347E+008,  0.16500000000E+002,  0.00000000000E+000,  0.10000000000E+001
  0.55560000000E+004,  0.24717109015E+008,  0.16500000000E+002,  0.00000000000E+000,  0.10000000000E+001
  0.58560000000E+004,  0.25113320330E+008,  0.16500000000E+002,  0.00000000000E+000,  0.10000000000E+001
  0.61560000000E+004,  0.25489660405E+008,  0.16500000000E+002,  0.00000000000E+000,  0.10000000000E+001
  0.64560000000E+004,  0.25847667583E+008,  0.16500000000E+002,  0.00000000000E+000,  0.10000000000E+001
  0.67560000000E+004,  0.26187825784E+008,  0.16500000000E+002,  0.00000000000E+000,  0.10000000000E+001
  0.70560000000E+004,  0.26511833978E+008,  0.16500000000E+002,  0.00000000000E+000,  0.10000000000E+001
  0.73560000000E+004,  0.26821115764E+008,  0.16500000000E+002,  0.00000000000E+000,  0.10000000000E+001
  0.76560000000E+004,  0.27116892819E+008,  0.16500000000E+002,  0.00000000000E+000,  0.10000000000E+001
  0.79560000000E+004,  0.27400231176E+008,  0.16500000000E+002,  0.00000000000E+000,  0.10000000000E+001
  0.82560000000E+004,  0.27672071218E+008,  0.16500000000E+002,  0.00000000000E+000,  0.10000000000E+001
  0.85560000000E+004,  0.27933247389E+008,  0.16500000000E+002,  0.00000000000E+000,  0.10000000000E+001
  0.88560000000E+004,  0.28184505009E+008,  0.16500000000E+002,  0.00000000000E+000,  0.10000000000E+001
  0.91560000000E+004,  0.28426514582E+008,  0.16500000000E+002,  0.00000000000E+000,  0.10000000000E+001
  0.94560000000E+004,  0.28659882014E+008,  0.16500000000E+002,  0.00000000000E+000,  0.10000000000E+001
  0.97560000000E+004,  0.28885155417E+008,  0.16500000000E+002,  0.00000000000E+000,  0.10000000000E+001
  0.10056000000E+005,  0.29102833460E+008,  0.16500000000E+002,  0.00000000000E+000,  0.10000000000E+001
  0.10356000000E+005,  0.29313371484E+008,  0.16500000000E+002,  0.00000000000E+000,  0.10000000000E+001
  0.10656000000E+005,  0.29517185958E+008,  0.16500000000E+002,  0.00000000000E+000,  0.10000000000E+001
  0.10956000000E+005,  0.29714658895E+008,  0.16500000000E+002,  0.00000000000E+000,  0.10000000000E+001
  0.11256000000E+005,  0.29906141135E+008,  0.16500000000E+002,  0.00000000000E+000,  0.10000000000E+001
  0.11556000000E+005,  0.30091955621E+008,  0.16500000000E+002,  0.00000000000E+000,  0.10000000000E+001
  0.11856000000E+005,  0.30272401184E+008,  0.16500000000E+002,  0.00000000000E+000,  0.10000000000E+001
  0.12156000000E+005,  0.30442515841E+008,  0.16500000000E+002,  0.00000000000E+000,  0.10000000000E+001
  0.12456000000E+005,  0.30604528448E+008,  0.16500000000E+002,  0.00000000000E+000,  0.10000000000E+001
  0.12756000000E+005,  0.30764309717E+008,  0.16500000000E+002,  0.00000000000E+000,  0.10000000000E+001
  0.13056000000E+005,  0.30921140860E+008,  0.16500000000E+002,  0.00000000000E+000,  0.10000000000E+001
  0.13356000000E+005,  0.31074717551E+008,  0.16500000000E+002,  0.00000000000E+000,  0.10000000000E+001
  0.13656000000E+005,  0.31224942084E+008,  0.16500000000E+002,  0.00000000000E+000,  0.10000000000E+001
  0.13956000000E+005,  0.31371818488E+008,  0.16500000000E+002,  0.00000000000E+000,  0.10000000000E+001
  0.14256000000E+005,  0.31515401955E+008,  0.16500000000E+002,  0.00000000000E+000,  0.10000000000E+001
  0.14556000000E+005,  0.31655773634E+008,  0.16500000000E+002,  0.00000000000E+000,  0.10000000000E+001
  0.14856000000E+005,  0.31793027600E+008,  0.16500000000E+002,  0.00000000000E+000,  0.10000000000E+001
  0.15156000000E+005,  0.31927263149E+008,  0.16500000000E+002,  0.00000000000E+000,  0.10000000000E+001
  0.15456000000E+005,  0.32058581290E+008,  0.16500000000E+002,  0.00000000000E+000,  0.10000000000E+001
  0.15756000000E+005,  0.32187082672E+008,  0.16500000000E+002,  0.00000000000E+000,  0.10000000000E+001
  0.16056000000E+005,  0.32312865640E+008,  0.16500000000E+002,  0.00000000000E+000,  0.10000000000E+001
  0.16356000000E+005,  0.32436024368E+008,  0.16500000000E+002,  0.00000000000E+000,  0.10000000000E+001
  0.16656000000E+005,  0.32556651103E+008,  0.16500000000E+002,  0.00000000000E+000,  0.10000000000E+001
  0.16956000000E+005,  0.32674835079E+008,  0.16500000000E+002,  0.00000000000E+000,  0.10000000000E+001
  0.17256000000E+005,  0.32790661731E+008,  0.16500000000E+002,  0.00000000000E+000,  0.10000000000E+001
  0.17556000000E+005,  0.32904211010E+008,  0.16500000000E+002,  0.00000000000E+000,  0.10000000000E+001
  0.17856000000E+005,  0.33015560617E+008,  0.16500000000E+002,  0.00000000000E+000,  0.10000000000E+001
  0.18156000000E+005,  0.33130144831E+008,  0.16500000000E+002,  0.00000000000E+000,  0.10000000000E+001
  0.18456000000E+005,  0.33246015359E+008,  0.16500000000E+002,  0.00000000000E+000,  0.10000000000E+001
  0.18756000000E+005,  0.33357472349E+008,  0.16500000000E+002,  0.00000000000E+000,  0.10000000000E+001
  0.19056000000E+005,  0.33465542848E+008,  0.16500000000E+002,  0.00000000000E+000,  0.10000000000E+001
  0.19356000000E+005,  0.33570810278E+008,  0.16500000000E+002,  0.00000000000E+000,  0.10000000000E+001
  0.19656000000E+005,  0.33673630055E+008,  0.16500000000E+002,  0.00000000000E+000,  0.10000000000E+001
  0.19956000000E+005,  0.33774238190E+008,  0.16500000000E+002,  0.00000000000E+000,  0.10000000000E+001
  0.20256000000E+005,  0.33872804122E+008,  0.16500000000E+002,  0.00000000000E+000,  0.10000000000E+001
  0.20556000000E+005,  0.33969457607E+008,  0.16500000000E+002,  0.00000000000E+000,  0.10000000000E+001
  0.20856000000E+005,  0.34064303084E+008,  0.16500000000E+002,  0.00000000000E+000,  0.10000000000E+001
  0.21156000000E+005,  0.34157428078E+008,  0.16500000000E+002,  0.00000000000E+000,  0.10000000000E+001
  0.21456000000E+005,  0.34248908118E+008,  0.16500000000E+002,  0.00000000000E+000,  0.10000000000E+001
  0.21756000000E+005,  0.34338810021E+008,  0.16500000000E+002,  0.00000000000E+000,  0.10000000000E+001
  0.22056000000E+005,  0.34427193809E+008,  0.16500000000E+002,  0.00000000000E+000,  0.10000000000E+001
  0.22356000000E+005,  0.34514114224E+008,  0.16500000000E+002,  0.00000000000E+000,  0.10000000000E+001
  0.22656000000E+005,  0.34599621572E+008,  0.16500000000E+002,  0.00000000000E+000,  0.10000000000E+001
  0.22956000000E+005,  0.34683762605E+008,  0.16500000000E+002,  0.00000000000E+000,  0.10000000000E+001
  0.23256000000E+005,  0.34766580550E+008,  0.16500000000E+002,  0.00000000000E+000,  0.10000000000E+001
  0.23556000000E+005,  0.34848116239E+008,  0.16500000000E+002,  0.00000000000E+000,  0.10000000000E+001
  0.23856000000E+005,  0.34928408114E+008,  0.16500000000E+002,  0.00000000000E+000,  0.10000000000E+001
  0.24156000000E+005,  0.35009148811E+008,  0.16500000000E+002,  0.00000000000E+000,  0.10000000000E+001
  0.24456000000E+005,  0.35089748502E+008,  0.16500000000E+002,  0.00000000000E+000,  0.10000000000E+001
  0.24756000000E+005,  0.35168457217E+008,  0.16500000000E+002,  0.00000000000E+000,  0.10000000000E+001
  0.25056000000E+005,  0.35245603996E+008,  0.16500000000E+002,  0.00000000000E+000,  0.10000000000E+001
  0.25356000000E+005,  0.35321380298E+008,  0.16500000000E+002,  0.00000000000E+000,  0.10000000000E+001
  0.25656000000E+005,  0.35395906611E+008,  0.16500000000E+002,  0.00000000000E+000,  0.10000000000E+001
  0.25956000000E+005,  0.35469266035E+008,  0.16500000000E+002,  0.00000000000E+000,  0.10000000000E+001
  0.26256000000E+005,  0.35541520711E+008,  0.16500000000E+002,  0.00000000000E+000,  0.10000000000E+001
  0.26556000000E+005,  0.35612720103E+008,  0.16500000000E+002,  0.00000000000E+000,  0.10000000000E+001
  0.26856000000E+005,  0.35682905750E+008,  0.16500000000E+002,  0.00000000000E+000,  0.10000000000E+001
  0.27156000000E+005,  0.35752113336E+008,  0.16500000000E+002,  0.00000000000E+000,  0.10000000000E+001
  0.27456000000E+005,  0.35820374622E+008,  0.16500000000E+002,  0.00000000000E+000,  0.10000000000E+001
  0.27756000000E+005,  0.35887718450E+008,  0.16500000000E+002,  0.00000000000E+000,  0.10000000000E+001
  0.28056000000E+005,  0.35954171375E+008,  0.16500000000E+002,  0.00000000000E+000,  0.10000000000E+001
  0.28356000000E+005,  0.36019758113E+008,  0.16500000000E+002,  0.00000000000E+000,  0.10000000000E+001
  0.28656000000E+005,  0.36084501853E+008,  0.16500000000E+002,  0.00000000000E+000,  0.10000000000E+001
  0.28956000000E+005,  0.36148424421E+008,  0.16500000000E+002,  0.00000000000E+000,  0.10000000000E+001
  0.29256000000E+005,  0.36211546537E+008,  0.16500000000E+002,  0.00000000000E+000,  0.10000000000E+001
  0.29556000000E+005,  0.36273887880E+008,  0.16500000000E+002,  0.00000000000E+000,  0.10000000000E+001
  0.29856000000E+005,  0.36335467145E+008,  0.16500000000E+002,  0.00000000000E+000,  0.10000000000E+001
  0.30156000000E+005,  0.36398495264E+008,  0.16500000000E+002,  0.00000000000E+000,  0.10000000000E+001
  0.30456000000E+005,  0.36462162724E+008,  0.16500000000E+002,  0.00000000000E+000,  0.10000000000E+001
  0.30756000000E+005,  0.36524125681E+008,  0.16500000000E+002,  0.00000000000E+000,  0.10000000000E+001
  0.31056000000E+005,  0.36584794246E+008,  0.16500000000E+002,  0.00000000000E+000,  0.10000000000E+001
  0.31356000000E+005,  0.36644397479E+008,  0.16500000000E+002,  0.00000000000E+000,  0.10000000000E+001
  0.31656000000E+005,  0.36703071486E+008,  0.16500000000E+002,  0.00000000000E+000,  0.10000000000E+001
  0.31956000000E+005,  0.36760903908E+008,  0.16500000000E+002,  0.00000000000E+000,  0.10000000000E+001
  0.32256000000E+005,  0.36817955631E+008,  0.16500000000E+002,  0.00000000000E+000,  0.10000000000E+001
  0.32556000000E+005,  0.64701153761E+008,  0.16500000000E+002,  0.00000000000E+000,  0.10000000000E+001
  0.32574750000E+005,  0.83615867720E+008,  0.16500000000E+002,  0.00000000000E+000,  0.10000000000E+001
  0.32580609375E+005,  0.89193097008E+008,  0.16500000000E+002,  0.00000000000E+000,  0.10000000000E+001
  0.32587933594E+005,  0.95966108007E+008,  0.16500000000E+002,  0.00000000000E+000,  0.10000000000E+001
  0.32590222412E+005,  0.98043444863E+008,  0.16500000000E+002,  0.00000000000E+000,  0.10000000000E+001
  0.32590937668E+005,  0.98695937604E+008,  0.16500000000E+002,  0.00000000000E+000,  0.10000000000E+001
  0.32591831738E+005,  0.99516538990E+008,  0.16500000000E+002,  0.00000000000E+000,  0.10000000000E+001
  0.32592111134E+005,  0.99772204439E+008,  0.16500000000E+002,  0.00000000000E+000,  0.10000000000E+001
  0.32592198446E+005,  0.99852042688E+008,  0.16500000000E+002,  0.00000000000E+000,  0.10000000000E+001
  0.32592225731E+005,  0.99876986775E+008,  0.16500000000E+002,  0.00000000000E+000,  0.10000000000E+001
  0.32592259837E+005,  0.99908163022E+008,  0.16500000000E+002,  0.00000000000E+000,  0.10000000000E+001
  0.32592270495E+005,  0.99917904686E+008,  0.16500000000E+002,  0.00000000000E+000,  0.10000000000E+001
  0.32592283817E+005,  0.99930081179E+008,  0.16500000000E+002,  0.00000000000E+000,  0.10000000000E+001
  0.32592287981E+005,  0.99933886196E+008,  0.16500000000E+002,  0.00000000000E+000,  0.10000000000E+001
  0.32592293185E+005,  0.99938642383E+008,  0.16500000000E+002,  0.00000000000E+000,  0.10000000000E+001
  0.32592299690E+005,  0.99944587493E+008,  0.16500000000E+002,  0.00000000000E+000,  0.10000000000E+001
  0.32592300198E+005,  0.99945051945E+008,  0.16500000000E+002,  0.00000000000E+000,  0.10000000000E+001
  0.32592300238E+005,  0.99945088230E+008,  0.16500000000E+002,  0.00000000000E+000,  0.10000000000E+001
  0.32592300288E+005,  0.99945133587E+008,  0.16500000000E+002,  0.00000000000E+000,  0.10000000000E+001
  0.32592300303E+005,  0.99945147761E+008,  0.16500000000E+002,  0.00000000000E+000,  0.10000000000E+001
  0.32592300308E+005,  0.99945152190E+008,  0.16500000000E+002,  0.00000000000E+000,  0.10000000000E+001
  0.32592300314E+005,  0.99945157727E+008,  0.16500000000E+002,  0.00000000000E+000,  0.10000000000E+001
  0.32592300316E+005,  0.99945157727E+008,  0.16500000000E+002,  0.00000000000E+000,  0.10000000000E+001
  0.32592300318E+005,  0.99945159890E+008,  0.16500000000E+002,  0.00000000000E+000,  0.10000000000E+001
  0.32592300319E+005,  0.99945159890E+008,  0.16500000000E+002,  0.00000000000E+000,  0.10000000000E+001
  0.32592300320E+005,  0.99945159890E+008,  0.16500000000E+002,  0.00000000000E+000,  0.10000000000E+001
  0.32592300321E+005,  0.99945159890E+008,  0.16500000000E+002,  0.00000000000E+000,  0.10000000000E+001
