"           TIME(S)","              PRES","              TEMP","             SAT_G","             SAT_L"
  0.47568000000E+005,  0.85310239693E+007,  0.16500000000E+002,  0.00000000000E+000,  0.10000000000E+001
  0.47573000000E+005,  0.67928972063E+007,  0.16500000000E+002,  0.00000000000E+000,  0.10000000000E+001
  0.47598000000E+005,  0.51584055323E+007,  0.16500000000E+002,  0.00000000000E+000,  0.10000000000E+001
  0.47658000000E+005,  0.43967423462E+007,  0.16500000000E+002,  0.00000000000E+000,  0.10000000000E+001
  0.47718000000E+005,  0.40782183207E+007,  0.16500000000E+002,  0.00000000000E+000,  0.10000000000E+001
  0.47778000000E+005,  0.38845919133E+007,  0.16500000000E+002,  0.00000000000E+000,  0.10000000000E+001
  0.47838000000E+005,  0.37446919483E+007,  0.16500000000E+002,  0.00000000000E+000,  0.10000000000E+001
  0.47898000000E+005,  0.36344954390E+007,  0.16500000000E+002,  0.00000000000E+000,  0.10000000000E+001
  0.47958000000E+005,  0.35433129301E+007,  0.16500000000E+002,  0.00000000000E+000,  0.10000000000E+001
  0.48018000000E+005,  0.34649254922E+007,  0.16500000000E+002,  0.00000000000E+000,  0.10000000000E+001
  0.48078000000E+005,  0.33955952408E+007,  0.16500000000E+002,  0.00000000000E+000,  0.10000000000E+001
  0.48138000000E+005,  0.33348245677E+007,  0.16500000000E+002,  0.00000000000E+000,  0.10000000000E+001
  0.48198000000E+005,  0.32802804934E+007,  0.16500000000E+002,  0.00000000000E+000,  0.10000000000E+001
  0.48258000000E+005,  0.32307364506E+007,  0.16500000000E+002,  0.00000000000E+000,  0.10000000000E+001
  0.48318000000E+005,  0.31853293048E+007,  0.16500000000E+002,  0.00000000000E+000,  0.10000000000E+001
  0.48378000000E+005,  0.31434101871E+007,  0.16500000000E+002,  0.00000000000E+000,  0.10000000000E+001
  0.48438000000E+005,  0.31044747106E+007,  0.16500000000E+002,  0.00000000000E+000,  0.10000000000E+001
  0.48498000000E+005,  0.30681222067E+007,  0.16500000000E+002,  0.00000000000E+000,  0.10000000000E+001
  0.48558000000E+005,  0.30340288953E+007,  0.16500000000E+002,  0.00000000000E+000,  0.10000000000E+001
  0.48618000000E+005,  0.30019289022E+007,  0.16500000000E+002,  0.00000000000E+000,  0.10000000000E+001
  0.48678000000E+005,  0.29716014546E+007,  0.16500000000E+002,  0.00000000000E+000,  0.10000000000E+001
  0.48738000000E+005,  0.29428607348E+007,  0.16500000000E+002,  0.00000000000E+000,  0.10000000000E+001
  0.48798000000E+005,  0.29155490718E+007,  0.16500000000E+002,  0.00000000000E+000,  0.10000000000E+001
  0.48858000000E+005,  0.28895314280E+007,  0.16500000000E+002,  0.00000000000E+000,  0.10000000000E+001
  0.48918000000E+005,  0.28646911059E+007,  0.16500000000E+002,  0.00000000000E+000,  0.10000000000E+001
  0.48978000000E+005,  0.28409266307E+007,  0.16500000000E+002,  0.00000000000E+000,  0.10000000000E+001
  0.49038000000E+005,  0.28181491593E+007,  0.16500000000E+002,  0.00000000000E+000,  0.10000000000E+001
  0.49098000000E+005,  0.27962804540E+007,  0.16500000000E+002,  0.00000000000E+000,  0.10000000000E+001
  0.49158000000E+005,  0.27752512669E+007,  0.16500000000E+002,  0.00000000000E+000,  0.10000000000E+001
  0.49218000000E+005,  0.27549999860E+007,  0.16500000000E+002,  0.00000000000E+000,  0.10000000000E+001
  0.49278000000E+005,  0.27354715564E+007,  0.16500000000E+002,  0.00000000000E+000,  0.10000000000E+001
  0.49338000000E+005,  0.27166165883E+007,  0.16500000000E+002,  0.00000000000E+000,  0.10000000000E+001
  0.49398000000E+005,  0.26983905573E+007,  0.16500000000E+002,  0.00000000000E+000,  0.10000000000E+001
  0.49458000000E+005,  0.26807532350E+007,  0.16500000000E+002,  0.00000000000E+000,  0.10000000000E+001
  0.49518000000E+005,  0.26636681455E+007,  0.16500000000E+002,  0.00000000000E+000,  0.10000000000E+001
  0.49578000000E+005,  0.26471020789E+007,  0.16500000000E+002,  0.00000000000E+000,  0.10000000000E+001
  0.49638000000E+005,  0.26310247470E+007,  0.16500000000E+002,  0.00000000000E+000,  0.10000000000E+001
  0.49698000000E+005,  0.26154084370E+007,  0.16500000000E+002,  0.00000000000E+000,  0.10000000000E+001
  0.49758000000E+005,  0.26002277266E+007,  0.16500000000E+002,  0.00000000000E+000,  0.10000000000E+001
  0.49818000000E+005,  0.25854592377E+007,  0.16500000000E+002,  0.00000000000E+000,  0.10000000000E+001
  0.49878000000E+005,  0.25710814346E+007,  0.16500000000E+002,  0.00000000000E+000,  0.10000000000E+001
  0.49938000000E+005,  0.25570743919E+007,  0.16500000000E+002,  0.00000000000E+000,  0.10000000000E+001
  0.49998000000E+005,  0.25434197245E+007,  0.16500000000E+002,  0.00000000000E+000,  0.10000000000E+001
  0.50058000000E+005,  0.25301003502E+007,  0.16500000000E+002,  0.00000000000E+000,  0.10000000000E+001
  0.50118000000E+005,  0.25171004006E+007,  0.16500000000E+002,  0.00000000000E+000,  0.10000000000E+001
  0.50178000000E+005,  0.25044051157E+007,  0.16500000000E+002,  0.00000000000E+000,  0.10000000000E+001
  0.50238000000E+005,  0.24920007310E+007,  0.16500000000E+002,  0.00000000000E+000,  0.10000000000E+001
  0.50298000000E+005,  0.24798744028E+007,  0.16500000000E+002,  0.00000000000E+000,  0.10000000000E+001
  0.50358000000E+005,  0.24680140814E+007,  0.16500000000E+002,  0.00000000000E+000,  0.10000000000E+001
  0.50418000000E+005,  0.24564085404E+007,  0.16500000000E+002,  0.00000000000E+000,  0.10000000000E+001
  0.50478000000E+005,  0.24450472256E+007,  0.16500000000E+002,  0.00000000000E+000,  0.10000000000E+001
  0.50538000000E+005,  0.24339202018E+007,  0.16500000000E+002,  0.00000000000E+000,  0.10000000000E+001
  0.50598000000E+005,  0.24230181681E+007,  0.16500000000E+002,  0.00000000000E+000,  0.10000000000E+001
  0.50658000000E+005,  0.24123323335E+007,  0.16500000000E+002,  0.00000000000E+000,  0.10000000000E+001
  0.50718000000E+005,  0.24018544393E+007,  0.16500000000E+002,  0.00000000000E+000,  0.10000000000E+001
  0.50778000000E+005,  0.23915766673E+007,  0.16500000000E+002,  0.00000000000E+000,  0.10000000000E+001
  0.50838000000E+005,  0.23814916531E+007,  0.16500000000E+002,  0.00000000000E+000,  0.10000000000E+001
  0.50898000000E+005,  0.23715924067E+007,  0.16500000000E+002,  0.00000000000E+000,  0.10000000000E+001
  0.50958000000E+005,  0.23618723420E+007,  0.16500000000E+002,  0.00000000000E+000,  0.10000000000E+001
  0.51018000000E+005,  0.23523251874E+007,  0.16500000000E+002,  0.00000000000E+000,  0.10000000000E+001
  0.51078000000E+005,  0.23429450190E+007,  0.16500000000E+002,  0.00000000000E+000,  0.10000000000E+001
  0.51138000000E+005,  0.23337261978E+007,  0.16500000000E+002,  0.00000000000E+000,  0.10000000000E+001
  0.51198000000E+005,  0.23246633593E+007,  0.16500000000E+002,  0.00000000000E+000,  0.10000000000E+001
  0.51258000000E+005,  0.23157514299E+007,  0.16500000000E+002,  0.00000000000E+000,  0.10000000000E+001
  0.51318000000E+005,  0.23069855516E+007,  0.16500000000E+002,  0.00000000000E+000,  0.10000000000E+001
  0.51378000000E+005,  0.22983611040E+007,  0.16500000000E+002,  0.00000000000E+000,  0.10000000000E+001
  0.51438000000E+005,  0.22898736931E+007,  0.16500000000E+002,  0.00000000000E+000,  0.10000000000E+001
  0.51498000000E+005,  0.22815191123E+007,  0.16500000000E+002,  0.00000000000E+000,  0.10000000000E+001
  0.51558000000E+005,  0.22732933441E+007,  0.16500000000E+002,  0.00000000000E+000,  0.10000000000E+001
  0.51618000000E+005,  0.22651925701E+007,  0.16500000000E+002,  0.00000000000E+000,  0.10000000000E+001
  0.51678000000E+005,  0.22572131183E+007,  0.16500000000E+002,  0.00000000000E+000,  0.10000000000E+001
  0.51738000000E+005,  0.22493514845E+007,  0.16500000000E+002,  0.00000000000E+000,  0.10000000000E+001
  0.51798000000E+005,  0.22416043120E+007,  0.16500000000E+002,  0.00000000000E+000,  0.10000000000E+001
  0.51858000000E+005,  0.22339683900E+007,  0.16500000000E+002,  0.00000000000E+000,  0.10000000000E+001
  0.51918000000E+005,  0.22264406331E+007,  0.16500000000E+002,  0.00000000000E+000,  0.10000000000E+001
  0.51978000000E+005,  0.22190180762E+007,  0.16500000000E+002,  0.00000000000E+000,  0.10000000000E+001
  0.52038000000E+005,  0.22116978900E+007,  0.16500000000E+002,  0.00000000000E+000,  0.10000000000E+001
  0.52098000000E+005,  0.22044773527E+007,  0.16500000000E+002,  0.00000000000E+000,  0.10000000000E+001
  0.52158000000E+005,  0.21973538423E+007,  0.16500000000E+002,  0.00000000000E+000,  0.10000000000E+001
  0.52218000000E+005,  0.21903248447E+007,  0.16500000000E+002,  0.00000000000E+000,  0.10000000000E+001
  0.52278000000E+005,  0.21833879419E+007,  0.16500000000E+002,  0.00000000000E+000,  0.10000000000E+001
  0.52338000000E+005,  0.21765407986E+007,  0.16500000000E+002,  0.00000000000E+000,  0.10000000000E+001
  0.52398000000E+005,  0.21697811772E+007,  0.16500000000E+002,  0.00000000000E+000,  0.10000000000E+001
  0.52458000000E+005,  0.21631069216E+007,  0.16500000000E+002,  0.00000000000E+000,  0.10000000000E+001
  0.52518000000E+005,  0.21565159507E+007,  0.16500000000E+002,  0.00000000000E+000,  0.10000000000E+001
  0.52578000000E+005,  0.21500062539E+007,  0.16500000000E+002,  0.00000000000E+000,  0.10000000000E+001
  0.52638000000E+005,  0.21435759033E+007,  0.16500000000E+002,  0.00000000000E+000,  0.10000000000E+001
  0.52698000000E+005,  0.21372230319E+007,  0.16500000000E+002,  0.00000000000E+000,  0.10000000000E+001
  0.52758000000E+005,  0.21309458369E+007,  0.16500000000E+002,  0.00000000000E+000,  0.10000000000E+001
  0.52818000000E+005,  0.21247425807E+007,  0.16500000000E+002,  0.00000000000E+000,  0.10000000000E+001
  0.52878000000E+005,  0.21186115839E+007,  0.16500000000E+002,  0.00000000000E+000,  0.10000000000E+001
  0.52938000000E+005,  0.21125512254E+007,  0.16500000000E+002,  0.00000000000E+000,  0.10000000000E+001
  0.52998000000E+005,  0.21065599283E+007,  0.16500000000E+002,  0.00000000000E+000,  0.10000000000E+001
  0.53058000000E+005,  0.21006361835E+007,  0.16500000000E+002,  0.00000000000E+000,  0.10000000000E+001
  0.53118000000E+005,  0.20947785198E+007,  0.16500000000E+002,  0.00000000000E+000,  0.10000000000E+001
  0.53178000000E+005,  0.20889855113E+007,  0.16500000000E+002,  0.00000000000E+000,  0.10000000000E+001
  0.53238000000E+005,  0.20832557898E+007,  0.16500000000E+002,  0.00000000000E+000,  0.10000000000E+001
  0.53298000000E+005,  0.20775880215E+007,  0.16500000000E+002,  0.00000000000E+000,  0.10000000000E+001
  0.53358000000E+005,  0.20719809165E+007,  0.16500000000E+002,  0.00000000000E+000,  0.10000000000E+001
  0.53418000000E+005,  0.20664332223E+007,  0.16500000000E+002,  0.00000000000E+000,  0.10000000000E+001
  0.53478000000E+005,  0.20609437269E+007,  0.16500000000E+002,  0.00000000000E+000,  0.10000000000E+001
  0.53538000000E+005,  0.20555112565E+007,  0.16500000000E+002,  0.00000000000E+000,  0.10000000000E+001
  0.53598000000E+005,  0.20501346680E+007,  0.16500000000E+002,  0.00000000000E+000,  0.10000000000E+001
  0.53658000000E+005,  0.20448128626E+007,  0.16500000000E+002,  0.00000000000E+000,  0.10000000000E+001
  0.53718000000E+005,  0.20395447590E+007,  0.16500000000E+002,  0.00000000000E+000,  0.10000000000E+001
  0.53778000000E+005,  0.20343293208E+007,  0.16500000000E+002,  0.00000000000E+000,  0.10000000000E+001
  0.53838000000E+005,  0.20291655379E+007,  0.16500000000E+002,  0.00000000000E+000,  0.10000000000E+001
  0.53898000000E+005,  0.20240524221E+007,  0.16500000000E+002,  0.00000000000E+000,  0.10000000000E+001
  0.53958000000E+005,  0.20189890201E+007,  0.16500000000E+002,  0.00000000000E+000,  0.10000000000E+001
  0.54018000000E+005,  0.20144984597E+007,  0.16500000000E+002,  0.00000000000E+000,  0.10000000000E+001
  0.54078000000E+005,  0.20108862226E+007,  0.16500000000E+002,  0.00000000000E+000,  0.10000000000E+001
  0.54138000000E+005,  0.20063406091E+007,  0.16500000000E+002,  0.00000000000E+000,  0.10000000000E+001
  0.54198000000E+005,  0.20016678831E+007,  0.16500000000E+002,  0.00000000000E+000,  0.10000000000E+001
  0.54258000000E+005,  0.19969786779E+007,  0.16500000000E+002,  0.00000000000E+000,  0.10000000000E+001
  0.54318000000E+005,  0.19923025607E+007,  0.16500000000E+002,  0.00000000000E+000,  0.10000000000E+001
  0.54378000000E+005,  0.19876508545E+007,  0.16500000000E+002,  0.00000000000E+000,  0.10000000000E+001
  0.54438000000E+005,  0.19830288782E+007,  0.16500000000E+002,  0.00000000000E+000,  0.10000000000E+001
  0.54498000000E+005,  0.19784394364E+007,  0.16500000000E+002,  0.00000000000E+000,  0.10000000000E+001
  0.54558000000E+005,  0.19738840723E+007,  0.16500000000E+002,  0.00000000000E+000,  0.10000000000E+001
  0.54618000000E+005,  0.19693636269E+007,  0.16500000000E+002,  0.00000000000E+000,  0.10000000000E+001
  0.54678000000E+005,  0.19648785190E+007,  0.16500000000E+002,  0.00000000000E+000,  0.10000000000E+001
  0.54738000000E+005,  0.19604288949E+007,  0.16500000000E+002,  0.00000000000E+000,  0.10000000000E+001
  0.54798000000E+005,  0.19560147226E+007,  0.16500000000E+002,  0.00000000000E+000,  0.10000000000E+001
  0.54858000000E+005,  0.19516358522E+007,  0.16500000000E+002,  0.00000000000E+000,  0.10000000000E+001
  0.54918000000E+005,  0.19472920454E+007,  0.16500000000E+002,  0.00000000000E+000,  0.10000000000E+001
  0.54978000000E+005,  0.19429830129E+007,  0.16500000000E+002,  0.00000000000E+000,  0.10000000000E+001
  0.55038000000E+005,  0.19387084174E+007,  0.16500000000E+002,  0.00000000000E+000,  0.10000000000E+001
  0.55098000000E+005,  0.19344678964E+007,  0.16500000000E+002,  0.00000000000E+000,  0.10000000000E+001
  0.55158000000E+005,  0.19302610653E+007,  0.16500000000E+002,  0.00000000000E+000,  0.10000000000E+001
  0.55218000000E+005,  0.19260875281E+007,  0.16500000000E+002,  0.00000000000E+000,  0.10000000000E+001
  0.55278000000E+005,  0.19219468790E+007,  0.16500000000E+002,  0.00000000000E+000,  0.10000000000E+001
  0.55338000000E+005,  0.19178387086E+007,  0.16500000000E+002,  0.00000000000E+000,  0.10000000000E+001
  0.55398000000E+005,  0.19137626048E+007,  0.16500000000E+002,  0.00000000000E+000,  0.10000000000E+001
  0.55458000000E+005,  0.19097181510E+007,  0.16500000000E+002,  0.00000000000E+000,  0.10000000000E+001
  0.55518000000E+005,  0.19057049392E+007,  0.16500000000E+002,  0.00000000000E+000,  0.10000000000E+001
  0.55578000000E+005,  0.19017225613E+007,  0.16500000000E+002,  0.00000000000E+000,  0.10000000000E+001
  0.55638000000E+005,  0.18977706103E+007,  0.16500000000E+002,  0.00000000000E+000,  0.10000000000E+001
  0.55698000000E+005,  0.18938486863E+007,  0.16500000000E+002,  0.00000000000E+000,  0.10000000000E+001
  0.55758000000E+005,  0.18899563942E+007,  0.16500000000E+002,  0.00000000000E+000,  0.10000000000E+001
  0.55818000000E+005,  0.18860933428E+007,  0.16500000000E+002,  0.00000000000E+000,  0.10000000000E+001
  0.55878000000E+005,  0.18822591466E+007,  0.16500000000E+002,  0.00000000000E+000,  0.10000000000E+001
  0.55938000000E+005,  0.18784534282E+007,  0.16500000000E+002,  0.00000000000E+000,  0.10000000000E+001
  0.55998000000E+005,  0.18746758119E+007,  0.16500000000E+002,  0.00000000000E+000,  0.10000000000E+001
  0.56058000000E+005,  0.18709259338E+007,  0.16500000000E+002,  0.00000000000E+000,  0.10000000000E+001
  0.56118000000E+005,  0.18672034309E+007,  0.16500000000E+002,  0.00000000000E+000,  0.10000000000E+001
  0.56178000000E+005,  0.18635079489E+007,  0.16500000000E+002,  0.00000000000E+000,  0.10000000000E+001
  0.56238000000E+005,  0.18598391398E+007,  0.16500000000E+002,  0.00000000000E+000,  0.10000000000E+001
  0.56298000000E+005,  0.18561966598E+007,  0.16500000000E+002,  0.00000000000E+000,  0.10000000000E+001
  0.56358000000E+005,  0.18525801758E+007,  0.16500000000E+002,  0.00000000000E+000,  0.10000000000E+001
  0.56418000000E+005,  0.18489893542E+007,  0.16500000000E+002,  0.00000000000E+000,  0.10000000000E+001
  0.56478000000E+005,  0.18454238740E+007,  0.16500000000E+002,  0.00000000000E+000,  0.10000000000E+001
  0.56538000000E+005,  0.18418834141E+007,  0.16500000000E+002,  0.00000000000E+000,  0.10000000000E+001
  0.56598000000E+005,  0.18383676645E+007,  0.16500000000E+002,  0.00000000000E+000,  0.10000000000E+001
  0.56658000000E+005,  0.18348763174E+007,  0.16500000000E+002,  0.00000000000E+000,  0.10000000000E+001
  0.56718000000E+005,  0.18314090720E+007,  0.16500000000E+002,  0.00000000000E+000,  0.10000000000E+001
  0.56778000000E+005,  0.18279656338E+007,  0.16500000000E+002,  0.00000000000E+000,  0.10000000000E+001
  0.56838000000E+005,  0.18245457117E+007,  0.16500000000E+002,  0.00000000000E+000,  0.10000000000E+001
  0.56898000000E+005,  0.18211490211E+007,  0.16500000000E+002,  0.00000000000E+000,  0.10000000000E+001
  0.56958000000E+005,  0.18177752816E+007,  0.16500000000E+002,  0.00000000000E+000,  0.10000000000E+001
  0.57018000000E+005,  0.18144242220E+007,  0.16500000000E+002,  0.00000000000E+000,  0.10000000000E+001
  0.57078000000E+005,  0.18110955700E+007,  0.16500000000E+002,  0.00000000000E+000,  0.10000000000E+001
  0.57138000000E+005,  0.18077890635E+007,  0.16500000000E+002,  0.00000000000E+000,  0.10000000000E+001
  0.57198000000E+005,  0.18045044409E+007,  0.16500000000E+002,  0.00000000000E+000,  0.10000000000E+001
  0.57258000000E+005,  0.18012414496E+007,  0.16500000000E+002,  0.00000000000E+000,  0.10000000000E+001
  0.57318000000E+005,  0.17979998388E+007,  0.16500000000E+002,  0.00000000000E+000,  0.10000000000E+001
  0.57378000000E+005,  0.17947793617E+007,  0.16500000000E+002,  0.00000000000E+000,  0.10000000000E+001
  0.57438000000E+005,  0.17915797790E+007,  0.16500000000E+002,  0.00000000000E+000,  0.10000000000E+001
  0.57498000000E+005,  0.17884008525E+007,  0.16500000000E+002,  0.00000000000E+000,  0.10000000000E+001
  0.57558000000E+005,  0.17852423498E+007,  0.16500000000E+002,  0.00000000000E+000,  0.10000000000E+001
  0.57618000000E+005,  0.17821040427E+007,  0.16500000000E+002,  0.00000000000E+000,  0.10000000000E+001
  0.57678000000E+005,  0.17789857069E+007,  0.16500000000E+002,  0.00000000000E+000,  0.10000000000E+001
  0.57738000000E+005,  0.17758871211E+007,  0.16500000000E+002,  0.00000000000E+000,  0.10000000000E+001
  0.57798000000E+005,  0.17728080697E+007,  0.16500000000E+002,  0.00000000000E+000,  0.10000000000E+001
  0.57858000000E+005,  0.17697483385E+007,  0.16500000000E+002,  0.00000000000E+000,  0.10000000000E+001
  0.57918000000E+005,  0.17667077205E+007,  0.16500000000E+002,  0.00000000000E+000,  0.10000000000E+001
  0.57978000000E+005,  0.17636860085E+007,  0.16500000000E+002,  0.00000000000E+000,  0.10000000000E+001
  0.58038000000E+005,  0.17606830011E+007,  0.16500000000E+002,  0.00000000000E+000,  0.10000000000E+001
  0.58098000000E+005,  0.17576984991E+007,  0.16500000000E+002,  0.00000000000E+000,  0.10000000000E+001
  0.58158000000E+005,  0.17547323081E+007,  0.16500000000E+002,  0.00000000000E+000,  0.10000000000E+001
  0.58218000000E+005,  0.17517842359E+007,  0.16500000000E+002,  0.00000000000E+000,  0.10000000000E+001
  0.58278000000E+005,  0.17488540948E+007,  0.16500000000E+002,  0.00000000000E+000,  0.10000000000E+001
  0.58338000000E+005,  0.17459416981E+007,  0.16500000000E+002,  0.00000000000E+000,  0.10000000000E+001
  0.58398000000E+005,  0.17430468638E+007,  0.16500000000E+002,  0.00000000000E+000,  0.10000000000E+001
  0.58458000000E+005,  0.17401694125E+007,  0.16500000000E+002,  0.00000000000E+000,  0.10000000000E+001
  0.58518000000E+005,  0.17373091678E+007,  0.16500000000E+002,  0.00000000000E+000,  0.10000000000E+001
  0.58578000000E+005,  0.17344659565E+007,  0.16500000000E+002,  0.00000000000E+000,  0.10000000000E+001
  0.58638000000E+005,  0.17316396077E+007,  0.16500000000E+002,  0.00000000000E+000,  0.10000000000E+001
  0.58698000000E+005,  0.17288299537E+007,  0.16500000000E+002,  0.00000000000E+000,  0.10000000000E+001
  0.58758000000E+005,  0.17260368291E+007,  0.16500000000E+002,  0.00000000000E+000,  0.10000000000E+001
