"           TIME(S)","              PRES","              TEMP","             SAT_G","             SAT_L"
  0.47581000000E+005,  0.60117711368E+007,  0.16500000000E+002,  0.00000000000E+000,  0.10000000000E+001
  0.47586000000E+005,  0.52407517937E+007,  0.16500000000E+002,  0.00000000000E+000,  0.10000000000E+001
  0.47611000000E+005,  0.43819210295E+007,  0.16500000000E+002,  0.00000000000E+000,  0.10000000000E+001
  0.47671000000E+005,  0.37946027765E+007,  0.16500000000E+002,  0.00000000000E+000,  0.10000000000E+001
  0.47731000000E+005,  0.34946183598E+007,  0.16500000000E+002,  0.00000000000E+000,  0.10000000000E+001
  0.47791000000E+005,  0.32956244831E+007,  0.16500000000E+002,  0.00000000000E+000,  0.10000000000E+001
  0.47851000000E+005,  0.31467050462E+007,  0.16500000000E+002,  0.00000000000E+000,  0.10000000000E+001
  0.47911000000E+005,  0.30276779755E+007,  0.16500000000E+002,  0.00000000000E+000,  0.10000000000E+001
  0.47971000000E+005,  0.29285239973E+007,  0.16500000000E+002,  0.00000000000E+000,  0.10000000000E+001
  0.48031000000E+005,  0.28430248975E+007,  0.16500000000E+002,  0.00000000000E+000,  0.10000000000E+001
  0.48091000000E+005,  0.27680683672E+007,  0.16500000000E+002,  0.00000000000E+000,  0.10000000000E+001
  0.48151000000E+005,  0.27018060931E+007,  0.16500000000E+002,  0.00000000000E+000,  0.10000000000E+001
  0.48211000000E+005,  0.26422245596E+007,  0.16500000000E+002,  0.00000000000E+000,  0.10000000000E+001
  0.48271000000E+005,  0.25880836060E+007,  0.16500000000E+002,  0.00000000000E+000,  0.10000000000E+001
  0.48331000000E+005,  0.25384734951E+007,  0.16500000000E+002,  0.00000000000E+000,  0.10000000000E+001
  0.48391000000E+005,  0.24926981211E+007,  0.16500000000E+002,  0.00000000000E+000,  0.10000000000E+001
  0.48451000000E+005,  0.24502114364E+007,  0.16500000000E+002,  0.00000000000E+000,  0.10000000000E+001
  0.48511000000E+005,  0.24105766770E+007,  0.16500000000E+002,  0.00000000000E+000,  0.10000000000E+001
  0.48571000000E+005,  0.23734386917E+007,  0.16500000000E+002,  0.00000000000E+000,  0.10000000000E+001
  0.48631000000E+005,  0.23385047992E+007,  0.16500000000E+002,  0.00000000000E+000,  0.10000000000E+001
  0.48691000000E+005,  0.23055309346E+007,  0.16500000000E+002,  0.00000000000E+000,  0.10000000000E+001
  0.48751000000E+005,  0.22743113880E+007,  0.16500000000E+002,  0.00000000000E+000,  0.10000000000E+001
  0.48811000000E+005,  0.22446712115E+007,  0.16500000000E+002,  0.00000000000E+000,  0.10000000000E+001
  0.48871000000E+005,  0.22164603333E+007,  0.16500000000E+002,  0.00000000000E+000,  0.10000000000E+001
  0.48931000000E+005,  0.21895490757E+007,  0.16500000000E+002,  0.00000000000E+000,  0.10000000000E+001
  0.48991000000E+005,  0.21638246401E+007,  0.16500000000E+002,  0.00000000000E+000,  0.10000000000E+001
  0.49051000000E+005,  0.21391882653E+007,  0.16500000000E+002,  0.00000000000E+000,  0.10000000000E+001
  0.49111000000E+005,  0.21155530261E+007,  0.16500000000E+002,  0.00000000000E+000,  0.10000000000E+001
  0.49171000000E+005,  0.20928419901E+007,  0.16500000000E+002,  0.00000000000E+000,  0.10000000000E+001
  0.49231000000E+005,  0.20709867640E+007,  0.16500000000E+002,  0.00000000000E+000,  0.10000000000E+001
  0.49291000000E+005,  0.20499262483E+007,  0.16500000000E+002,  0.00000000000E+000,  0.10000000000E+001
  0.49351000000E+005,  0.20296056618E+007,  0.16500000000E+002,  0.00000000000E+000,  0.10000000000E+001
  0.49411000000E+005,  0.20099756830E+007,  0.16500000000E+002,  0.00000000000E+000,  0.10000000000E+001
  0.49471000000E+005,  0.19909917579E+007,  0.16500000000E+002,  0.00000000000E+000,  0.10000000000E+001
  0.49531000000E+005,  0.19726134755E+007,  0.16500000000E+002,  0.00000000000E+000,  0.10000000000E+001
  0.49591000000E+005,  0.19548041108E+007,  0.16500000000E+002,  0.00000000000E+000,  0.10000000000E+001
  0.49651000000E+005,  0.19375301575E+007,  0.16500000000E+002,  0.00000000000E+000,  0.10000000000E+001
  0.49711000000E+005,  0.19207609763E+007,  0.16500000000E+002,  0.00000000000E+000,  0.10000000000E+001
  0.49771000000E+005,  0.19044684765E+007,  0.16500000000E+002,  0.00000000000E+000,  0.10000000000E+001
  0.49831000000E+005,  0.18886268406E+007,  0.16500000000E+002,  0.00000000000E+000,  0.10000000000E+001
  0.49891000000E+005,  0.18732122715E+007,  0.16500000000E+002,  0.00000000000E+000,  0.10000000000E+001
  0.49951000000E+005,  0.18582028114E+007,  0.16500000000E+002,  0.00000000000E+000,  0.10000000000E+001
  0.50011000000E+005,  0.18435781454E+007,  0.16500000000E+002,  0.00000000000E+000,  0.10000000000E+001
  0.50071000000E+005,  0.18293194257E+007,  0.16500000000E+002,  0.00000000000E+000,  0.10000000000E+001
  0.50131000000E+005,  0.18154091877E+007,  0.16500000000E+002,  0.00000000000E+000,  0.10000000000E+001
  0.50191000000E+005,  0.18018311392E+007,  0.16500000000E+002,  0.00000000000E+000,  0.10000000000E+001
  0.50251000000E+005,  0.17885701338E+007,  0.16500000000E+002,  0.00000000000E+000,  0.10000000000E+001
  0.50311000000E+005,  0.17756120182E+007,  0.16500000000E+002,  0.00000000000E+000,  0.10000000000E+001
  0.50371000000E+005,  0.17629435696E+007,  0.16500000000E+002,  0.00000000000E+000,  0.10000000000E+001
  0.50431000000E+005,  0.17505524052E+007,  0.16500000000E+002,  0.00000000000E+000,  0.10000000000E+001
  0.50491000000E+005,  0.17384269351E+007,  0.16500000000E+002,  0.00000000000E+000,  0.10000000000E+001
  0.50551000000E+005,  0.17265562603E+007,  0.16500000000E+002,  0.00000000000E+000,  0.10000000000E+001
  0.50611000000E+005,  0.17149301610E+007,  0.16500000000E+002,  0.00000000000E+000,  0.10000000000E+001
  0.50671000000E+005,  0.17035390146E+007,  0.16500000000E+002,  0.00000000000E+000,  0.10000000000E+001
  0.50731000000E+005,  0.16923737583E+007,  0.16500000000E+002,  0.00000000000E+000,  0.10000000000E+001
  0.50791000000E+005,  0.16814258437E+007,  0.16500000000E+002,  0.00000000000E+000,  0.10000000000E+001
  0.50851000000E+005,  0.16706872154E+007,  0.16500000000E+002,  0.00000000000E+000,  0.10000000000E+001
  0.50911000000E+005,  0.16601502439E+007,  0.16500000000E+002,  0.00000000000E+000,  0.10000000000E+001
  0.50971000000E+005,  0.16498077293E+007,  0.16500000000E+002,  0.00000000000E+000,  0.10000000000E+001
  0.51031000000E+005,  0.16396528506E+007,  0.16500000000E+002,  0.00000000000E+000,  0.10000000000E+001
  0.51091000000E+005,  0.16296791517E+007,  0.16500000000E+002,  0.00000000000E+000,  0.10000000000E+001
  0.51151000000E+005,  0.16198805081E+007,  0.16500000000E+002,  0.00000000000E+000,  0.10000000000E+001
  0.51211000000E+005,  0.16102511065E+007,  0.16500000000E+002,  0.00000000000E+000,  0.10000000000E+001
  0.51271000000E+005,  0.16007854240E+007,  0.16500000000E+002,  0.00000000000E+000,  0.10000000000E+001
  0.51331000000E+005,  0.15914782059E+007,  0.16500000000E+002,  0.00000000000E+000,  0.10000000000E+001
  0.51391000000E+005,  0.15823244730E+007,  0.16500000000E+002,  0.00000000000E+000,  0.10000000000E+001
  0.51451000000E+005,  0.15733194684E+007,  0.16500000000E+002,  0.00000000000E+000,  0.10000000000E+001
  0.51511000000E+005,  0.15644586675E+007,  0.16500000000E+002,  0.00000000000E+000,  0.10000000000E+001
  0.51571000000E+005,  0.15557377535E+007,  0.16500000000E+002,  0.00000000000E+000,  0.10000000000E+001
  0.51631000000E+005,  0.15471526124E+007,  0.16500000000E+002,  0.00000000000E+000,  0.10000000000E+001
  0.51691000000E+005,  0.15386993159E+007,  0.16500000000E+002,  0.00000000000E+000,  0.10000000000E+001
  0.51751000000E+005,  0.15303741125E+007,  0.16500000000E+002,  0.00000000000E+000,  0.10000000000E+001
  0.51811000000E+005,  0.15221734127E+007,  0.16500000000E+002,  0.00000000000E+000,  0.10000000000E+001
  0.51871000000E+005,  0.15140937900E+007,  0.16500000000E+002,  0.00000000000E+000,  0.10000000000E+001
  0.51931000000E+005,  0.15061319575E+007,  0.16500000000E+002,  0.00000000000E+000,  0.10000000000E+001
  0.51991000000E+005,  0.14982847767E+007,  0.16500000000E+002,  0.00000000000E+000,  0.10000000000E+001
  0.52051000000E+005,  0.14905492358E+007,  0.16500000000E+002,  0.00000000000E+000,  0.10000000000E+001
  0.52111000000E+005,  0.14829224495E+007,  0.16500000000E+002,  0.00000000000E+000,  0.10000000000E+001
  0.52171000000E+005,  0.14754016477E+007,  0.16500000000E+002,  0.00000000000E+000,  0.10000000000E+001
  0.52231000000E+005,  0.14679841753E+007,  0.16500000000E+002,  0.00000000000E+000,  0.10000000000E+001
  0.52291000000E+005,  0.14606674805E+007,  0.16500000000E+002,  0.00000000000E+000,  0.10000000000E+001
  0.52351000000E+005,  0.14534491136E+007,  0.16500000000E+002,  0.00000000000E+000,  0.10000000000E+001
  0.52411000000E+005,  0.14463267187E+007,  0.16500000000E+002,  0.00000000000E+000,  0.10000000000E+001
  0.52471000000E+005,  0.14392980295E+007,  0.16500000000E+002,  0.00000000000E+000,  0.10000000000E+001
  0.52531000000E+005,  0.14323608674E+007,  0.16500000000E+002,  0.00000000000E+000,  0.10000000000E+001
  0.52591000000E+005,  0.14255131349E+007,  0.16500000000E+002,  0.00000000000E+000,  0.10000000000E+001
  0.52651000000E+005,  0.14187528114E+007,  0.16500000000E+002,  0.00000000000E+000,  0.10000000000E+001
  0.52711000000E+005,  0.14120779472E+007,  0.16500000000E+002,  0.00000000000E+000,  0.10000000000E+001
  0.52771000000E+005,  0.14054866650E+007,  0.16500000000E+002,  0.00000000000E+000,  0.10000000000E+001
  0.52831000000E+005,  0.13989771582E+007,  0.16500000000E+002,  0.00000000000E+000,  0.10000000000E+001
  0.52891000000E+005,  0.13925476769E+007,  0.16500000000E+002,  0.00000000000E+000,  0.10000000000E+001
  0.52951000000E+005,  0.13861965340E+007,  0.16500000000E+002,  0.00000000000E+000,  0.10000000000E+001
  0.53011000000E+005,  0.13799221015E+007,  0.16500000000E+002,  0.00000000000E+000,  0.10000000000E+001
  0.53071000000E+005,  0.13737228050E+007,  0.16500000000E+002,  0.00000000000E+000,  0.10000000000E+001
  0.53131000000E+005,  0.13675971235E+007,  0.16500000000E+002,  0.00000000000E+000,  0.10000000000E+001
  0.53191000000E+005,  0.13615435840E+007,  0.16500000000E+002,  0.00000000000E+000,  0.10000000000E+001
  0.53251000000E+005,  0.13555607643E+007,  0.16500000000E+002,  0.00000000000E+000,  0.10000000000E+001
  0.53311000000E+005,  0.13496472860E+007,  0.16500000000E+002,  0.00000000000E+000,  0.10000000000E+001
  0.53371000000E+005,  0.13438018136E+007,  0.16500000000E+002,  0.00000000000E+000,  0.10000000000E+001
  0.53431000000E+005,  0.13380230569E+007,  0.16500000000E+002,  0.00000000000E+000,  0.10000000000E+001
  0.53491000000E+005,  0.13323097612E+007,  0.16500000000E+002,  0.00000000000E+000,  0.10000000000E+001
  0.53551000000E+005,  0.13266607127E+007,  0.16500000000E+002,  0.00000000000E+000,  0.10000000000E+001
  0.53611000000E+005,  0.13210747330E+007,  0.16500000000E+002,  0.00000000000E+000,  0.10000000000E+001
  0.53671000000E+005,  0.13155506809E+007,  0.16500000000E+002,  0.00000000000E+000,  0.10000000000E+001
  0.53731000000E+005,  0.13100874462E+007,  0.16500000000E+002,  0.00000000000E+000,  0.10000000000E+001
  0.53791000000E+005,  0.13046839520E+007,  0.16500000000E+002,  0.00000000000E+000,  0.10000000000E+001
  0.53851000000E+005,  0.12993391521E+007,  0.16500000000E+002,  0.00000000000E+000,  0.10000000000E+001
  0.53911000000E+005,  0.12940520301E+007,  0.16500000000E+002,  0.00000000000E+000,  0.10000000000E+001
  0.53971000000E+005,  0.12888215993E+007,  0.16500000000E+002,  0.00000000000E+000,  0.10000000000E+001
  0.54031000000E+005,  0.12841819657E+007,  0.16500000000E+002,  0.00000000000E+000,  0.10000000000E+001
  0.54091000000E+005,  0.12796778329E+007,  0.16500000000E+002,  0.00000000000E+000,  0.10000000000E+001
  0.54151000000E+005,  0.12747787077E+007,  0.16500000000E+002,  0.00000000000E+000,  0.10000000000E+001
  0.54211000000E+005,  0.12698613235E+007,  0.16500000000E+002,  0.00000000000E+000,  0.10000000000E+001
  0.54271000000E+005,  0.12649690555E+007,  0.16500000000E+002,  0.00000000000E+000,  0.10000000000E+001
  0.54331000000E+005,  0.12601134306E+007,  0.16500000000E+002,  0.00000000000E+000,  0.10000000000E+001
  0.54391000000E+005,  0.12552989320E+007,  0.16500000000E+002,  0.00000000000E+000,  0.10000000000E+001
  0.54451000000E+005,  0.12505275836E+007,  0.16500000000E+002,  0.00000000000E+000,  0.10000000000E+001
  0.54511000000E+005,  0.12458003049E+007,  0.16500000000E+002,  0.00000000000E+000,  0.10000000000E+001
  0.54571000000E+005,  0.12411174423E+007,  0.16500000000E+002,  0.00000000000E+000,  0.10000000000E+001
  0.54631000000E+005,  0.12364790180E+007,  0.16500000000E+002,  0.00000000000E+000,  0.10000000000E+001
  0.54691000000E+005,  0.12318848576E+007,  0.16500000000E+002,  0.00000000000E+000,  0.10000000000E+001
  0.54751000000E+005,  0.12273346649E+007,  0.16500000000E+002,  0.00000000000E+000,  0.10000000000E+001
  0.54811000000E+005,  0.12228280640E+007,  0.16500000000E+002,  0.00000000000E+000,  0.10000000000E+001
  0.54871000000E+005,  0.12183646284E+007,  0.16500000000E+002,  0.00000000000E+000,  0.10000000000E+001
  0.54931000000E+005,  0.12139438976E+007,  0.16500000000E+002,  0.00000000000E+000,  0.10000000000E+001
  0.54991000000E+005,  0.12095653892E+007,  0.16500000000E+002,  0.00000000000E+000,  0.10000000000E+001
  0.55051000000E+005,  0.12052286064E+007,  0.16500000000E+002,  0.00000000000E+000,  0.10000000000E+001
  0.55111000000E+005,  0.12009330458E+007,  0.16500000000E+002,  0.00000000000E+000,  0.10000000000E+001
  0.55171000000E+005,  0.11966781994E+007,  0.16500000000E+002,  0.00000000000E+000,  0.10000000000E+001
  0.55231000000E+005,  0.11924635601E+007,  0.16500000000E+002,  0.00000000000E+000,  0.10000000000E+001
  0.55291000000E+005,  0.11882886202E+007,  0.16500000000E+002,  0.00000000000E+000,  0.10000000000E+001
  0.55351000000E+005,  0.11841528765E+007,  0.16500000000E+002,  0.00000000000E+000,  0.10000000000E+001
  0.55411000000E+005,  0.11800558298E+007,  0.16500000000E+002,  0.00000000000E+000,  0.10000000000E+001
  0.55471000000E+005,  0.11759969858E+007,  0.16500000000E+002,  0.00000000000E+000,  0.10000000000E+001
  0.55531000000E+005,  0.11719758572E+007,  0.16500000000E+002,  0.00000000000E+000,  0.10000000000E+001
  0.55591000000E+005,  0.11679919620E+007,  0.16500000000E+002,  0.00000000000E+000,  0.10000000000E+001
  0.55651000000E+005,  0.11640448246E+007,  0.16500000000E+002,  0.00000000000E+000,  0.10000000000E+001
  0.55711000000E+005,  0.11601339767E+007,  0.16500000000E+002,  0.00000000000E+000,  0.10000000000E+001
  0.55771000000E+005,  0.11562589575E+007,  0.16500000000E+002,  0.00000000000E+000,  0.10000000000E+001
  0.55831000000E+005,  0.11524193123E+007,  0.16500000000E+002,  0.00000000000E+000,  0.10000000000E+001
  0.55891000000E+005,  0.11486145961E+007,  0.16500000000E+002,  0.00000000000E+000,  0.10000000000E+001
  0.55951000000E+005,  0.11448443665E+007,  0.16500000000E+002,  0.00000000000E+000,  0.10000000000E+001
  0.56011000000E+005,  0.11411081931E+007,  0.16500000000E+002,  0.00000000000E+000,  0.10000000000E+001
  0.56071000000E+005,  0.11374056485E+007,  0.16500000000E+002,  0.00000000000E+000,  0.10000000000E+001
  0.56131000000E+005,  0.11337363142E+007,  0.16500000000E+002,  0.00000000000E+000,  0.10000000000E+001
  0.56191000000E+005,  0.11300997780E+007,  0.16500000000E+002,  0.00000000000E+000,  0.10000000000E+001
  0.56251000000E+005,  0.11264956351E+007,  0.16500000000E+002,  0.00000000000E+000,  0.10000000000E+001
  0.56311000000E+005,  0.11229234888E+007,  0.16500000000E+002,  0.00000000000E+000,  0.10000000000E+001
  0.56371000000E+005,  0.11193829457E+007,  0.16500000000E+002,  0.00000000000E+000,  0.10000000000E+001
  0.56431000000E+005,  0.11158736201E+007,  0.16500000000E+002,  0.00000000000E+000,  0.10000000000E+001
  0.56491000000E+005,  0.11123951332E+007,  0.16500000000E+002,  0.00000000000E+000,  0.10000000000E+001
  0.56551000000E+005,  0.11089471119E+007,  0.16500000000E+002,  0.00000000000E+000,  0.10000000000E+001
  0.56611000000E+005,  0.11055291895E+007,  0.16500000000E+002,  0.00000000000E+000,  0.10000000000E+001
  0.56671000000E+005,  0.11021410049E+007,  0.16500000000E+002,  0.00000000000E+000,  0.10000000000E+001
  0.56731000000E+005,  0.10987822038E+007,  0.16500000000E+002,  0.00000000000E+000,  0.10000000000E+001
  0.56791000000E+005,  0.10954524359E+007,  0.16500000000E+002,  0.00000000000E+000,  0.10000000000E+001
  0.56851000000E+005,  0.10921513578E+007,  0.16500000000E+002,  0.00000000000E+000,  0.10000000000E+001
  0.56911000000E+005,  0.10888786313E+007,  0.16500000000E+002,  0.00000000000E+000,  0.10000000000E+001
  0.56971000000E+005,  0.10856339239E+007,  0.16500000000E+002,  0.00000000000E+000,  0.10000000000E+001
  0.57031000000E+005,  0.10824169073E+007,  0.16500000000E+002,  0.00000000000E+000,  0.10000000000E+001
  0.57091000000E+005,  0.10792272589E+007,  0.16500000000E+002,  0.00000000000E+000,  0.10000000000E+001
  0.57151000000E+005,  0.10760646614E+007,  0.16500000000E+002,  0.00000000000E+000,  0.10000000000E+001
  0.57211000000E+005,  0.10729288022E+007,  0.16500000000E+002,  0.00000000000E+000,  0.10000000000E+001
  0.57271000000E+005,  0.10698193734E+007,  0.16500000000E+002,  0.00000000000E+000,  0.10000000000E+001
  0.57331000000E+005,  0.10667360705E+007,  0.16500000000E+002,  0.00000000000E+000,  0.10000000000E+001
  0.57391000000E+005,  0.10636785995E+007,  0.16500000000E+002,  0.00000000000E+000,  0.10000000000E+001
  0.57451000000E+005,  0.10606466626E+007,  0.16500000000E+002,  0.00000000000E+000,  0.10000000000E+001
  0.57511000000E+005,  0.10576399708E+007,  0.16500000000E+002,  0.00000000000E+000,  0.10000000000E+001
  0.57571000000E+005,  0.10546582405E+007,  0.16500000000E+002,  0.00000000000E+000,  0.10000000000E+001
  0.57631000000E+005,  0.10517011895E+007,  0.16500000000E+002,  0.00000000000E+000,  0.10000000000E+001
  0.57691000000E+005,  0.10487685415E+007,  0.16500000000E+002,  0.00000000000E+000,  0.10000000000E+001
  0.57751000000E+005,  0.10458600238E+007,  0.16500000000E+002,  0.00000000000E+000,  0.10000000000E+001
  0.57811000000E+005,  0.10429753678E+007,  0.16500000000E+002,  0.00000000000E+000,  0.10000000000E+001
  0.57871000000E+005,  0.10401143081E+007,  0.16500000000E+002,  0.00000000000E+000,  0.10000000000E+001
  0.57931000000E+005,  0.10372765864E+007,  0.16500000000E+002,  0.00000000000E+000,  0.10000000000E+001
  0.57991000000E+005,  0.10344619420E+007,  0.16500000000E+002,  0.00000000000E+000,  0.10000000000E+001
  0.58051000000E+005,  0.10316701254E+007,  0.16500000000E+002,  0.00000000000E+000,  0.10000000000E+001
  0.58111000000E+005,  0.10289008831E+007,  0.16500000000E+002,  0.00000000000E+000,  0.10000000000E+001
  0.58171000000E+005,  0.10261539721E+007,  0.16500000000E+002,  0.00000000000E+000,  0.10000000000E+001
  0.58231000000E+005,  0.10234291477E+007,  0.16500000000E+002,  0.00000000000E+000,  0.10000000000E+001
  0.58291000000E+005,  0.10207261709E+007,  0.16500000000E+002,  0.00000000000E+000,  0.10000000000E+001
  0.58351000000E+005,  0.10180448060E+007,  0.16500000000E+002,  0.00000000000E+000,  0.10000000000E+001
  0.58411000000E+005,  0.10153848186E+007,  0.16500000000E+002,  0.00000000000E+000,  0.10000000000E+001
  0.58471000000E+005,  0.10127459839E+007,  0.16500000000E+002,  0.00000000000E+000,  0.10000000000E+001
  0.58531000000E+005,  0.10101280716E+007,  0.16500000000E+002,  0.00000000000E+000,  0.10000000000E+001
  0.58591000000E+005,  0.10075308595E+007,  0.16500000000E+002,  0.00000000000E+000,  0.10000000000E+001
  0.58651000000E+005,  0.10049541270E+007,  0.16500000000E+002,  0.00000000000E+000,  0.10000000000E+001
  0.58711000000E+005,  0.10023976588E+007,  0.16500000000E+002,  0.00000000000E+000,  0.10000000000E+001
  0.58771000000E+005,  0.99986123922E+006,  0.16500000000E+002,  0.00000000000E+000,  0.10000000000E+001
