"           TIME(S)","              PRES","              TEMP","             SAT_G","             SAT_L"
  0.23620500000E+005,  0.82920959666E+006,  0.16500000000E+002,  0.00000000000E+000,  0.10000000000E+001
  0.23623000000E+005,  0.10997740340E+007,  0.16500000000E+002,  0.00000000000E+000,  0.10000000000E+001
  0.23628000000E+005,  0.15649483094E+007,  0.16500000000E+002,  0.00000000000E+000,  0.10000000000E+001
  0.23633000000E+005,  0.19870158607E+007,  0.16500000000E+002,  0.00000000000E+000,  0.10000000000E+001
  0.23638000000E+005,  0.23812263517E+007,  0.16500000000E+002,  0.00000000000E+000,  0.10000000000E+001
  0.23643000000E+005,  0.27316560593E+007,  0.16500000000E+002,  0.00000000000E+000,  0.10000000000E+001
  0.23648000000E+005,  0.25953041129E+007,  0.16500000000E+002,  0.00000000000E+000,  0.10000000000E+001
  0.23653000000E+005,  0.25130423879E+007,  0.16500000000E+002,  0.00000000000E+000,  0.10000000000E+001
  0.23658000000E+005,  0.24551797465E+007,  0.16500000000E+002,  0.00000000000E+000,  0.10000000000E+001
  0.23663000000E+005,  0.24117292422E+007,  0.16500000000E+002,  0.00000000000E+000,  0.10000000000E+001
  0.23668000000E+005,  0.23775043331E+007,  0.16500000000E+002,  0.00000000000E+000,  0.10000000000E+001
  0.23673000000E+005,  0.23495294169E+007,  0.16500000000E+002,  0.00000000000E+000,  0.10000000000E+001
  0.23678000000E+005,  0.23259902065E+007,  0.16500000000E+002,  0.00000000000E+000,  0.10000000000E+001
  0.23683000000E+005,  0.23057147280E+007,  0.16500000000E+002,  0.00000000000E+000,  0.10000000000E+001
  0.23688000000E+005,  0.22879060910E+007,  0.16500000000E+002,  0.00000000000E+000,  0.10000000000E+001
  0.23693000000E+005,  0.22719999243E+007,  0.16500000000E+002,  0.00000000000E+000,  0.10000000000E+001
  0.23698000000E+005,  0.22575843813E+007,  0.16500000000E+002,  0.00000000000E+000,  0.10000000000E+001
  0.23703000000E+005,  0.22443524679E+007,  0.16500000000E+002,  0.00000000000E+000,  0.10000000000E+001
  0.23708000000E+005,  0.22320718582E+007,  0.16500000000E+002,  0.00000000000E+000,  0.10000000000E+001
  0.23713000000E+005,  0.22205647492E+007,  0.16500000000E+002,  0.00000000000E+000,  0.10000000000E+001
  0.23718000000E+005,  0.22096938454E+007,  0.16500000000E+002,  0.00000000000E+000,  0.10000000000E+001
  0.23723000000E+005,  0.21993523134E+007,  0.16500000000E+002,  0.00000000000E+000,  0.10000000000E+001
  0.23728000000E+005,  0.21894564290E+007,  0.16500000000E+002,  0.00000000000E+000,  0.10000000000E+001
  0.23733000000E+005,  0.21799401190E+007,  0.16500000000E+002,  0.00000000000E+000,  0.10000000000E+001
  0.23738000000E+005,  0.21707508688E+007,  0.16500000000E+002,  0.00000000000E+000,  0.10000000000E+001
  0.23743000000E+005,  0.21618466321E+007,  0.16500000000E+002,  0.00000000000E+000,  0.10000000000E+001
  0.23748000000E+005,  0.21531934855E+007,  0.16500000000E+002,  0.00000000000E+000,  0.10000000000E+001
  0.23753000000E+005,  0.21447638386E+007,  0.16500000000E+002,  0.00000000000E+000,  0.10000000000E+001
  0.23758000000E+005,  0.21365350646E+007,  0.16500000000E+002,  0.00000000000E+000,  0.10000000000E+001
  0.23763000000E+005,  0.21284884470E+007,  0.16500000000E+002,  0.00000000000E+000,  0.10000000000E+001
  0.23768000000E+005,  0.21206083670E+007,  0.16500000000E+002,  0.00000000000E+000,  0.10000000000E+001
  0.23773000000E+005,  0.21128816743E+007,  0.16500000000E+002,  0.00000000000E+000,  0.10000000000E+001
  0.23778000000E+005,  0.21052971980E+007,  0.16500000000E+002,  0.00000000000E+000,  0.10000000000E+001
  0.23783000000E+005,  0.20978453644E+007,  0.16500000000E+002,  0.00000000000E+000,  0.10000000000E+001
  0.23788000000E+005,  0.20905178973E+007,  0.16500000000E+002,  0.00000000000E+000,  0.10000000000E+001
  0.23793000000E+005,  0.20833075821E+007,  0.16500000000E+002,  0.00000000000E+000,  0.10000000000E+001
  0.23798000000E+005,  0.20762080787E+007,  0.16500000000E+002,  0.00000000000E+000,  0.10000000000E+001
  0.23803000000E+005,  0.20692137731E+007,  0.16500000000E+002,  0.00000000000E+000,  0.10000000000E+001
  0.23808000000E+005,  0.20623196581E+007,  0.16500000000E+002,  0.00000000000E+000,  0.10000000000E+001
  0.23813000000E+005,  0.20555212378E+007,  0.16500000000E+002,  0.00000000000E+000,  0.10000000000E+001
  0.23818000000E+005,  0.20488144502E+007,  0.16500000000E+002,  0.00000000000E+000,  0.10000000000E+001
  0.23823000000E+005,  0.20421956039E+007,  0.16500000000E+002,  0.00000000000E+000,  0.10000000000E+001
  0.23828000000E+005,  0.20356613267E+007,  0.16500000000E+002,  0.00000000000E+000,  0.10000000000E+001
  0.23833000000E+005,  0.20292085231E+007,  0.16500000000E+002,  0.00000000000E+000,  0.10000000000E+001
  0.23838000000E+005,  0.20228343386E+007,  0.16500000000E+002,  0.00000000000E+000,  0.10000000000E+001
  0.23843000000E+005,  0.20165361308E+007,  0.16500000000E+002,  0.00000000000E+000,  0.10000000000E+001
  0.23848000000E+005,  0.20103114443E+007,  0.16500000000E+002,  0.00000000000E+000,  0.10000000000E+001
  0.23853000000E+005,  0.20041579899E+007,  0.16500000000E+002,  0.00000000000E+000,  0.10000000000E+001
  0.23858000000E+005,  0.19980736268E+007,  0.16500000000E+002,  0.00000000000E+000,  0.10000000000E+001
  0.23863000000E+005,  0.19920563473E+007,  0.16500000000E+002,  0.00000000000E+000,  0.10000000000E+001
  0.23868000000E+005,  0.19861042637E+007,  0.16500000000E+002,  0.00000000000E+000,  0.10000000000E+001
  0.23873000000E+005,  0.19802155972E+007,  0.16500000000E+002,  0.00000000000E+000,  0.10000000000E+001
  0.23878000000E+005,  0.19743886676E+007,  0.16500000000E+002,  0.00000000000E+000,  0.10000000000E+001
  0.23883000000E+005,  0.19686218851E+007,  0.16500000000E+002,  0.00000000000E+000,  0.10000000000E+001
  0.23888000000E+005,  0.19629137422E+007,  0.16500000000E+002,  0.00000000000E+000,  0.10000000000E+001
  0.23893000000E+005,  0.19572628074E+007,  0.16500000000E+002,  0.00000000000E+000,  0.10000000000E+001
  0.23898000000E+005,  0.19516677191E+007,  0.16500000000E+002,  0.00000000000E+000,  0.10000000000E+001
  0.23903000000E+005,  0.19461271802E+007,  0.16500000000E+002,  0.00000000000E+000,  0.10000000000E+001
  0.23908000000E+005,  0.19406399534E+007,  0.16500000000E+002,  0.00000000000E+000,  0.10000000000E+001
  0.23913000000E+005,  0.19352048568E+007,  0.16500000000E+002,  0.00000000000E+000,  0.10000000000E+001
  0.23918000000E+005,  0.19298207604E+007,  0.16500000000E+002,  0.00000000000E+000,  0.10000000000E+001
  0.23923000000E+005,  0.19244865821E+007,  0.16500000000E+002,  0.00000000000E+000,  0.10000000000E+001
  0.23928000000E+005,  0.19192012849E+007,  0.16500000000E+002,  0.00000000000E+000,  0.10000000000E+001
  0.23933000000E+005,  0.19139638739E+007,  0.16500000000E+002,  0.00000000000E+000,  0.10000000000E+001
  0.23938000000E+005,  0.19087733937E+007,  0.16500000000E+002,  0.00000000000E+000,  0.10000000000E+001
  0.23943000000E+005,  0.19036289259E+007,  0.16500000000E+002,  0.00000000000E+000,  0.10000000000E+001
  0.23948000000E+005,  0.18985295869E+007,  0.16500000000E+002,  0.00000000000E+000,  0.10000000000E+001
  0.23953000000E+005,  0.18934745262E+007,  0.16500000000E+002,  0.00000000000E+000,  0.10000000000E+001
  0.23958000000E+005,  0.18884629238E+007,  0.16500000000E+002,  0.00000000000E+000,  0.10000000000E+001
  0.23963000000E+005,  0.18834939893E+007,  0.16500000000E+002,  0.00000000000E+000,  0.10000000000E+001
  0.23968000000E+005,  0.18785669599E+007,  0.16500000000E+002,  0.00000000000E+000,  0.10000000000E+001
  0.23973000000E+005,  0.18736810987E+007,  0.16500000000E+002,  0.00000000000E+000,  0.10000000000E+001
  0.23978000000E+005,  0.18688356938E+007,  0.16500000000E+002,  0.00000000000E+000,  0.10000000000E+001
  0.23983000000E+005,  0.18640300567E+007,  0.16500000000E+002,  0.00000000000E+000,  0.10000000000E+001
  0.23988000000E+005,  0.18592635213E+007,  0.16500000000E+002,  0.00000000000E+000,  0.10000000000E+001
  0.23993000000E+005,  0.18545354426E+007,  0.16500000000E+002,  0.00000000000E+000,  0.10000000000E+001
  0.23998000000E+005,  0.18498451958E+007,  0.16500000000E+002,  0.00000000000E+000,  0.10000000000E+001
  0.24003000000E+005,  0.18451921754E+007,  0.16500000000E+002,  0.00000000000E+000,  0.10000000000E+001
  0.24008000000E+005,  0.18405757941E+007,  0.16500000000E+002,  0.00000000000E+000,  0.10000000000E+001
  0.24013000000E+005,  0.18359954820E+007,  0.16500000000E+002,  0.00000000000E+000,  0.10000000000E+001
  0.24018000000E+005,  0.18314506861E+007,  0.16500000000E+002,  0.00000000000E+000,  0.10000000000E+001
  0.24023000000E+005,  0.18269408689E+007,  0.16500000000E+002,  0.00000000000E+000,  0.10000000000E+001
  0.24028000000E+005,  0.18224655084E+007,  0.16500000000E+002,  0.00000000000E+000,  0.10000000000E+001
  0.24033000000E+005,  0.18180240972E+007,  0.16500000000E+002,  0.00000000000E+000,  0.10000000000E+001
  0.24038000000E+005,  0.18136161417E+007,  0.16500000000E+002,  0.00000000000E+000,  0.10000000000E+001
  0.24043000000E+005,  0.18092411615E+007,  0.16500000000E+002,  0.00000000000E+000,  0.10000000000E+001
  0.24048000000E+005,  0.18048986891E+007,  0.16500000000E+002,  0.00000000000E+000,  0.10000000000E+001
  0.24053000000E+005,  0.18005882695E+007,  0.16500000000E+002,  0.00000000000E+000,  0.10000000000E+001
  0.24058000000E+005,  0.17963094590E+007,  0.16500000000E+002,  0.00000000000E+000,  0.10000000000E+001
  0.24063000000E+005,  0.17920618256E+007,  0.16500000000E+002,  0.00000000000E+000,  0.10000000000E+001
  0.24068000000E+005,  0.17878449478E+007,  0.16500000000E+002,  0.00000000000E+000,  0.10000000000E+001
  0.24073000000E+005,  0.17836584148E+007,  0.16500000000E+002,  0.00000000000E+000,  0.10000000000E+001
  0.24078000000E+005,  0.17795018257E+007,  0.16500000000E+002,  0.00000000000E+000,  0.10000000000E+001
  0.24083000000E+005,  0.17753747893E+007,  0.16500000000E+002,  0.00000000000E+000,  0.10000000000E+001
  0.24088000000E+005,  0.17712769237E+007,  0.16500000000E+002,  0.00000000000E+000,  0.10000000000E+001
  0.24093000000E+005,  0.17672078558E+007,  0.16500000000E+002,  0.00000000000E+000,  0.10000000000E+001
  0.24098000000E+005,  0.17631672212E+007,  0.16500000000E+002,  0.00000000000E+000,  0.10000000000E+001
  0.24103000000E+005,  0.17591546640E+007,  0.16500000000E+002,  0.00000000000E+000,  0.10000000000E+001
  0.24108000000E+005,  0.17551698361E+007,  0.16500000000E+002,  0.00000000000E+000,  0.10000000000E+001
  0.24113000000E+005,  0.17512123972E+007,  0.16500000000E+002,  0.00000000000E+000,  0.10000000000E+001
  0.24118000000E+005,  0.17472820145E+007,  0.16500000000E+002,  0.00000000000E+000,  0.10000000000E+001
  0.24123000000E+005,  0.17433783623E+007,  0.16500000000E+002,  0.00000000000E+000,  0.10000000000E+001
  0.24128000000E+005,  0.17395011221E+007,  0.16500000000E+002,  0.00000000000E+000,  0.10000000000E+001
  0.24133000000E+005,  0.17356499819E+007,  0.16500000000E+002,  0.00000000000E+000,  0.10000000000E+001
  0.24138000000E+005,  0.17318246364E+007,  0.16500000000E+002,  0.00000000000E+000,  0.10000000000E+001
  0.24143000000E+005,  0.17280247864E+007,  0.16500000000E+002,  0.00000000000E+000,  0.10000000000E+001
  0.24148000000E+005,  0.17242501390E+007,  0.16500000000E+002,  0.00000000000E+000,  0.10000000000E+001
  0.24153000000E+005,  0.17205004072E+007,  0.16500000000E+002,  0.00000000000E+000,  0.10000000000E+001
  0.24158000000E+005,  0.17167753096E+007,  0.16500000000E+002,  0.00000000000E+000,  0.10000000000E+001
  0.24163000000E+005,  0.17130745703E+007,  0.16500000000E+002,  0.00000000000E+000,  0.10000000000E+001
  0.24168000000E+005,  0.17093979190E+007,  0.16500000000E+002,  0.00000000000E+000,  0.10000000000E+001
  0.24173000000E+005,  0.17057450905E+007,  0.16500000000E+002,  0.00000000000E+000,  0.10000000000E+001
  0.24178000000E+005,  0.17021158245E+007,  0.16500000000E+002,  0.00000000000E+000,  0.10000000000E+001
  0.24183000000E+005,  0.16985098658E+007,  0.16500000000E+002,  0.00000000000E+000,  0.10000000000E+001
  0.24188000000E+005,  0.16949269639E+007,  0.16500000000E+002,  0.00000000000E+000,  0.10000000000E+001
  0.24193000000E+005,  0.16913668729E+007,  0.16500000000E+002,  0.00000000000E+000,  0.10000000000E+001
  0.24198000000E+005,  0.16878293514E+007,  0.16500000000E+002,  0.00000000000E+000,  0.10000000000E+001
  0.24203000000E+005,  0.16843141623E+007,  0.16500000000E+002,  0.00000000000E+000,  0.10000000000E+001
  0.24208000000E+005,  0.16808210728E+007,  0.16500000000E+002,  0.00000000000E+000,  0.10000000000E+001
  0.24213000000E+005,  0.16773498543E+007,  0.16500000000E+002,  0.00000000000E+000,  0.10000000000E+001
  0.24218000000E+005,  0.16739002819E+007,  0.16500000000E+002,  0.00000000000E+000,  0.10000000000E+001
  0.24223000000E+005,  0.16704721349E+007,  0.16500000000E+002,  0.00000000000E+000,  0.10000000000E+001
  0.24228000000E+005,  0.16670651962E+007,  0.16500000000E+002,  0.00000000000E+000,  0.10000000000E+001
  0.24233000000E+005,  0.16636792526E+007,  0.16500000000E+002,  0.00000000000E+000,  0.10000000000E+001
  0.24238000000E+005,  0.16603140942E+007,  0.16500000000E+002,  0.00000000000E+000,  0.10000000000E+001
  0.24243000000E+005,  0.16569695147E+007,  0.16500000000E+002,  0.00000000000E+000,  0.10000000000E+001
  0.24248000000E+005,  0.16536453114E+007,  0.16500000000E+002,  0.00000000000E+000,  0.10000000000E+001
  0.24253000000E+005,  0.16503412846E+007,  0.16500000000E+002,  0.00000000000E+000,  0.10000000000E+001
  0.24258000000E+005,  0.16470572380E+007,  0.16500000000E+002,  0.00000000000E+000,  0.10000000000E+001
  0.24263000000E+005,  0.16437929784E+007,  0.16500000000E+002,  0.00000000000E+000,  0.10000000000E+001
  0.24268000000E+005,  0.16405483157E+007,  0.16500000000E+002,  0.00000000000E+000,  0.10000000000E+001
  0.24273000000E+005,  0.16373230628E+007,  0.16500000000E+002,  0.00000000000E+000,  0.10000000000E+001
  0.24278000000E+005,  0.16341170355E+007,  0.16500000000E+002,  0.00000000000E+000,  0.10000000000E+001
  0.24283000000E+005,  0.16309300523E+007,  0.16500000000E+002,  0.00000000000E+000,  0.10000000000E+001
  0.24288000000E+005,  0.16277619348E+007,  0.16500000000E+002,  0.00000000000E+000,  0.10000000000E+001
  0.24293000000E+005,  0.16246125070E+007,  0.16500000000E+002,  0.00000000000E+000,  0.10000000000E+001
  0.24298000000E+005,  0.16214815957E+007,  0.16500000000E+002,  0.00000000000E+000,  0.10000000000E+001
  0.24303000000E+005,  0.16183690303E+007,  0.16500000000E+002,  0.00000000000E+000,  0.10000000000E+001
  0.24308000000E+005,  0.16152746426E+007,  0.16500000000E+002,  0.00000000000E+000,  0.10000000000E+001
  0.24313000000E+005,  0.16121982670E+007,  0.16500000000E+002,  0.00000000000E+000,  0.10000000000E+001
  0.24318000000E+005,  0.16091397402E+007,  0.16500000000E+002,  0.00000000000E+000,  0.10000000000E+001
  0.24323000000E+005,  0.16060989013E+007,  0.16500000000E+002,  0.00000000000E+000,  0.10000000000E+001
  0.24328000000E+005,  0.16030755918E+007,  0.16500000000E+002,  0.00000000000E+000,  0.10000000000E+001
  0.24333000000E+005,  0.16000696553E+007,  0.16500000000E+002,  0.00000000000E+000,  0.10000000000E+001
  0.24338000000E+005,  0.15970809376E+007,  0.16500000000E+002,  0.00000000000E+000,  0.10000000000E+001
  0.24343000000E+005,  0.15941092869E+007,  0.16500000000E+002,  0.00000000000E+000,  0.10000000000E+001
  0.24348000000E+005,  0.15911545531E+007,  0.16500000000E+002,  0.00000000000E+000,  0.10000000000E+001
  0.24353000000E+005,  0.15882165886E+007,  0.16500000000E+002,  0.00000000000E+000,  0.10000000000E+001
  0.24358000000E+005,  0.15852952475E+007,  0.16500000000E+002,  0.00000000000E+000,  0.10000000000E+001
  0.24363000000E+005,  0.15823903859E+007,  0.16500000000E+002,  0.00000000000E+000,  0.10000000000E+001
  0.24368000000E+005,  0.15795018620E+007,  0.16500000000E+002,  0.00000000000E+000,  0.10000000000E+001
  0.24373000000E+005,  0.15766295359E+007,  0.16500000000E+002,  0.00000000000E+000,  0.10000000000E+001
  0.24378000000E+005,  0.15737732693E+007,  0.16500000000E+002,  0.00000000000E+000,  0.10000000000E+001
  0.24383000000E+005,  0.15709329259E+007,  0.16500000000E+002,  0.00000000000E+000,  0.10000000000E+001
  0.24388000000E+005,  0.15681083712E+007,  0.16500000000E+002,  0.00000000000E+000,  0.10000000000E+001
  0.24393000000E+005,  0.15652994725E+007,  0.16500000000E+002,  0.00000000000E+000,  0.10000000000E+001
  0.24398000000E+005,  0.15625060985E+007,  0.16500000000E+002,  0.00000000000E+000,  0.10000000000E+001
  0.24403000000E+005,  0.15597281200E+007,  0.16500000000E+002,  0.00000000000E+000,  0.10000000000E+001
  0.24408000000E+005,  0.15569654091E+007,  0.16500000000E+002,  0.00000000000E+000,  0.10000000000E+001
  0.24413000000E+005,  0.15542178396E+007,  0.16500000000E+002,  0.00000000000E+000,  0.10000000000E+001
  0.24418000000E+005,  0.15514852871E+007,  0.16500000000E+002,  0.00000000000E+000,  0.10000000000E+001
  0.24423000000E+005,  0.15487676285E+007,  0.16500000000E+002,  0.00000000000E+000,  0.10000000000E+001
  0.24428000000E+005,  0.15460647423E+007,  0.16500000000E+002,  0.00000000000E+000,  0.10000000000E+001
  0.24433000000E+005,  0.15433765084E+007,  0.16500000000E+002,  0.00000000000E+000,  0.10000000000E+001
  0.24438000000E+005,  0.15407028084E+007,  0.16500000000E+002,  0.00000000000E+000,  0.10000000000E+001
  0.24443000000E+005,  0.15380435251E+007,  0.16500000000E+002,  0.00000000000E+000,  0.10000000000E+001
  0.24448000000E+005,  0.15353985429E+007,  0.16500000000E+002,  0.00000000000E+000,  0.10000000000E+001
  0.24453000000E+005,  0.15327677474E+007,  0.16500000000E+002,  0.00000000000E+000,  0.10000000000E+001
  0.24458000000E+005,  0.15301510257E+007,  0.16500000000E+002,  0.00000000000E+000,  0.10000000000E+001
  0.24463000000E+005,  0.15275482661E+007,  0.16500000000E+002,  0.00000000000E+000,  0.10000000000E+001
  0.24468000000E+005,  0.15249593584E+007,  0.16500000000E+002,  0.00000000000E+000,  0.10000000000E+001
  0.24473000000E+005,  0.15223841936E+007,  0.16500000000E+002,  0.00000000000E+000,  0.10000000000E+001
  0.24478000000E+005,  0.15198226639E+007,  0.16500000000E+002,  0.00000000000E+000,  0.10000000000E+001
  0.24483000000E+005,  0.15172746629E+007,  0.16500000000E+002,  0.00000000000E+000,  0.10000000000E+001
  0.24488000000E+005,  0.15147400852E+007,  0.16500000000E+002,  0.00000000000E+000,  0.10000000000E+001
  0.24493000000E+005,  0.15122188268E+007,  0.16500000000E+002,  0.00000000000E+000,  0.10000000000E+001
  0.24498000000E+005,  0.15097107848E+007,  0.16500000000E+002,  0.00000000000E+000,  0.10000000000E+001
  0.24503000000E+005,  0.15072158574E+007,  0.16500000000E+002,  0.00000000000E+000,  0.10000000000E+001
  0.24508000000E+005,  0.15047339442E+007,  0.16500000000E+002,  0.00000000000E+000,  0.10000000000E+001
  0.24513000000E+005,  0.15022649456E+007,  0.16500000000E+002,  0.00000000000E+000,  0.10000000000E+001
  0.24518000000E+005,  0.14998087632E+007,  0.16500000000E+002,  0.00000000000E+000,  0.10000000000E+001
  0.24520000000E+005,  0.14988282929E+007,  0.16500000000E+002,  0.00000000000E+000,  0.10000000000E+001
