"           TIME(S)","              PRES","              TEMP","             SAT_G","             SAT_L"
  0.47581000000E+005,  0.60388186698E+007,  0.16500000000E+002,  0.00000000000E+000,  0.10000000000E+001
  0.47586000000E+005,  0.52434650204E+007,  0.16500000000E+002,  0.00000000000E+000,  0.10000000000E+001
  0.47611000000E+005,  0.43763198364E+007,  0.16500000000E+002,  0.00000000000E+000,  0.10000000000E+001
  0.47671000000E+005,  0.37883708162E+007,  0.16500000000E+002,  0.00000000000E+000,  0.10000000000E+001
  0.47731000000E+005,  0.34884418267E+007,  0.16500000000E+002,  0.00000000000E+000,  0.10000000000E+001
  0.47791000000E+005,  0.32894785293E+007,  0.16500000000E+002,  0.00000000000E+000,  0.10000000000E+001
  0.47851000000E+005,  0.31405739959E+007,  0.16500000000E+002,  0.00000000000E+000,  0.10000000000E+001
  0.47911000000E+005,  0.30215559197E+007,  0.16500000000E+002,  0.00000000000E+000,  0.10000000000E+001
  0.47971000000E+005,  0.29224066432E+007,  0.16500000000E+002,  0.00000000000E+000,  0.10000000000E+001
  0.48031000000E+005,  0.28369007751E+007,  0.16500000000E+002,  0.00000000000E+000,  0.10000000000E+001
  0.48091000000E+005,  0.27619331728E+007,  0.16500000000E+002,  0.00000000000E+000,  0.10000000000E+001
  0.48151000000E+005,  0.26956621141E+007,  0.16500000000E+002,  0.00000000000E+000,  0.10000000000E+001
  0.48211000000E+005,  0.26360688499E+007,  0.16500000000E+002,  0.00000000000E+000,  0.10000000000E+001
  0.48271000000E+005,  0.25819140650E+007,  0.16500000000E+002,  0.00000000000E+000,  0.10000000000E+001
  0.48331000000E+005,  0.25322887905E+007,  0.16500000000E+002,  0.00000000000E+000,  0.10000000000E+001
  0.48391000000E+005,  0.24864976321E+007,  0.16500000000E+002,  0.00000000000E+000,  0.10000000000E+001
  0.48451000000E+005,  0.24439949602E+007,  0.16500000000E+002,  0.00000000000E+000,  0.10000000000E+001
  0.48511000000E+005,  0.24043441880E+007,  0.16500000000E+002,  0.00000000000E+000,  0.10000000000E+001
  0.48571000000E+005,  0.23671904132E+007,  0.16500000000E+002,  0.00000000000E+000,  0.10000000000E+001
  0.48631000000E+005,  0.23322410374E+007,  0.16500000000E+002,  0.00000000000E+000,  0.10000000000E+001
  0.48691000000E+005,  0.22992520544E+007,  0.16500000000E+002,  0.00000000000E+000,  0.10000000000E+001
  0.48751000000E+005,  0.22680178017E+007,  0.16500000000E+002,  0.00000000000E+000,  0.10000000000E+001
  0.48811000000E+005,  0.22383633017E+007,  0.16500000000E+002,  0.00000000000E+000,  0.10000000000E+001
  0.48871000000E+005,  0.22101384965E+007,  0.16500000000E+002,  0.00000000000E+000,  0.10000000000E+001
  0.48931000000E+005,  0.21832136915E+007,  0.16500000000E+002,  0.00000000000E+000,  0.10000000000E+001
  0.48991000000E+005,  0.21574760956E+007,  0.16500000000E+002,  0.00000000000E+000,  0.10000000000E+001
  0.49051000000E+005,  0.21328269004E+007,  0.16500000000E+002,  0.00000000000E+000,  0.10000000000E+001
  0.49111000000E+005,  0.21091791901E+007,  0.16500000000E+002,  0.00000000000E+000,  0.10000000000E+001
  0.49171000000E+005,  0.20864559993E+007,  0.16500000000E+002,  0.00000000000E+000,  0.10000000000E+001
  0.49231000000E+005,  0.20645889399E+007,  0.16500000000E+002,  0.00000000000E+000,  0.10000000000E+001
  0.49291000000E+005,  0.20435168738E+007,  0.16500000000E+002,  0.00000000000E+000,  0.10000000000E+001
  0.49351000000E+005,  0.20231850306E+007,  0.16500000000E+002,  0.00000000000E+000,  0.10000000000E+001
  0.49411000000E+005,  0.20035440678E+007,  0.16500000000E+002,  0.00000000000E+000,  0.10000000000E+001
  0.49471000000E+005,  0.19845494224E+007,  0.16500000000E+002,  0.00000000000E+000,  0.10000000000E+001
  0.49531000000E+005,  0.19661606698E+007,  0.16500000000E+002,  0.00000000000E+000,  0.10000000000E+001
  0.49591000000E+005,  0.19483410790E+007,  0.16500000000E+002,  0.00000000000E+000,  0.10000000000E+001
  0.49651000000E+005,  0.19310571341E+007,  0.16500000000E+002,  0.00000000000E+000,  0.10000000000E+001
  0.49711000000E+005,  0.19142781881E+007,  0.16500000000E+002,  0.00000000000E+000,  0.10000000000E+001
  0.49771000000E+005,  0.18979761443E+007,  0.16500000000E+002,  0.00000000000E+000,  0.10000000000E+001
  0.49831000000E+005,  0.18821251780E+007,  0.16500000000E+002,  0.00000000000E+000,  0.10000000000E+001
  0.49891000000E+005,  0.18667014851E+007,  0.16500000000E+002,  0.00000000000E+000,  0.10000000000E+001
  0.49951000000E+005,  0.18516831038E+007,  0.16500000000E+002,  0.00000000000E+000,  0.10000000000E+001
  0.50011000000E+005,  0.18370497123E+007,  0.16500000000E+002,  0.00000000000E+000,  0.10000000000E+001
  0.50071000000E+005,  0.18227824655E+007,  0.16500000000E+002,  0.00000000000E+000,  0.10000000000E+001
  0.50131000000E+005,  0.18088638784E+007,  0.16500000000E+002,  0.00000000000E+000,  0.10000000000E+001
  0.50191000000E+005,  0.17952776719E+007,  0.16500000000E+002,  0.00000000000E+000,  0.10000000000E+001
  0.50251000000E+005,  0.17820086849E+007,  0.16500000000E+002,  0.00000000000E+000,  0.10000000000E+001
  0.50311000000E+005,  0.17690427639E+007,  0.16500000000E+002,  0.00000000000E+000,  0.10000000000E+001
  0.50371000000E+005,  0.17563666823E+007,  0.16500000000E+002,  0.00000000000E+000,  0.10000000000E+001
  0.50431000000E+005,  0.17439680597E+007,  0.16500000000E+002,  0.00000000000E+000,  0.10000000000E+001
  0.50491000000E+005,  0.17318352949E+007,  0.16500000000E+002,  0.00000000000E+000,  0.10000000000E+001
  0.50551000000E+005,  0.17199574935E+007,  0.16500000000E+002,  0.00000000000E+000,  0.10000000000E+001
  0.50611000000E+005,  0.17083244321E+007,  0.16500000000E+002,  0.00000000000E+000,  0.10000000000E+001
  0.50671000000E+005,  0.16969264810E+007,  0.16500000000E+002,  0.00000000000E+000,  0.10000000000E+001
  0.50731000000E+005,  0.16857545775E+007,  0.16500000000E+002,  0.00000000000E+000,  0.10000000000E+001
  0.50791000000E+005,  0.16748001728E+007,  0.16500000000E+002,  0.00000000000E+000,  0.10000000000E+001
  0.50851000000E+005,  0.16640552057E+007,  0.16500000000E+002,  0.00000000000E+000,  0.10000000000E+001
  0.50911000000E+005,  0.16535120497E+007,  0.16500000000E+002,  0.00000000000E+000,  0.10000000000E+001
  0.50971000000E+005,  0.16431635000E+007,  0.16500000000E+002,  0.00000000000E+000,  0.10000000000E+001
  0.51031000000E+005,  0.16330027381E+007,  0.16500000000E+002,  0.00000000000E+000,  0.10000000000E+001
  0.51091000000E+005,  0.16230232987E+007,  0.16500000000E+002,  0.00000000000E+000,  0.10000000000E+001
  0.51151000000E+005,  0.16132190550E+007,  0.16500000000E+002,  0.00000000000E+000,  0.10000000000E+001
  0.51211000000E+005,  0.16035841991E+007,  0.16500000000E+002,  0.00000000000E+000,  0.10000000000E+001
  0.51271000000E+005,  0.15941132052E+007,  0.16500000000E+002,  0.00000000000E+000,  0.10000000000E+001
  0.51331000000E+005,  0.15848008121E+007,  0.16500000000E+002,  0.00000000000E+000,  0.10000000000E+001
  0.51391000000E+005,  0.15756420390E+007,  0.16500000000E+002,  0.00000000000E+000,  0.10000000000E+001
  0.51451000000E+005,  0.15666321346E+007,  0.16500000000E+002,  0.00000000000E+000,  0.10000000000E+001
  0.51511000000E+005,  0.15577665664E+007,  0.16500000000E+002,  0.00000000000E+000,  0.10000000000E+001
  0.51571000000E+005,  0.15490410157E+007,  0.16500000000E+002,  0.00000000000E+000,  0.10000000000E+001
  0.51631000000E+005,  0.15404513673E+007,  0.16500000000E+002,  0.00000000000E+000,  0.10000000000E+001
  0.51691000000E+005,  0.15319936921E+007,  0.16500000000E+002,  0.00000000000E+000,  0.10000000000E+001
  0.51751000000E+005,  0.15236642383E+007,  0.16500000000E+002,  0.00000000000E+000,  0.10000000000E+001
  0.51811000000E+005,  0.15154594106E+007,  0.16500000000E+002,  0.00000000000E+000,  0.10000000000E+001
  0.51871000000E+005,  0.15073757820E+007,  0.16500000000E+002,  0.00000000000E+000,  0.10000000000E+001
  0.51931000000E+005,  0.14994100652E+007,  0.16500000000E+002,  0.00000000000E+000,  0.10000000000E+001
  0.51991000000E+005,  0.14915591179E+007,  0.16500000000E+002,  0.00000000000E+000,  0.10000000000E+001
  0.52051000000E+005,  0.14838199276E+007,  0.16500000000E+002,  0.00000000000E+000,  0.10000000000E+001
  0.52111000000E+005,  0.14761896068E+007,  0.16500000000E+002,  0.00000000000E+000,  0.10000000000E+001
  0.52171000000E+005,  0.14686653830E+007,  0.16500000000E+002,  0.00000000000E+000,  0.10000000000E+001
  0.52231000000E+005,  0.14612445993E+007,  0.16500000000E+002,  0.00000000000E+000,  0.10000000000E+001
  0.52291000000E+005,  0.14539247035E+007,  0.16500000000E+002,  0.00000000000E+000,  0.10000000000E+001
  0.52351000000E+005,  0.14467032414E+007,  0.16500000000E+002,  0.00000000000E+000,  0.10000000000E+001
  0.52411000000E+005,  0.14395778572E+007,  0.16500000000E+002,  0.00000000000E+000,  0.10000000000E+001
  0.52471000000E+005,  0.14325462811E+007,  0.16500000000E+002,  0.00000000000E+000,  0.10000000000E+001
  0.52531000000E+005,  0.14256063333E+007,  0.16500000000E+002,  0.00000000000E+000,  0.10000000000E+001
  0.52591000000E+005,  0.14187559145E+007,  0.16500000000E+002,  0.00000000000E+000,  0.10000000000E+001
  0.52651000000E+005,  0.14119930022E+007,  0.16500000000E+002,  0.00000000000E+000,  0.10000000000E+001
  0.52711000000E+005,  0.14053156443E+007,  0.16500000000E+002,  0.00000000000E+000,  0.10000000000E+001
  0.52771000000E+005,  0.13987219607E+007,  0.16500000000E+002,  0.00000000000E+000,  0.10000000000E+001
  0.52831000000E+005,  0.13922101451E+007,  0.16500000000E+002,  0.00000000000E+000,  0.10000000000E+001
  0.52891000000E+005,  0.13857784442E+007,  0.16500000000E+002,  0.00000000000E+000,  0.10000000000E+001
  0.52951000000E+005,  0.13794251688E+007,  0.16500000000E+002,  0.00000000000E+000,  0.10000000000E+001
  0.53011000000E+005,  0.13731486897E+007,  0.16500000000E+002,  0.00000000000E+000,  0.10000000000E+001
  0.53071000000E+005,  0.13669474311E+007,  0.16500000000E+002,  0.00000000000E+000,  0.10000000000E+001
  0.53131000000E+005,  0.13608198688E+007,  0.16500000000E+002,  0.00000000000E+000,  0.10000000000E+001
  0.53191000000E+005,  0.13547645280E+007,  0.16500000000E+002,  0.00000000000E+000,  0.10000000000E+001
  0.53251000000E+005,  0.13487799852E+007,  0.16500000000E+002,  0.00000000000E+000,  0.10000000000E+001
  0.53311000000E+005,  0.13428648600E+007,  0.16500000000E+002,  0.00000000000E+000,  0.10000000000E+001
  0.53371000000E+005,  0.13370178153E+007,  0.16500000000E+002,  0.00000000000E+000,  0.10000000000E+001
  0.53431000000E+005,  0.13312375596E+007,  0.16500000000E+002,  0.00000000000E+000,  0.10000000000E+001
  0.53491000000E+005,  0.13255228356E+007,  0.16500000000E+002,  0.00000000000E+000,  0.10000000000E+001
  0.53551000000E+005,  0.13198724296E+007,  0.16500000000E+002,  0.00000000000E+000,  0.10000000000E+001
  0.53611000000E+005,  0.13142851570E+007,  0.16500000000E+002,  0.00000000000E+000,  0.10000000000E+001
  0.53671000000E+005,  0.13087598797E+007,  0.16500000000E+002,  0.00000000000E+000,  0.10000000000E+001
  0.53731000000E+005,  0.13032954828E+007,  0.16500000000E+002,  0.00000000000E+000,  0.10000000000E+001
  0.53791000000E+005,  0.12978908893E+007,  0.16500000000E+002,  0.00000000000E+000,  0.10000000000E+001
  0.53851000000E+005,  0.12925450517E+007,  0.16500000000E+002,  0.00000000000E+000,  0.10000000000E+001
  0.53911000000E+005,  0.12872569507E+007,  0.16500000000E+002,  0.00000000000E+000,  0.10000000000E+001
  0.53971000000E+005,  0.12820255985E+007,  0.16500000000E+002,  0.00000000000E+000,  0.10000000000E+001
  0.54031000000E+005,  0.12773920074E+007,  0.16500000000E+002,  0.00000000000E+000,  0.10000000000E+001
  0.54091000000E+005,  0.12728935560E+007,  0.16500000000E+002,  0.00000000000E+000,  0.10000000000E+001
  0.54151000000E+005,  0.12679936358E+007,  0.16500000000E+002,  0.00000000000E+000,  0.10000000000E+001
  0.54211000000E+005,  0.12630754564E+007,  0.16500000000E+002,  0.00000000000E+000,  0.10000000000E+001
  0.54271000000E+005,  0.12581824928E+007,  0.16500000000E+002,  0.00000000000E+000,  0.10000000000E+001
  0.54331000000E+005,  0.12533262413E+007,  0.16500000000E+002,  0.00000000000E+000,  0.10000000000E+001
  0.54391000000E+005,  0.12485111723E+007,  0.16500000000E+002,  0.00000000000E+000,  0.10000000000E+001
  0.54451000000E+005,  0.12437393050E+007,  0.16500000000E+002,  0.00000000000E+000,  0.10000000000E+001
  0.54511000000E+005,  0.12390115557E+007,  0.16500000000E+002,  0.00000000000E+000,  0.10000000000E+001
  0.54571000000E+005,  0.12343282678E+007,  0.16500000000E+002,  0.00000000000E+000,  0.10000000000E+001
  0.54631000000E+005,  0.12296894653E+007,  0.16500000000E+002,  0.00000000000E+000,  0.10000000000E+001
  0.54691000000E+005,  0.12250949677E+007,  0.16500000000E+002,  0.00000000000E+000,  0.10000000000E+001
  0.54751000000E+005,  0.12205444785E+007,  0.16500000000E+002,  0.00000000000E+000,  0.10000000000E+001
  0.54811000000E+005,  0.12160376198E+007,  0.16500000000E+002,  0.00000000000E+000,  0.10000000000E+001
  0.54871000000E+005,  0.12115739649E+007,  0.16500000000E+002,  0.00000000000E+000,  0.10000000000E+001
  0.54931000000E+005,  0.12071530510E+007,  0.16500000000E+002,  0.00000000000E+000,  0.10000000000E+001
  0.54991000000E+005,  0.12027743942E+007,  0.16500000000E+002,  0.00000000000E+000,  0.10000000000E+001
  0.55051000000E+005,  0.11984374982E+007,  0.16500000000E+002,  0.00000000000E+000,  0.10000000000E+001
  0.55111000000E+005,  0.11941418568E+007,  0.16500000000E+002,  0.00000000000E+000,  0.10000000000E+001
  0.55171000000E+005,  0.11898869610E+007,  0.16500000000E+002,  0.00000000000E+000,  0.10000000000E+001
  0.55231000000E+005,  0.11856723037E+007,  0.16500000000E+002,  0.00000000000E+000,  0.10000000000E+001
  0.55291000000E+005,  0.11814973757E+007,  0.16500000000E+002,  0.00000000000E+000,  0.10000000000E+001
  0.55351000000E+005,  0.11773616723E+007,  0.16500000000E+002,  0.00000000000E+000,  0.10000000000E+001
  0.55411000000E+005,  0.11732646945E+007,  0.16500000000E+002,  0.00000000000E+000,  0.10000000000E+001
  0.55471000000E+005,  0.11692059460E+007,  0.16500000000E+002,  0.00000000000E+000,  0.10000000000E+001
  0.55531000000E+005,  0.11651849393E+007,  0.16500000000E+002,  0.00000000000E+000,  0.10000000000E+001
  0.55591000000E+005,  0.11612011913E+007,  0.16500000000E+002,  0.00000000000E+000,  0.10000000000E+001
  0.55651000000E+005,  0.11572542256E+007,  0.16500000000E+002,  0.00000000000E+000,  0.10000000000E+001
  0.55711000000E+005,  0.11533435727E+007,  0.16500000000E+002,  0.00000000000E+000,  0.10000000000E+001
  0.55771000000E+005,  0.11494687718E+007,  0.16500000000E+002,  0.00000000000E+000,  0.10000000000E+001
  0.55831000000E+005,  0.11456293669E+007,  0.16500000000E+002,  0.00000000000E+000,  0.10000000000E+001
  0.55891000000E+005,  0.11418249121E+007,  0.16500000000E+002,  0.00000000000E+000,  0.10000000000E+001
  0.55951000000E+005,  0.11380549646E+007,  0.16500000000E+002,  0.00000000000E+000,  0.10000000000E+001
  0.56011000000E+005,  0.11343190931E+007,  0.16500000000E+002,  0.00000000000E+000,  0.10000000000E+001
  0.56071000000E+005,  0.11306168696E+007,  0.16500000000E+002,  0.00000000000E+000,  0.10000000000E+001
  0.56131000000E+005,  0.11269478746E+007,  0.16500000000E+002,  0.00000000000E+000,  0.10000000000E+001
  0.56191000000E+005,  0.11233116957E+007,  0.16500000000E+002,  0.00000000000E+000,  0.10000000000E+001
  0.56251000000E+005,  0.11197079272E+007,  0.16500000000E+002,  0.00000000000E+000,  0.10000000000E+001
  0.56311000000E+005,  0.11161361713E+007,  0.16500000000E+002,  0.00000000000E+000,  0.10000000000E+001
  0.56371000000E+005,  0.11125960349E+007,  0.16500000000E+002,  0.00000000000E+000,  0.10000000000E+001
  0.56431000000E+005,  0.11090871318E+007,  0.16500000000E+002,  0.00000000000E+000,  0.10000000000E+001
  0.56491000000E+005,  0.11056090816E+007,  0.16500000000E+002,  0.00000000000E+000,  0.10000000000E+001
  0.56551000000E+005,  0.11021615114E+007,  0.16500000000E+002,  0.00000000000E+000,  0.10000000000E+001
  0.56611000000E+005,  0.10987440535E+007,  0.16500000000E+002,  0.00000000000E+000,  0.10000000000E+001
  0.56671000000E+005,  0.10953563460E+007,  0.16500000000E+002,  0.00000000000E+000,  0.10000000000E+001
  0.56731000000E+005,  0.10919980357E+007,  0.16500000000E+002,  0.00000000000E+000,  0.10000000000E+001
  0.56791000000E+005,  0.10886687699E+007,  0.16500000000E+002,  0.00000000000E+000,  0.10000000000E+001
  0.56851000000E+005,  0.10853682055E+007,  0.16500000000E+002,  0.00000000000E+000,  0.10000000000E+001
  0.56911000000E+005,  0.10820960040E+007,  0.16500000000E+002,  0.00000000000E+000,  0.10000000000E+001
  0.56971000000E+005,  0.10788518322E+007,  0.16500000000E+002,  0.00000000000E+000,  0.10000000000E+001
  0.57031000000E+005,  0.10756353615E+007,  0.16500000000E+002,  0.00000000000E+000,  0.10000000000E+001
  0.57091000000E+005,  0.10724462685E+007,  0.16500000000E+002,  0.00000000000E+000,  0.10000000000E+001
  0.57151000000E+005,  0.10692842359E+007,  0.16500000000E+002,  0.00000000000E+000,  0.10000000000E+001
  0.57211000000E+005,  0.10661489504E+007,  0.16500000000E+002,  0.00000000000E+000,  0.10000000000E+001
  0.57271000000E+005,  0.10630401039E+007,  0.16500000000E+002,  0.00000000000E+000,  0.10000000000E+001
  0.57331000000E+005,  0.10599573912E+007,  0.16500000000E+002,  0.00000000000E+000,  0.10000000000E+001
  0.57391000000E+005,  0.10569005186E+007,  0.16500000000E+002,  0.00000000000E+000,  0.10000000000E+001
  0.57451000000E+005,  0.10538691873E+007,  0.16500000000E+002,  0.00000000000E+000,  0.10000000000E+001
  0.57511000000E+005,  0.10508631080E+007,  0.16500000000E+002,  0.00000000000E+000,  0.10000000000E+001
  0.57571000000E+005,  0.10478819971E+007,  0.16500000000E+002,  0.00000000000E+000,  0.10000000000E+001
  0.57631000000E+005,  0.10449255718E+007,  0.16500000000E+002,  0.00000000000E+000,  0.10000000000E+001
  0.57691000000E+005,  0.10419935555E+007,  0.16500000000E+002,  0.00000000000E+000,  0.10000000000E+001
  0.57751000000E+005,  0.10390856754E+007,  0.16500000000E+002,  0.00000000000E+000,  0.10000000000E+001
  0.57811000000E+005,  0.10362016623E+007,  0.16500000000E+002,  0.00000000000E+000,  0.10000000000E+001
  0.57871000000E+005,  0.10333412507E+007,  0.16500000000E+002,  0.00000000000E+000,  0.10000000000E+001
  0.57931000000E+005,  0.10305041821E+007,  0.16500000000E+002,  0.00000000000E+000,  0.10000000000E+001
  0.57991000000E+005,  0.10276901953E+007,  0.16500000000E+002,  0.00000000000E+000,  0.10000000000E+001
  0.58051000000E+005,  0.10248990406E+007,  0.16500000000E+002,  0.00000000000E+000,  0.10000000000E+001
  0.58111000000E+005,  0.10221304643E+007,  0.16500000000E+002,  0.00000000000E+000,  0.10000000000E+001
  0.58171000000E+005,  0.10193842232E+007,  0.16500000000E+002,  0.00000000000E+000,  0.10000000000E+001
  0.58231000000E+005,  0.10166600723E+007,  0.16500000000E+002,  0.00000000000E+000,  0.10000000000E+001
  0.58291000000E+005,  0.10139577724E+007,  0.16500000000E+002,  0.00000000000E+000,  0.10000000000E+001
  0.58351000000E+005,  0.10112770874E+007,  0.16500000000E+002,  0.00000000000E+000,  0.10000000000E+001
  0.58411000000E+005,  0.10086177828E+007,  0.16500000000E+002,  0.00000000000E+000,  0.10000000000E+001
  0.58471000000E+005,  0.10059796337E+007,  0.16500000000E+002,  0.00000000000E+000,  0.10000000000E+001
  0.58531000000E+005,  0.10033624095E+007,  0.16500000000E+002,  0.00000000000E+000,  0.10000000000E+001
  0.58591000000E+005,  0.10007658878E+007,  0.16500000000E+002,  0.00000000000E+000,  0.10000000000E+001
  0.58651000000E+005,  0.99818984767E+006,  0.16500000000E+002,  0.00000000000E+000,  0.10000000000E+001
  0.58711000000E+005,  0.99563407396E+006,  0.16500000000E+002,  0.00000000000E+000,  0.10000000000E+001
  0.58771000000E+005,  0.99309835054E+006,  0.16500000000E+002,  0.00000000000E+000,  0.10000000000E+001
