"           TIME(S)","              PRES","              TEMP","             SAT_G","             SAT_L"
  0.32516000000E+005,  0.16338704494E+006,  0.16500000000E+002,  0.00000000000E+000,  0.10000000000E+001
  0.32521000000E+005,  0.16349376415E+006,  0.16500000000E+002,  0.00000000000E+000,  0.10000000000E+001
  0.32546000000E+005,  0.16404125387E+006,  0.16500000000E+002,  0.00000000000E+000,  0.10000000000E+001
  0.32606000000E+005,  0.16537372792E+006,  0.16500000000E+002,  0.00000000000E+000,  0.10000000000E+001
  0.32666000000E+005,  0.16674866109E+006,  0.16500000000E+002,  0.00000000000E+000,  0.10000000000E+001
  0.32726000000E+005,  0.16819932099E+006,  0.16500000000E+002,  0.00000000000E+000,  0.10000000000E+001
  0.32786000000E+005,  0.16975586969E+006,  0.16500000000E+002,  0.00000000000E+000,  0.10000000000E+001
  0.32846000000E+005,  0.17143916205E+006,  0.16500000000E+002,  0.00000000000E+000,  0.10000000000E+001
  0.32906000000E+005,  0.17325894531E+006,  0.16500000000E+002,  0.00000000000E+000,  0.10000000000E+001
  0.32966000000E+005,  0.17521503672E+006,  0.16500000000E+002,  0.00000000000E+000,  0.10000000000E+001
  0.33026000000E+005,  0.17729981807E+006,  0.16500000000E+002,  0.00000000000E+000,  0.10000000000E+001
  0.33086000000E+005,  0.17950089133E+006,  0.16500000000E+002,  0.00000000000E+000,  0.10000000000E+001
  0.33146000000E+005,  0.18180332295E+006,  0.16500000000E+002,  0.00000000000E+000,  0.10000000000E+001
  0.33206000000E+005,  0.18419130481E+006,  0.16500000000E+002,  0.00000000000E+000,  0.10000000000E+001
  0.33266000000E+005,  0.18664926707E+006,  0.16500000000E+002,  0.00000000000E+000,  0.10000000000E+001
  0.33326000000E+005,  0.18916255520E+006,  0.16500000000E+002,  0.00000000000E+000,  0.10000000000E+001
  0.33386000000E+005,  0.19171779261E+006,  0.16500000000E+002,  0.00000000000E+000,  0.10000000000E+001
  0.33446000000E+005,  0.19430303213E+006,  0.16500000000E+002,  0.00000000000E+000,  0.10000000000E+001
  0.33506000000E+005,  0.19690777383E+006,  0.16500000000E+002,  0.00000000000E+000,  0.10000000000E+001
  0.33566000000E+005,  0.19952290404E+006,  0.16500000000E+002,  0.00000000000E+000,  0.10000000000E+001
  0.33626000000E+005,  0.20214059175E+006,  0.16500000000E+002,  0.00000000000E+000,  0.10000000000E+001
  0.33686000000E+005,  0.20475416594E+006,  0.16500000000E+002,  0.00000000000E+000,  0.10000000000E+001
  0.33746000000E+005,  0.20735798807E+006,  0.16500000000E+002,  0.00000000000E+000,  0.10000000000E+001
  0.33806000000E+005,  0.20994732778E+006,  0.16500000000E+002,  0.00000000000E+000,  0.10000000000E+001
  0.33866000000E+005,  0.21251824738E+006,  0.16500000000E+002,  0.00000000000E+000,  0.10000000000E+001
  0.33926000000E+005,  0.21506749598E+006,  0.16500000000E+002,  0.00000000000E+000,  0.10000000000E+001
  0.33986000000E+005,  0.21759241465E+006,  0.16500000000E+002,  0.00000000000E+000,  0.10000000000E+001
  0.34046000000E+005,  0.22009085256E+006,  0.16500000000E+002,  0.00000000000E+000,  0.10000000000E+001
  0.34106000000E+005,  0.22256109330E+006,  0.16500000000E+002,  0.00000000000E+000,  0.10000000000E+001
  0.34166000000E+005,  0.22500179048E+006,  0.16500000000E+002,  0.00000000000E+000,  0.10000000000E+001
  0.34226000000E+005,  0.22741191189E+006,  0.16500000000E+002,  0.00000000000E+000,  0.10000000000E+001
  0.34286000000E+005,  0.22979069121E+006,  0.16500000000E+002,  0.00000000000E+000,  0.10000000000E+001
  0.34346000000E+005,  0.23213758638E+006,  0.16500000000E+002,  0.00000000000E+000,  0.10000000000E+001
  0.34406000000E+005,  0.23445224395E+006,  0.16500000000E+002,  0.00000000000E+000,  0.10000000000E+001
  0.34466000000E+005,  0.23673446846E+006,  0.16500000000E+002,  0.00000000000E+000,  0.10000000000E+001
  0.34526000000E+005,  0.23898419634E+006,  0.16500000000E+002,  0.00000000000E+000,  0.10000000000E+001
  0.34586000000E+005,  0.24120147370E+006,  0.16500000000E+002,  0.00000000000E+000,  0.10000000000E+001
  0.34646000000E+005,  0.24338643736E+006,  0.16500000000E+002,  0.00000000000E+000,  0.10000000000E+001
  0.34706000000E+005,  0.24553929883E+006,  0.16500000000E+002,  0.00000000000E+000,  0.10000000000E+001
  0.34766000000E+005,  0.24766033069E+006,  0.16500000000E+002,  0.00000000000E+000,  0.10000000000E+001
  0.34826000000E+005,  0.24974985505E+006,  0.16500000000E+002,  0.00000000000E+000,  0.10000000000E+001
  0.34886000000E+005,  0.25180823384E+006,  0.16500000000E+002,  0.00000000000E+000,  0.10000000000E+001
  0.34946000000E+005,  0.25383586055E+006,  0.16500000000E+002,  0.00000000000E+000,  0.10000000000E+001
  0.35006000000E+005,  0.25583315334E+006,  0.16500000000E+002,  0.00000000000E+000,  0.10000000000E+001
  0.35066000000E+005,  0.25780054917E+006,  0.16500000000E+002,  0.00000000000E+000,  0.10000000000E+001
  0.35126000000E+005,  0.25973849894E+006,  0.16500000000E+002,  0.00000000000E+000,  0.10000000000E+001
  0.35186000000E+005,  0.26164746333E+006,  0.16500000000E+002,  0.00000000000E+000,  0.10000000000E+001
  0.35246000000E+005,  0.26352790940E+006,  0.16500000000E+002,  0.00000000000E+000,  0.10000000000E+001
  0.35306000000E+005,  0.26538030772E+006,  0.16500000000E+002,  0.00000000000E+000,  0.10000000000E+001
  0.35366000000E+005,  0.26720512994E+006,  0.16500000000E+002,  0.00000000000E+000,  0.10000000000E+001
  0.35426000000E+005,  0.26900284690E+006,  0.16500000000E+002,  0.00000000000E+000,  0.10000000000E+001
  0.35486000000E+005,  0.27077392689E+006,  0.16500000000E+002,  0.00000000000E+000,  0.10000000000E+001
  0.35546000000E+005,  0.27251883441E+006,  0.16500000000E+002,  0.00000000000E+000,  0.10000000000E+001
  0.35606000000E+005,  0.27423802905E+006,  0.16500000000E+002,  0.00000000000E+000,  0.10000000000E+001
  0.35666000000E+005,  0.27593196459E+006,  0.16500000000E+002,  0.00000000000E+000,  0.10000000000E+001
  0.35726000000E+005,  0.27760108835E+006,  0.16500000000E+002,  0.00000000000E+000,  0.10000000000E+001
  0.35786000000E+005,  0.27924584060E+006,  0.16500000000E+002,  0.00000000000E+000,  0.10000000000E+001
  0.35846000000E+005,  0.28086665417E+006,  0.16500000000E+002,  0.00000000000E+000,  0.10000000000E+001
  0.35906000000E+005,  0.28246395412E+006,  0.16500000000E+002,  0.00000000000E+000,  0.10000000000E+001
  0.35966000000E+005,  0.28403815755E+006,  0.16500000000E+002,  0.00000000000E+000,  0.10000000000E+001
  0.36026000000E+005,  0.28558952478E+006,  0.16500000000E+002,  0.00000000000E+000,  0.10000000000E+001
  0.36086000000E+005,  0.28711787212E+006,  0.16500000000E+002,  0.00000000000E+000,  0.10000000000E+001
  0.36146000000E+005,  0.28862252449E+006,  0.16500000000E+002,  0.00000000000E+000,  0.10000000000E+001
  0.36206000000E+005,  0.29010256696E+006,  0.16500000000E+002,  0.00000000000E+000,  0.10000000000E+001
  0.36266000000E+005,  0.29155717866E+006,  0.16500000000E+002,  0.00000000000E+000,  0.10000000000E+001
  0.36326000000E+005,  0.29298586452E+006,  0.16500000000E+002,  0.00000000000E+000,  0.10000000000E+001
  0.36386000000E+005,  0.29438853591E+006,  0.16500000000E+002,  0.00000000000E+000,  0.10000000000E+001
  0.36446000000E+005,  0.29576547830E+006,  0.16500000000E+002,  0.00000000000E+000,  0.10000000000E+001
  0.36506000000E+005,  0.29711726386E+006,  0.16500000000E+002,  0.00000000000E+000,  0.10000000000E+001
  0.36566000000E+005,  0.29844465303E+006,  0.16500000000E+002,  0.00000000000E+000,  0.10000000000E+001
  0.36626000000E+005,  0.29974850872E+006,  0.16500000000E+002,  0.00000000000E+000,  0.10000000000E+001
  0.36686000000E+005,  0.30102973124E+006,  0.16500000000E+002,  0.00000000000E+000,  0.10000000000E+001
  0.36746000000E+005,  0.30228921389E+006,  0.16500000000E+002,  0.00000000000E+000,  0.10000000000E+001
  0.36806000000E+005,  0.30352781519E+006,  0.16500000000E+002,  0.00000000000E+000,  0.10000000000E+001
  0.36866000000E+005,  0.30474634357E+006,  0.16500000000E+002,  0.00000000000E+000,  0.10000000000E+001
  0.36926000000E+005,  0.30594555038E+006,  0.16500000000E+002,  0.00000000000E+000,  0.10000000000E+001
  0.36986000000E+005,  0.30712612835E+006,  0.16500000000E+002,  0.00000000000E+000,  0.10000000000E+001
  0.37046000000E+005,  0.30828871325E+006,  0.16500000000E+002,  0.00000000000E+000,  0.10000000000E+001
  0.37106000000E+005,  0.30943388746E+006,  0.16500000000E+002,  0.00000000000E+000,  0.10000000000E+001
  0.37166000000E+005,  0.31056218429E+006,  0.16500000000E+002,  0.00000000000E+000,  0.10000000000E+001
  0.37226000000E+005,  0.31167409275E+006,  0.16500000000E+002,  0.00000000000E+000,  0.10000000000E+001
  0.37286000000E+005,  0.31277006217E+006,  0.16500000000E+002,  0.00000000000E+000,  0.10000000000E+001
  0.37346000000E+005,  0.31385050654E+006,  0.16500000000E+002,  0.00000000000E+000,  0.10000000000E+001
  0.37406000000E+005,  0.31491580864E+006,  0.16500000000E+002,  0.00000000000E+000,  0.10000000000E+001
  0.37466000000E+005,  0.31596615414E+006,  0.16500000000E+002,  0.00000000000E+000,  0.10000000000E+001
  0.37526000000E+005,  0.31700194008E+006,  0.16500000000E+002,  0.00000000000E+000,  0.10000000000E+001
  0.37586000000E+005,  0.31802417647E+006,  0.16500000000E+002,  0.00000000000E+000,  0.10000000000E+001
  0.37646000000E+005,  0.31903441596E+006,  0.16500000000E+002,  0.00000000000E+000,  0.10000000000E+001
  0.37706000000E+005,  0.32003437253E+006,  0.16500000000E+002,  0.00000000000E+000,  0.10000000000E+001
  0.37766000000E+005,  0.32102554612E+006,  0.16500000000E+002,  0.00000000000E+000,  0.10000000000E+001
  0.37826000000E+005,  0.32200901447E+006,  0.16500000000E+002,  0.00000000000E+000,  0.10000000000E+001
  0.37886000000E+005,  0.32298539336E+006,  0.16500000000E+002,  0.00000000000E+000,  0.10000000000E+001
  0.37946000000E+005,  0.32395490127E+006,  0.16500000000E+002,  0.00000000000E+000,  0.10000000000E+001
  0.38006000000E+005,  0.32491746438E+006,  0.16500000000E+002,  0.00000000000E+000,  0.10000000000E+001
  0.38066000000E+005,  0.32587282143E+006,  0.16500000000E+002,  0.00000000000E+000,  0.10000000000E+001
  0.38126000000E+005,  0.32682060971E+006,  0.16500000000E+002,  0.00000000000E+000,  0.10000000000E+001
  0.38186000000E+005,  0.32776042780E+006,  0.16500000000E+002,  0.00000000000E+000,  0.10000000000E+001
  0.38246000000E+005,  0.32869187720E+006,  0.16500000000E+002,  0.00000000000E+000,  0.10000000000E+001
  0.38306000000E+005,  0.32961458769E+006,  0.16500000000E+002,  0.00000000000E+000,  0.10000000000E+001
  0.38366000000E+005,  0.33052823104E+006,  0.16500000000E+002,  0.00000000000E+000,  0.10000000000E+001
  0.38426000000E+005,  0.33143252676E+006,  0.16500000000E+002,  0.00000000000E+000,  0.10000000000E+001
  0.38486000000E+005,  0.33232724318E+006,  0.16500000000E+002,  0.00000000000E+000,  0.10000000000E+001
  0.38546000000E+005,  0.33321219542E+006,  0.16500000000E+002,  0.00000000000E+000,  0.10000000000E+001
  0.38606000000E+005,  0.33408724190E+006,  0.16500000000E+002,  0.00000000000E+000,  0.10000000000E+001
  0.38666000000E+005,  0.33495228013E+006,  0.16500000000E+002,  0.00000000000E+000,  0.10000000000E+001
  0.38726000000E+005,  0.33580724217E+006,  0.16500000000E+002,  0.00000000000E+000,  0.10000000000E+001
  0.38786000000E+005,  0.33665209039E+006,  0.16500000000E+002,  0.00000000000E+000,  0.10000000000E+001
  0.38846000000E+005,  0.33748681335E+006,  0.16500000000E+002,  0.00000000000E+000,  0.10000000000E+001
  0.38906000000E+005,  0.33831142210E+006,  0.16500000000E+002,  0.00000000000E+000,  0.10000000000E+001
  0.38966000000E+005,  0.33912594690E+006,  0.16500000000E+002,  0.00000000000E+000,  0.10000000000E+001
  0.39026000000E+005,  0.33993043423E+006,  0.16500000000E+002,  0.00000000000E+000,  0.10000000000E+001
  0.39086000000E+005,  0.34072494423E+006,  0.16500000000E+002,  0.00000000000E+000,  0.10000000000E+001
  0.39146000000E+005,  0.34150954845E+006,  0.16500000000E+002,  0.00000000000E+000,  0.10000000000E+001
  0.39206000000E+005,  0.34228432794E+006,  0.16500000000E+002,  0.00000000000E+000,  0.10000000000E+001
  0.39266000000E+005,  0.34304937154E+006,  0.16500000000E+002,  0.00000000000E+000,  0.10000000000E+001
  0.39326000000E+005,  0.34380477442E+006,  0.16500000000E+002,  0.00000000000E+000,  0.10000000000E+001
  0.39386000000E+005,  0.34455063692E+006,  0.16500000000E+002,  0.00000000000E+000,  0.10000000000E+001
  0.39446000000E+005,  0.34528706339E+006,  0.16500000000E+002,  0.00000000000E+000,  0.10000000000E+001
  0.39506000000E+005,  0.34601416140E+006,  0.16500000000E+002,  0.00000000000E+000,  0.10000000000E+001
  0.39566000000E+005,  0.34673204089E+006,  0.16500000000E+002,  0.00000000000E+000,  0.10000000000E+001
  0.39626000000E+005,  0.34744081356E+006,  0.16500000000E+002,  0.00000000000E+000,  0.10000000000E+001
  0.39686000000E+005,  0.34814059231E+006,  0.16500000000E+002,  0.00000000000E+000,  0.10000000000E+001
  0.39746000000E+005,  0.34883149080E+006,  0.16500000000E+002,  0.00000000000E+000,  0.10000000000E+001
  0.39806000000E+005,  0.34951362301E+006,  0.16500000000E+002,  0.00000000000E+000,  0.10000000000E+001
  0.39866000000E+005,  0.35018710294E+006,  0.16500000000E+002,  0.00000000000E+000,  0.10000000000E+001
  0.39926000000E+005,  0.35085204436E+006,  0.16500000000E+002,  0.00000000000E+000,  0.10000000000E+001
  0.39986000000E+005,  0.35150856053E+006,  0.16500000000E+002,  0.00000000000E+000,  0.10000000000E+001
  0.40046000000E+005,  0.35215676403E+006,  0.16500000000E+002,  0.00000000000E+000,  0.10000000000E+001
  0.40106000000E+005,  0.35279676661E+006,  0.16500000000E+002,  0.00000000000E+000,  0.10000000000E+001
  0.40166000000E+005,  0.35342867908E+006,  0.16500000000E+002,  0.00000000000E+000,  0.10000000000E+001
  0.40226000000E+005,  0.35405261113E+006,  0.16500000000E+002,  0.00000000000E+000,  0.10000000000E+001
  0.40286000000E+005,  0.35466867132E+006,  0.16500000000E+002,  0.00000000000E+000,  0.10000000000E+001
  0.40346000000E+005,  0.35527696700E+006,  0.16500000000E+002,  0.00000000000E+000,  0.10000000000E+001
  0.40406000000E+005,  0.35587760421E+006,  0.16500000000E+002,  0.00000000000E+000,  0.10000000000E+001
  0.40466000000E+005,  0.35647068768E+006,  0.16500000000E+002,  0.00000000000E+000,  0.10000000000E+001
  0.40526000000E+005,  0.35705632080E+006,  0.16500000000E+002,  0.00000000000E+000,  0.10000000000E+001
  0.40586000000E+005,  0.35763460558E+006,  0.16500000000E+002,  0.00000000000E+000,  0.10000000000E+001
  0.40646000000E+005,  0.35820564263E+006,  0.16500000000E+002,  0.00000000000E+000,  0.10000000000E+001
  0.40706000000E+005,  0.35876953118E+006,  0.16500000000E+002,  0.00000000000E+000,  0.10000000000E+001
  0.40766000000E+005,  0.35932636905E+006,  0.16500000000E+002,  0.00000000000E+000,  0.10000000000E+001
  0.40826000000E+005,  0.35987625266E+006,  0.16500000000E+002,  0.00000000000E+000,  0.10000000000E+001
  0.40886000000E+005,  0.36041927704E+006,  0.16500000000E+002,  0.00000000000E+000,  0.10000000000E+001
  0.40946000000E+005,  0.36095553583E+006,  0.16500000000E+002,  0.00000000000E+000,  0.10000000000E+001
  0.41006000000E+005,  0.36148512129E+006,  0.16500000000E+002,  0.00000000000E+000,  0.10000000000E+001
  0.41066000000E+005,  0.36200812433E+006,  0.16500000000E+002,  0.00000000000E+000,  0.10000000000E+001
  0.41126000000E+005,  0.36252463449E+006,  0.16500000000E+002,  0.00000000000E+000,  0.10000000000E+001
  0.41186000000E+005,  0.36303474000E+006,  0.16500000000E+002,  0.00000000000E+000,  0.10000000000E+001
  0.41246000000E+005,  0.36353852775E+006,  0.16500000000E+002,  0.00000000000E+000,  0.10000000000E+001
  0.41306000000E+005,  0.36403608332E+006,  0.16500000000E+002,  0.00000000000E+000,  0.10000000000E+001
  0.41366000000E+005,  0.36452749105E+006,  0.16500000000E+002,  0.00000000000E+000,  0.10000000000E+001
  0.41426000000E+005,  0.36501283397E+006,  0.16500000000E+002,  0.00000000000E+000,  0.10000000000E+001
  0.41486000000E+005,  0.36549219389E+006,  0.16500000000E+002,  0.00000000000E+000,  0.10000000000E+001
  0.41546000000E+005,  0.36596565138E+006,  0.16500000000E+002,  0.00000000000E+000,  0.10000000000E+001
  0.41606000000E+005,  0.36643328581E+006,  0.16500000000E+002,  0.00000000000E+000,  0.10000000000E+001
  0.41666000000E+005,  0.36689517535E+006,  0.16500000000E+002,  0.00000000000E+000,  0.10000000000E+001
  0.41726000000E+005,  0.36735139703E+006,  0.16500000000E+002,  0.00000000000E+000,  0.10000000000E+001
  0.41786000000E+005,  0.36780202668E+006,  0.16500000000E+002,  0.00000000000E+000,  0.10000000000E+001
  0.41846000000E+005,  0.36824713905E+006,  0.16500000000E+002,  0.00000000000E+000,  0.10000000000E+001
  0.41906000000E+005,  0.36868680775E+006,  0.16500000000E+002,  0.00000000000E+000,  0.10000000000E+001
  0.41966000000E+005,  0.36912110529E+006,  0.16500000000E+002,  0.00000000000E+000,  0.10000000000E+001
  0.42026000000E+005,  0.36955001714E+006,  0.16500000000E+002,  0.00000000000E+000,  0.10000000000E+001
  0.42086000000E+005,  0.36997327503E+006,  0.16500000000E+002,  0.00000000000E+000,  0.10000000000E+001
  0.42146000000E+005,  0.37039032964E+006,  0.16500000000E+002,  0.00000000000E+000,  0.10000000000E+001
  0.42206000000E+005,  0.37080049689E+006,  0.16500000000E+002,  0.00000000000E+000,  0.10000000000E+001
  0.42266000000E+005,  0.37120315183E+006,  0.16500000000E+002,  0.00000000000E+000,  0.10000000000E+001
  0.42326000000E+005,  0.37159786297E+006,  0.16500000000E+002,  0.00000000000E+000,  0.10000000000E+001
  0.42386000000E+005,  0.37198443869E+006,  0.16500000000E+002,  0.00000000000E+000,  0.10000000000E+001
  0.42446000000E+005,  0.37236290786E+006,  0.16500000000E+002,  0.00000000000E+000,  0.10000000000E+001
  0.42506000000E+005,  0.37273346880E+006,  0.16500000000E+002,  0.00000000000E+000,  0.10000000000E+001
  0.42566000000E+005,  0.37309643185E+006,  0.16500000000E+002,  0.00000000000E+000,  0.10000000000E+001
  0.42626000000E+005,  0.37345216910E+006,  0.16500000000E+002,  0.00000000000E+000,  0.10000000000E+001
  0.42686000000E+005,  0.37380107685E+006,  0.16500000000E+002,  0.00000000000E+000,  0.10000000000E+001
  0.42746000000E+005,  0.37414354961E+006,  0.16500000000E+002,  0.00000000000E+000,  0.10000000000E+001
  0.42806000000E+005,  0.37447996420E+006,  0.16500000000E+002,  0.00000000000E+000,  0.10000000000E+001
  0.42866000000E+005,  0.37481067087E+006,  0.16500000000E+002,  0.00000000000E+000,  0.10000000000E+001
  0.42926000000E+005,  0.37513598980E+006,  0.16500000000E+002,  0.00000000000E+000,  0.10000000000E+001
  0.42986000000E+005,  0.37545620998E+006,  0.16500000000E+002,  0.00000000000E+000,  0.10000000000E+001
  0.43046000000E+005,  0.37577159038E+006,  0.16500000000E+002,  0.00000000000E+000,  0.10000000000E+001
  0.43106000000E+005,  0.37608236184E+006,  0.16500000000E+002,  0.00000000000E+000,  0.10000000000E+001
  0.43166000000E+005,  0.37638872989E+006,  0.16500000000E+002,  0.00000000000E+000,  0.10000000000E+001
  0.43226000000E+005,  0.37669087694E+006,  0.16500000000E+002,  0.00000000000E+000,  0.10000000000E+001
  0.43286000000E+005,  0.37698896516E+006,  0.16500000000E+002,  0.00000000000E+000,  0.10000000000E+001
  0.43346000000E+005,  0.37728313887E+006,  0.16500000000E+002,  0.00000000000E+000,  0.10000000000E+001
  0.43406000000E+005,  0.37757352674E+006,  0.16500000000E+002,  0.00000000000E+000,  0.10000000000E+001
  0.43466000000E+005,  0.37786024388E+006,  0.16500000000E+002,  0.00000000000E+000,  0.10000000000E+001
  0.43526000000E+005,  0.37814339354E+006,  0.16500000000E+002,  0.00000000000E+000,  0.10000000000E+001
  0.43586000000E+005,  0.37842306879E+006,  0.16500000000E+002,  0.00000000000E+000,  0.10000000000E+001
  0.43646000000E+005,  0.37869935387E+006,  0.16500000000E+002,  0.00000000000E+000,  0.10000000000E+001
  0.43706000000E+005,  0.37897232544E+006,  0.16500000000E+002,  0.00000000000E+000,  0.10000000000E+001
