"           TIME(S)","              PRES","              TEMP","             SAT_G","             SAT_L"
  0.32549000000E+005,  0.59115645379E+007,  0.16500000000E+002,  0.00000000000E+000,  0.10000000000E+001
  0.32559000000E+005,  0.51053212035E+007,  0.16500000000E+002,  0.00000000000E+000,  0.10000000000E+001
  0.32609000000E+005,  0.52441908571E+007,  0.16500000000E+002,  0.00000000000E+000,  0.10000000000E+001
  0.32669000000E+005,  0.55450492033E+007,  0.16500000000E+002,  0.00000000000E+000,  0.10000000000E+001
  0.32729000000E+005,  0.57650268292E+007,  0.16500000000E+002,  0.00000000000E+000,  0.10000000000E+001
  0.32789000000E+005,  0.59485651507E+007,  0.16500000000E+002,  0.00000000000E+000,  0.10000000000E+001
  0.32849000000E+005,  0.60983496883E+007,  0.16500000000E+002,  0.00000000000E+000,  0.10000000000E+001
  0.32909000000E+005,  0.62240002977E+007,  0.16500000000E+002,  0.00000000000E+000,  0.10000000000E+001
  0.32969000000E+005,  0.63319463917E+007,  0.16500000000E+002,  0.00000000000E+000,  0.10000000000E+001
  0.33029000000E+005,  0.64264530626E+007,  0.16500000000E+002,  0.00000000000E+000,  0.10000000000E+001
  0.33089000000E+005,  0.65104490031E+007,  0.16500000000E+002,  0.00000000000E+000,  0.10000000000E+001
  0.33149000000E+005,  0.65860166944E+007,  0.16500000000E+002,  0.00000000000E+000,  0.10000000000E+001
  0.33209000000E+005,  0.66546832792E+007,  0.16500000000E+002,  0.00000000000E+000,  0.10000000000E+001
  0.33269000000E+005,  0.67175989134E+007,  0.16500000000E+002,  0.00000000000E+000,  0.10000000000E+001
  0.33329000000E+005,  0.67756500213E+007,  0.16500000000E+002,  0.00000000000E+000,  0.10000000000E+001
  0.33389000000E+005,  0.68295335557E+007,  0.16500000000E+002,  0.00000000000E+000,  0.10000000000E+001
  0.33449000000E+005,  0.68798071223E+007,  0.16500000000E+002,  0.00000000000E+000,  0.10000000000E+001
  0.33509000000E+005,  0.69269236903E+007,  0.16500000000E+002,  0.00000000000E+000,  0.10000000000E+001
  0.33569000000E+005,  0.69712561900E+007,  0.16500000000E+002,  0.00000000000E+000,  0.10000000000E+001
  0.33629000000E+005,  0.70131153117E+007,  0.16500000000E+002,  0.00000000000E+000,  0.10000000000E+001
  0.33689000000E+005,  0.70527626184E+007,  0.16500000000E+002,  0.00000000000E+000,  0.10000000000E+001
  0.33749000000E+005,  0.70904203808E+007,  0.16500000000E+002,  0.00000000000E+000,  0.10000000000E+001
  0.33809000000E+005,  0.71262790655E+007,  0.16500000000E+002,  0.00000000000E+000,  0.10000000000E+001
  0.33869000000E+005,  0.71605031106E+007,  0.16500000000E+002,  0.00000000000E+000,  0.10000000000E+001
  0.33929000000E+005,  0.71932354464E+007,  0.16500000000E+002,  0.00000000000E+000,  0.10000000000E+001
  0.33989000000E+005,  0.72246010707E+007,  0.16500000000E+002,  0.00000000000E+000,  0.10000000000E+001
  0.34049000000E+005,  0.72547099075E+007,  0.16500000000E+002,  0.00000000000E+000,  0.10000000000E+001
  0.34109000000E+005,  0.72836591158E+007,  0.16500000000E+002,  0.00000000000E+000,  0.10000000000E+001
  0.34169000000E+005,  0.73115349718E+007,  0.16500000000E+002,  0.00000000000E+000,  0.10000000000E+001
  0.34229000000E+005,  0.73384144151E+007,  0.16500000000E+002,  0.00000000000E+000,  0.10000000000E+001
  0.34289000000E+005,  0.73643663303E+007,  0.16500000000E+002,  0.00000000000E+000,  0.10000000000E+001
  0.34349000000E+005,  0.73894526151E+007,  0.16500000000E+002,  0.00000000000E+000,  0.10000000000E+001
  0.34409000000E+005,  0.74137290781E+007,  0.16500000000E+002,  0.00000000000E+000,  0.10000000000E+001
  0.34469000000E+005,  0.74372461976E+007,  0.16500000000E+002,  0.00000000000E+000,  0.10000000000E+001
  0.34529000000E+005,  0.74600497656E+007,  0.16500000000E+002,  0.00000000000E+000,  0.10000000000E+001
  0.34589000000E+005,  0.74821814395E+007,  0.16500000000E+002,  0.00000000000E+000,  0.10000000000E+001
  0.34649000000E+005,  0.75036792145E+007,  0.16500000000E+002,  0.00000000000E+000,  0.10000000000E+001
  0.34709000000E+005,  0.75245778322E+007,  0.16500000000E+002,  0.00000000000E+000,  0.10000000000E+001
  0.34769000000E+005,  0.75449091342E+007,  0.16500000000E+002,  0.00000000000E+000,  0.10000000000E+001
  0.34829000000E+005,  0.75647023699E+007,  0.16500000000E+002,  0.00000000000E+000,  0.10000000000E+001
  0.34889000000E+005,  0.75839844653E+007,  0.16500000000E+002,  0.00000000000E+000,  0.10000000000E+001
  0.34949000000E+005,  0.76027802588E+007,  0.16500000000E+002,  0.00000000000E+000,  0.10000000000E+001
  0.35009000000E+005,  0.76211127084E+007,  0.16500000000E+002,  0.00000000000E+000,  0.10000000000E+001
  0.35069000000E+005,  0.76390030742E+007,  0.16500000000E+002,  0.00000000000E+000,  0.10000000000E+001
  0.35129000000E+005,  0.76564710807E+007,  0.16500000000E+002,  0.00000000000E+000,  0.10000000000E+001
  0.35189000000E+005,  0.76735350597E+007,  0.16500000000E+002,  0.00000000000E+000,  0.10000000000E+001
  0.35249000000E+005,  0.76902120784E+007,  0.16500000000E+002,  0.00000000000E+000,  0.10000000000E+001
  0.35309000000E+005,  0.77065180529E+007,  0.16500000000E+002,  0.00000000000E+000,  0.10000000000E+001
  0.35369000000E+005,  0.77224678502E+007,  0.16500000000E+002,  0.00000000000E+000,  0.10000000000E+001
  0.35429000000E+005,  0.77380753789E+007,  0.16500000000E+002,  0.00000000000E+000,  0.10000000000E+001
  0.35489000000E+005,  0.77533536713E+007,  0.16500000000E+002,  0.00000000000E+000,  0.10000000000E+001
  0.35549000000E+005,  0.77683149565E+007,  0.16500000000E+002,  0.00000000000E+000,  0.10000000000E+001
  0.35609000000E+005,  0.77829707269E+007,  0.16500000000E+002,  0.00000000000E+000,  0.10000000000E+001
  0.35669000000E+005,  0.77973317977E+007,  0.16500000000E+002,  0.00000000000E+000,  0.10000000000E+001
  0.35729000000E+005,  0.78114083610E+007,  0.16500000000E+002,  0.00000000000E+000,  0.10000000000E+001
  0.35789000000E+005,  0.78252100347E+007,  0.16500000000E+002,  0.00000000000E+000,  0.10000000000E+001
  0.35849000000E+005,  0.78387459065E+007,  0.16500000000E+002,  0.00000000000E+000,  0.10000000000E+001
  0.35909000000E+005,  0.78520245743E+007,  0.16500000000E+002,  0.00000000000E+000,  0.10000000000E+001
  0.35969000000E+005,  0.78650541830E+007,  0.16500000000E+002,  0.00000000000E+000,  0.10000000000E+001
  0.36029000000E+005,  0.78368335100E+007,  0.16500000000E+002,  0.00000000000E+000,  0.10000000000E+001
  0.36089000000E+005,  0.77982866547E+007,  0.16500000000E+002,  0.00000000000E+000,  0.10000000000E+001
  0.36149000000E+005,  0.77991018501E+007,  0.16500000000E+002,  0.00000000000E+000,  0.10000000000E+001
  0.36209000000E+005,  0.78046089733E+007,  0.16500000000E+002,  0.00000000000E+000,  0.10000000000E+001
  0.36269000000E+005,  0.78117856040E+007,  0.16500000000E+002,  0.00000000000E+000,  0.10000000000E+001
  0.36329000000E+005,  0.78197911143E+007,  0.16500000000E+002,  0.00000000000E+000,  0.10000000000E+001
  0.36389000000E+005,  0.78282565966E+007,  0.16500000000E+002,  0.00000000000E+000,  0.10000000000E+001
  0.36449000000E+005,  0.78369856594E+007,  0.16500000000E+002,  0.00000000000E+000,  0.10000000000E+001
  0.36509000000E+005,  0.78458618086E+007,  0.16500000000E+002,  0.00000000000E+000,  0.10000000000E+001
  0.36569000000E+005,  0.78548109244E+007,  0.16500000000E+002,  0.00000000000E+000,  0.10000000000E+001
  0.36629000000E+005,  0.78637834902E+007,  0.16500000000E+002,  0.00000000000E+000,  0.10000000000E+001
  0.36689000000E+005,  0.78727452375E+007,  0.16500000000E+002,  0.00000000000E+000,  0.10000000000E+001
  0.36749000000E+005,  0.78816718269E+007,  0.16500000000E+002,  0.00000000000E+000,  0.10000000000E+001
  0.36809000000E+005,  0.78905456387E+007,  0.16500000000E+002,  0.00000000000E+000,  0.10000000000E+001
  0.36869000000E+005,  0.78993537467E+007,  0.16500000000E+002,  0.00000000000E+000,  0.10000000000E+001
  0.36929000000E+005,  0.79080865886E+007,  0.16500000000E+002,  0.00000000000E+000,  0.10000000000E+001
  0.36989000000E+005,  0.79167370660E+007,  0.16500000000E+002,  0.00000000000E+000,  0.10000000000E+001
  0.37049000000E+005,  0.79252999192E+007,  0.16500000000E+002,  0.00000000000E+000,  0.10000000000E+001
  0.37109000000E+005,  0.79337712828E+007,  0.16500000000E+002,  0.00000000000E+000,  0.10000000000E+001
  0.37169000000E+005,  0.79421483627E+007,  0.16500000000E+002,  0.00000000000E+000,  0.10000000000E+001
  0.37229000000E+005,  0.79504291980E+007,  0.16500000000E+002,  0.00000000000E+000,  0.10000000000E+001
  0.37289000000E+005,  0.79586124818E+007,  0.16500000000E+002,  0.00000000000E+000,  0.10000000000E+001
  0.37349000000E+005,  0.79666974254E+007,  0.16500000000E+002,  0.00000000000E+000,  0.10000000000E+001
  0.37409000000E+005,  0.79746836529E+007,  0.16500000000E+002,  0.00000000000E+000,  0.10000000000E+001
  0.37469000000E+005,  0.79449647280E+007,  0.16500000000E+002,  0.00000000000E+000,  0.10000000000E+001
  0.37529000000E+005,  0.80679813614E+007,  0.16500000000E+002,  0.00000000000E+000,  0.10000000000E+001
  0.37589000000E+005,  0.80937825309E+007,  0.16500000000E+002,  0.00000000000E+000,  0.10000000000E+001
  0.37649000000E+005,  0.81102002923E+007,  0.16500000000E+002,  0.00000000000E+000,  0.10000000000E+001
  0.37709000000E+005,  0.81235548637E+007,  0.16500000000E+002,  0.00000000000E+000,  0.10000000000E+001
  0.37769000000E+005,  0.81353333162E+007,  0.16500000000E+002,  0.00000000000E+000,  0.10000000000E+001
  0.37829000000E+005,  0.81461265341E+007,  0.16500000000E+002,  0.00000000000E+000,  0.10000000000E+001
  0.37889000000E+005,  0.81562324390E+007,  0.16500000000E+002,  0.00000000000E+000,  0.10000000000E+001
  0.37949000000E+005,  0.81658226395E+007,  0.16500000000E+002,  0.00000000000E+000,  0.10000000000E+001
  0.38009000000E+005,  0.81750050707E+007,  0.16500000000E+002,  0.00000000000E+000,  0.10000000000E+001
  0.38069000000E+005,  0.81838520789E+007,  0.16500000000E+002,  0.00000000000E+000,  0.10000000000E+001
  0.38129000000E+005,  0.81924145814E+007,  0.16500000000E+002,  0.00000000000E+000,  0.10000000000E+001
  0.38189000000E+005,  0.82007298414E+007,  0.16500000000E+002,  0.00000000000E+000,  0.10000000000E+001
  0.38249000000E+005,  0.82088260262E+007,  0.16500000000E+002,  0.00000000000E+000,  0.10000000000E+001
  0.38309000000E+005,  0.82167250187E+007,  0.16500000000E+002,  0.00000000000E+000,  0.10000000000E+001
  0.38369000000E+005,  0.82244442264E+007,  0.16500000000E+002,  0.00000000000E+000,  0.10000000000E+001
  0.38429000000E+005,  0.82319977842E+007,  0.16500000000E+002,  0.00000000000E+000,  0.10000000000E+001
  0.38489000000E+005,  0.82393973793E+007,  0.16500000000E+002,  0.00000000000E+000,  0.10000000000E+001
  0.38549000000E+005,  0.82466528311E+007,  0.16500000000E+002,  0.00000000000E+000,  0.10000000000E+001
  0.38609000000E+005,  0.82537725074E+007,  0.16500000000E+002,  0.00000000000E+000,  0.10000000000E+001
  0.38669000000E+005,  0.82607636301E+007,  0.16500000000E+002,  0.00000000000E+000,  0.10000000000E+001
  0.38729000000E+005,  0.82676325027E+007,  0.16500000000E+002,  0.00000000000E+000,  0.10000000000E+001
  0.38789000000E+005,  0.82743846836E+007,  0.16500000000E+002,  0.00000000000E+000,  0.10000000000E+001
  0.38849000000E+005,  0.82810251188E+007,  0.16500000000E+002,  0.00000000000E+000,  0.10000000000E+001
  0.38909000000E+005,  0.82875582456E+007,  0.16500000000E+002,  0.00000000000E+000,  0.10000000000E+001
  0.38969000000E+005,  0.82939880747E+007,  0.16500000000E+002,  0.00000000000E+000,  0.10000000000E+001
  0.39029000000E+005,  0.83003182553E+007,  0.16500000000E+002,  0.00000000000E+000,  0.10000000000E+001
  0.39089000000E+005,  0.83065521280E+007,  0.16500000000E+002,  0.00000000000E+000,  0.10000000000E+001
  0.39149000000E+005,  0.83126927677E+007,  0.16500000000E+002,  0.00000000000E+000,  0.10000000000E+001
  0.39209000000E+005,  0.83187430187E+007,  0.16500000000E+002,  0.00000000000E+000,  0.10000000000E+001
  0.39269000000E+005,  0.83247055244E+007,  0.16500000000E+002,  0.00000000000E+000,  0.10000000000E+001
  0.39329000000E+005,  0.83305827510E+007,  0.16500000000E+002,  0.00000000000E+000,  0.10000000000E+001
  0.39389000000E+005,  0.83363770086E+007,  0.16500000000E+002,  0.00000000000E+000,  0.10000000000E+001
  0.39449000000E+005,  0.83420904683E+007,  0.16500000000E+002,  0.00000000000E+000,  0.10000000000E+001
  0.39509000000E+005,  0.83477251772E+007,  0.16500000000E+002,  0.00000000000E+000,  0.10000000000E+001
  0.39569000000E+005,  0.83532830705E+007,  0.16500000000E+002,  0.00000000000E+000,  0.10000000000E+001
  0.39629000000E+005,  0.83587659833E+007,  0.16500000000E+002,  0.00000000000E+000,  0.10000000000E+001
  0.39689000000E+005,  0.83641756594E+007,  0.16500000000E+002,  0.00000000000E+000,  0.10000000000E+001
  0.39749000000E+005,  0.83695137595E+007,  0.16500000000E+002,  0.00000000000E+000,  0.10000000000E+001
  0.39809000000E+005,  0.83747818691E+007,  0.16500000000E+002,  0.00000000000E+000,  0.10000000000E+001
  0.39869000000E+005,  0.83799815038E+007,  0.16500000000E+002,  0.00000000000E+000,  0.10000000000E+001
  0.39929000000E+005,  0.83851141159E+007,  0.16500000000E+002,  0.00000000000E+000,  0.10000000000E+001
  0.39989000000E+005,  0.83901810985E+007,  0.16500000000E+002,  0.00000000000E+000,  0.10000000000E+001
  0.40049000000E+005,  0.83951837906E+007,  0.16500000000E+002,  0.00000000000E+000,  0.10000000000E+001
  0.40109000000E+005,  0.84001234804E+007,  0.16500000000E+002,  0.00000000000E+000,  0.10000000000E+001
  0.40169000000E+005,  0.84050014093E+007,  0.16500000000E+002,  0.00000000000E+000,  0.10000000000E+001
  0.40229000000E+005,  0.84098187746E+007,  0.16500000000E+002,  0.00000000000E+000,  0.10000000000E+001
  0.40289000000E+005,  0.84145767328E+007,  0.16500000000E+002,  0.00000000000E+000,  0.10000000000E+001
  0.40349000000E+005,  0.84192764019E+007,  0.16500000000E+002,  0.00000000000E+000,  0.10000000000E+001
  0.40409000000E+005,  0.84239188636E+007,  0.16500000000E+002,  0.00000000000E+000,  0.10000000000E+001
  0.40469000000E+005,  0.84285051657E+007,  0.16500000000E+002,  0.00000000000E+000,  0.10000000000E+001
  0.40529000000E+005,  0.84330363240E+007,  0.16500000000E+002,  0.00000000000E+000,  0.10000000000E+001
  0.40589000000E+005,  0.84375133237E+007,  0.16500000000E+002,  0.00000000000E+000,  0.10000000000E+001
  0.40649000000E+005,  0.84419371216E+007,  0.16500000000E+002,  0.00000000000E+000,  0.10000000000E+001
  0.40709000000E+005,  0.84463086469E+007,  0.16500000000E+002,  0.00000000000E+000,  0.10000000000E+001
  0.40769000000E+005,  0.84506288030E+007,  0.16500000000E+002,  0.00000000000E+000,  0.10000000000E+001
  0.40829000000E+005,  0.84548984689E+007,  0.16500000000E+002,  0.00000000000E+000,  0.10000000000E+001
  0.40889000000E+005,  0.84591184997E+007,  0.16500000000E+002,  0.00000000000E+000,  0.10000000000E+001
  0.40949000000E+005,  0.84632897283E+007,  0.16500000000E+002,  0.00000000000E+000,  0.10000000000E+001
  0.41009000000E+005,  0.84674129663E+007,  0.16500000000E+002,  0.00000000000E+000,  0.10000000000E+001
  0.41069000000E+005,  0.84714890045E+007,  0.16500000000E+002,  0.00000000000E+000,  0.10000000000E+001
  0.41129000000E+005,  0.84755186141E+007,  0.16500000000E+002,  0.00000000000E+000,  0.10000000000E+001
  0.41189000000E+005,  0.84795025476E+007,  0.16500000000E+002,  0.00000000000E+000,  0.10000000000E+001
  0.41249000000E+005,  0.84834415393E+007,  0.16500000000E+002,  0.00000000000E+000,  0.10000000000E+001
  0.41309000000E+005,  0.84873363061E+007,  0.16500000000E+002,  0.00000000000E+000,  0.10000000000E+001
  0.41369000000E+005,  0.84911875481E+007,  0.16500000000E+002,  0.00000000000E+000,  0.10000000000E+001
  0.41429000000E+005,  0.84949959493E+007,  0.16500000000E+002,  0.00000000000E+000,  0.10000000000E+001
  0.41489000000E+005,  0.84987621782E+007,  0.16500000000E+002,  0.00000000000E+000,  0.10000000000E+001
  0.41549000000E+005,  0.85024868883E+007,  0.16500000000E+002,  0.00000000000E+000,  0.10000000000E+001
  0.41609000000E+005,  0.85061707185E+007,  0.16500000000E+002,  0.00000000000E+000,  0.10000000000E+001
  0.41669000000E+005,  0.85098142937E+007,  0.16500000000E+002,  0.00000000000E+000,  0.10000000000E+001
  0.41729000000E+005,  0.85134182255E+007,  0.16500000000E+002,  0.00000000000E+000,  0.10000000000E+001
  0.41789000000E+005,  0.85169831120E+007,  0.16500000000E+002,  0.00000000000E+000,  0.10000000000E+001
  0.41849000000E+005,  0.85205095389E+007,  0.16500000000E+002,  0.00000000000E+000,  0.10000000000E+001
  0.41909000000E+005,  0.85239980796E+007,  0.16500000000E+002,  0.00000000000E+000,  0.10000000000E+001
  0.41969000000E+005,  0.85274492953E+007,  0.16500000000E+002,  0.00000000000E+000,  0.10000000000E+001
  0.42029000000E+005,  0.85072126709E+007,  0.16500000000E+002,  0.00000000000E+000,  0.10000000000E+001
  0.42089000000E+005,  0.84811098302E+007,  0.16500000000E+002,  0.00000000000E+000,  0.10000000000E+001
  0.42149000000E+005,  0.84778106399E+007,  0.16500000000E+002,  0.00000000000E+000,  0.10000000000E+001
  0.42209000000E+005,  0.84773193022E+007,  0.16500000000E+002,  0.00000000000E+000,  0.10000000000E+001
  0.42269000000E+005,  0.84778787975E+007,  0.16500000000E+002,  0.00000000000E+000,  0.10000000000E+001
  0.42329000000E+005,  0.84789990754E+007,  0.16500000000E+002,  0.00000000000E+000,  0.10000000000E+001
  0.42389000000E+005,  0.84804651520E+007,  0.16500000000E+002,  0.00000000000E+000,  0.10000000000E+001
  0.42449000000E+005,  0.84821613535E+007,  0.16500000000E+002,  0.00000000000E+000,  0.10000000000E+001
  0.42509000000E+005,  0.84840201190E+007,  0.16500000000E+002,  0.00000000000E+000,  0.10000000000E+001
  0.42569000000E+005,  0.84859959594E+007,  0.16500000000E+002,  0.00000000000E+000,  0.10000000000E+001
  0.42629000000E+005,  0.84880582586E+007,  0.16500000000E+002,  0.00000000000E+000,  0.10000000000E+001
  0.42689000000E+005,  0.84901848717E+007,  0.16500000000E+002,  0.00000000000E+000,  0.10000000000E+001
  0.42749000000E+005,  0.84923600182E+007,  0.16500000000E+002,  0.00000000000E+000,  0.10000000000E+001
  0.42809000000E+005,  0.84945714081E+007,  0.16500000000E+002,  0.00000000000E+000,  0.10000000000E+001
  0.42869000000E+005,  0.84968095181E+007,  0.16500000000E+002,  0.00000000000E+000,  0.10000000000E+001
  0.42929000000E+005,  0.84990668490E+007,  0.16500000000E+002,  0.00000000000E+000,  0.10000000000E+001
  0.42989000000E+005,  0.85013376075E+007,  0.16500000000E+002,  0.00000000000E+000,  0.10000000000E+001
  0.43049000000E+005,  0.85036170378E+007,  0.16500000000E+002,  0.00000000000E+000,  0.10000000000E+001
  0.43109000000E+005,  0.85059012442E+007,  0.16500000000E+002,  0.00000000000E+000,  0.10000000000E+001
  0.43169000000E+005,  0.85081870178E+007,  0.16500000000E+002,  0.00000000000E+000,  0.10000000000E+001
  0.43229000000E+005,  0.85104716945E+007,  0.16500000000E+002,  0.00000000000E+000,  0.10000000000E+001
  0.43289000000E+005,  0.85127530469E+007,  0.16500000000E+002,  0.00000000000E+000,  0.10000000000E+001
  0.43349000000E+005,  0.85150292020E+007,  0.16500000000E+002,  0.00000000000E+000,  0.10000000000E+001
  0.43409000000E+005,  0.85172985773E+007,  0.16500000000E+002,  0.00000000000E+000,  0.10000000000E+001
  0.43469000000E+005,  0.85195598303E+007,  0.16500000000E+002,  0.00000000000E+000,  0.10000000000E+001
  0.43529000000E+005,  0.85218118192E+007,  0.16500000000E+002,  0.00000000000E+000,  0.10000000000E+001
  0.43589000000E+005,  0.85240535706E+007,  0.16500000000E+002,  0.00000000000E+000,  0.10000000000E+001
  0.43649000000E+005,  0.85262842534E+007,  0.16500000000E+002,  0.00000000000E+000,  0.10000000000E+001
  0.43709000000E+005,  0.85285031579E+007,  0.16500000000E+002,  0.00000000000E+000,  0.10000000000E+001
  0.43769000000E+005,  0.85307096783E+007,  0.16500000000E+002,  0.00000000000E+000,  0.10000000000E+001
