"           TIME(S)","              PRES","              TEMP","             SAT_G","             SAT_L"
  0.94880000000E+005,  0.69278156950E+006,  0.16500000000E+002,  0.00000000000E+000,  0.10000000000E+001
  0.94890000000E+005,  0.69278156950E+006,  0.16500000000E+002,  0.00000000000E+000,  0.10000000000E+001
  0.94920000000E+005,  0.69278156950E+006,  0.16500000000E+002,  0.00000000000E+000,  0.10000000000E+001
  0.94950000000E+005,  0.69278156950E+006,  0.16500000000E+002,  0.00000000000E+000,  0.10000000000E+001
  0.94980000000E+005,  0.69278156950E+006,  0.16500000000E+002,  0.00000000000E+000,  0.10000000000E+001
  0.95010000000E+005,  0.69278156950E+006,  0.16500000000E+002,  0.00000000000E+000,  0.10000000000E+001
  0.95040000000E+005,  0.69278156950E+006,  0.16500000000E+002,  0.00000000000E+000,  0.10000000000E+001
  0.95070000000E+005,  0.69278156950E+006,  0.16500000000E+002,  0.00000000000E+000,  0.10000000000E+001
  0.95100000000E+005,  0.69278156950E+006,  0.16500000000E+002,  0.00000000000E+000,  0.10000000000E+001
  0.95130000000E+005,  0.69278156950E+006,  0.16500000000E+002,  0.00000000000E+000,  0.10000000000E+001
  0.95160000000E+005,  0.69278156950E+006,  0.16500000000E+002,  0.00000000000E+000,  0.10000000000E+001
  0.95190000000E+005,  0.69278156951E+006,  0.16500000000E+002,  0.00000000000E+000,  0.10000000000E+001
  0.95220000000E+005,  0.69278156951E+006,  0.16500000000E+002,  0.00000000000E+000,  0.10000000000E+001
  0.95250000000E+005,  0.69278156951E+006,  0.16500000000E+002,  0.00000000000E+000,  0.10000000000E+001
  0.95280000000E+005,  0.69278156952E+006,  0.16500000000E+002,  0.00000000000E+000,  0.10000000000E+001
  0.95310000000E+005,  0.69278156953E+006,  0.16500000000E+002,  0.00000000000E+000,  0.10000000000E+001
  0.95340000000E+005,  0.69278156954E+006,  0.16500000000E+002,  0.00000000000E+000,  0.10000000000E+001
  0.95370000000E+005,  0.69278156955E+006,  0.16500000000E+002,  0.00000000000E+000,  0.10000000000E+001
  0.95400000000E+005,  0.69278156957E+006,  0.16500000000E+002,  0.00000000000E+000,  0.10000000000E+001
  0.95430000000E+005,  0.69278156959E+006,  0.16500000000E+002,  0.00000000000E+000,  0.10000000000E+001
  0.95460000000E+005,  0.69278156962E+006,  0.16500000000E+002,  0.00000000000E+000,  0.10000000000E+001
  0.95490000000E+005,  0.69278156965E+006,  0.16500000000E+002,  0.00000000000E+000,  0.10000000000E+001
  0.95520000000E+005,  0.69278156969E+006,  0.16500000000E+002,  0.00000000000E+000,  0.10000000000E+001
  0.95550000000E+005,  0.69278156974E+006,  0.16500000000E+002,  0.00000000000E+000,  0.10000000000E+001
  0.95580000000E+005,  0.69278156979E+006,  0.16500000000E+002,  0.00000000000E+000,  0.10000000000E+001
  0.95610000000E+005,  0.69278156986E+006,  0.16500000000E+002,  0.00000000000E+000,  0.10000000000E+001
  0.95640000000E+005,  0.69278156993E+006,  0.16500000000E+002,  0.00000000000E+000,  0.10000000000E+001
  0.95670000000E+005,  0.69278157001E+006,  0.16500000000E+002,  0.00000000000E+000,  0.10000000000E+001
  0.95700000000E+005,  0.69278157011E+006,  0.16500000000E+002,  0.00000000000E+000,  0.10000000000E+001
  0.95730000000E+005,  0.69278157022E+006,  0.16500000000E+002,  0.00000000000E+000,  0.10000000000E+001
  0.95760000000E+005,  0.69278157034E+006,  0.16500000000E+002,  0.00000000000E+000,  0.10000000000E+001
  0.95790000000E+005,  0.69278157047E+006,  0.16500000000E+002,  0.00000000000E+000,  0.10000000000E+001
  0.95820000000E+005,  0.69278157062E+006,  0.16500000000E+002,  0.00000000000E+000,  0.10000000000E+001
  0.95850000000E+005,  0.69278157079E+006,  0.16500000000E+002,  0.00000000000E+000,  0.10000000000E+001
  0.95880000000E+005,  0.69278157098E+006,  0.16500000000E+002,  0.00000000000E+000,  0.10000000000E+001
  0.95910000000E+005,  0.69278157118E+006,  0.16500000000E+002,  0.00000000000E+000,  0.10000000000E+001
  0.95940000000E+005,  0.69278157140E+006,  0.16500000000E+002,  0.00000000000E+000,  0.10000000000E+001
  0.95970000000E+005,  0.69278157165E+006,  0.16500000000E+002,  0.00000000000E+000,  0.10000000000E+001
  0.96000000000E+005,  0.69278157192E+006,  0.16500000000E+002,  0.00000000000E+000,  0.10000000000E+001
  0.96030000000E+005,  0.69278157221E+006,  0.16500000000E+002,  0.00000000000E+000,  0.10000000000E+001
  0.96060000000E+005,  0.69278157253E+006,  0.16500000000E+002,  0.00000000000E+000,  0.10000000000E+001
  0.96090000000E+005,  0.69278157287E+006,  0.16500000000E+002,  0.00000000000E+000,  0.10000000000E+001
  0.96120000000E+005,  0.69278157324E+006,  0.16500000000E+002,  0.00000000000E+000,  0.10000000000E+001
  0.96150000000E+005,  0.69278157364E+006,  0.16500000000E+002,  0.00000000000E+000,  0.10000000000E+001
  0.96180000000E+005,  0.69278157407E+006,  0.16500000000E+002,  0.00000000000E+000,  0.10000000000E+001
  0.96210000000E+005,  0.69278157453E+006,  0.16500000000E+002,  0.00000000000E+000,  0.10000000000E+001
  0.96240000000E+005,  0.69278157503E+006,  0.16500000000E+002,  0.00000000000E+000,  0.10000000000E+001
  0.96270000000E+005,  0.69278157556E+006,  0.16500000000E+002,  0.00000000000E+000,  0.10000000000E+001
  0.96300000000E+005,  0.69278157612E+006,  0.16500000000E+002,  0.00000000000E+000,  0.10000000000E+001
  0.96330000000E+005,  0.69278157672E+006,  0.16500000000E+002,  0.00000000000E+000,  0.10000000000E+001
  0.96360000000E+005,  0.69278157736E+006,  0.16500000000E+002,  0.00000000000E+000,  0.10000000000E+001
  0.96390000000E+005,  0.69278157804E+006,  0.16500000000E+002,  0.00000000000E+000,  0.10000000000E+001
  0.96420000000E+005,  0.69278157877E+006,  0.16500000000E+002,  0.00000000000E+000,  0.10000000000E+001
  0.96450000000E+005,  0.69278157953E+006,  0.16500000000E+002,  0.00000000000E+000,  0.10000000000E+001
  0.96480000000E+005,  0.69278158034E+006,  0.16500000000E+002,  0.00000000000E+000,  0.10000000000E+001
  0.96510000000E+005,  0.69278158119E+006,  0.16500000000E+002,  0.00000000000E+000,  0.10000000000E+001
  0.96540000000E+005,  0.69278158209E+006,  0.16500000000E+002,  0.00000000000E+000,  0.10000000000E+001
  0.96570000000E+005,  0.69278158304E+006,  0.16500000000E+002,  0.00000000000E+000,  0.10000000000E+001
  0.96600000000E+005,  0.69278158404E+006,  0.16500000000E+002,  0.00000000000E+000,  0.10000000000E+001
  0.96630000000E+005,  0.69278158509E+006,  0.16500000000E+002,  0.00000000000E+000,  0.10000000000E+001
  0.96660000000E+005,  0.69278158619E+006,  0.16500000000E+002,  0.00000000000E+000,  0.10000000000E+001
  0.96690000000E+005,  0.69278158735E+006,  0.16500000000E+002,  0.00000000000E+000,  0.10000000000E+001
  0.96720000000E+005,  0.69278158857E+006,  0.16500000000E+002,  0.00000000000E+000,  0.10000000000E+001
  0.96750000000E+005,  0.69278158984E+006,  0.16500000000E+002,  0.00000000000E+000,  0.10000000000E+001
  0.96780000000E+005,  0.69278159117E+006,  0.16500000000E+002,  0.00000000000E+000,  0.10000000000E+001
  0.96810000000E+005,  0.69278159256E+006,  0.16500000000E+002,  0.00000000000E+000,  0.10000000000E+001
  0.96840000000E+005,  0.69278159402E+006,  0.16500000000E+002,  0.00000000000E+000,  0.10000000000E+001
  0.96870000000E+005,  0.69278159554E+006,  0.16500000000E+002,  0.00000000000E+000,  0.10000000000E+001
  0.96900000000E+005,  0.69278159712E+006,  0.16500000000E+002,  0.00000000000E+000,  0.10000000000E+001
  0.96930000000E+005,  0.69278159877E+006,  0.16500000000E+002,  0.00000000000E+000,  0.10000000000E+001
  0.96960000000E+005,  0.69278160049E+006,  0.16500000000E+002,  0.00000000000E+000,  0.10000000000E+001
  0.96990000000E+005,  0.69278160228E+006,  0.16500000000E+002,  0.00000000000E+000,  0.10000000000E+001
  0.97020000000E+005,  0.69278160414E+006,  0.16500000000E+002,  0.00000000000E+000,  0.10000000000E+001
  0.97050000000E+005,  0.69278160607E+006,  0.16500000000E+002,  0.00000000000E+000,  0.10000000000E+001
  0.97080000000E+005,  0.69278160808E+006,  0.16500000000E+002,  0.00000000000E+000,  0.10000000000E+001
  0.97110000000E+005,  0.69278161016E+006,  0.16500000000E+002,  0.00000000000E+000,  0.10000000000E+001
  0.97140000000E+005,  0.69278161233E+006,  0.16500000000E+002,  0.00000000000E+000,  0.10000000000E+001
  0.97170000000E+005,  0.69278161457E+006,  0.16500000000E+002,  0.00000000000E+000,  0.10000000000E+001
  0.97200000000E+005,  0.69278161689E+006,  0.16500000000E+002,  0.00000000000E+000,  0.10000000000E+001
  0.97230000000E+005,  0.69278161930E+006,  0.16500000000E+002,  0.00000000000E+000,  0.10000000000E+001
  0.97260000000E+005,  0.69278162179E+006,  0.16500000000E+002,  0.00000000000E+000,  0.10000000000E+001
  0.97290000000E+005,  0.69278162437E+006,  0.16500000000E+002,  0.00000000000E+000,  0.10000000000E+001
  0.97320000000E+005,  0.69278162703E+006,  0.16500000000E+002,  0.00000000000E+000,  0.10000000000E+001
  0.97350000000E+005,  0.69278162978E+006,  0.16500000000E+002,  0.00000000000E+000,  0.10000000000E+001
  0.97380000000E+005,  0.69278163263E+006,  0.16500000000E+002,  0.00000000000E+000,  0.10000000000E+001
  0.97410000000E+005,  0.69278163557E+006,  0.16500000000E+002,  0.00000000000E+000,  0.10000000000E+001
  0.97440000000E+005,  0.69278163860E+006,  0.16500000000E+002,  0.00000000000E+000,  0.10000000000E+001
  0.97470000000E+005,  0.69278164172E+006,  0.16500000000E+002,  0.00000000000E+000,  0.10000000000E+001
  0.97500000000E+005,  0.69278164495E+006,  0.16500000000E+002,  0.00000000000E+000,  0.10000000000E+001
  0.97530000000E+005,  0.69278164827E+006,  0.16500000000E+002,  0.00000000000E+000,  0.10000000000E+001
  0.97560000000E+005,  0.69278165169E+006,  0.16500000000E+002,  0.00000000000E+000,  0.10000000000E+001
  0.97590000000E+005,  0.69278165522E+006,  0.16500000000E+002,  0.00000000000E+000,  0.10000000000E+001
  0.97620000000E+005,  0.69278165885E+006,  0.16500000000E+002,  0.00000000000E+000,  0.10000000000E+001
  0.97650000000E+005,  0.69278166259E+006,  0.16500000000E+002,  0.00000000000E+000,  0.10000000000E+001
  0.97680000000E+005,  0.69278166643E+006,  0.16500000000E+002,  0.00000000000E+000,  0.10000000000E+001
  0.97710000000E+005,  0.69278167038E+006,  0.16500000000E+002,  0.00000000000E+000,  0.10000000000E+001
  0.97740000000E+005,  0.69278167444E+006,  0.16500000000E+002,  0.00000000000E+000,  0.10000000000E+001
  0.97770000000E+005,  0.69278167862E+006,  0.16500000000E+002,  0.00000000000E+000,  0.10000000000E+001
  0.97800000000E+005,  0.69278168291E+006,  0.16500000000E+002,  0.00000000000E+000,  0.10000000000E+001
  0.97830000000E+005,  0.69278168731E+006,  0.16500000000E+002,  0.00000000000E+000,  0.10000000000E+001
  0.97860000000E+005,  0.69278169183E+006,  0.16500000000E+002,  0.00000000000E+000,  0.10000000000E+001
  0.97890000000E+005,  0.69278169647E+006,  0.16500000000E+002,  0.00000000000E+000,  0.10000000000E+001
  0.97920000000E+005,  0.69278170123E+006,  0.16500000000E+002,  0.00000000000E+000,  0.10000000000E+001
  0.97950000000E+005,  0.69278170611E+006,  0.16500000000E+002,  0.00000000000E+000,  0.10000000000E+001
  0.97980000000E+005,  0.69278171112E+006,  0.16500000000E+002,  0.00000000000E+000,  0.10000000000E+001
  0.98010000000E+005,  0.69278171625E+006,  0.16500000000E+002,  0.00000000000E+000,  0.10000000000E+001
  0.98040000000E+005,  0.69278172151E+006,  0.16500000000E+002,  0.00000000000E+000,  0.10000000000E+001
  0.98070000000E+005,  0.69278172689E+006,  0.16500000000E+002,  0.00000000000E+000,  0.10000000000E+001
  0.98100000000E+005,  0.69278173241E+006,  0.16500000000E+002,  0.00000000000E+000,  0.10000000000E+001
  0.98130000000E+005,  0.69278173806E+006,  0.16500000000E+002,  0.00000000000E+000,  0.10000000000E+001
  0.98160000000E+005,  0.69278174384E+006,  0.16500000000E+002,  0.00000000000E+000,  0.10000000000E+001
  0.98190000000E+005,  0.69278174976E+006,  0.16500000000E+002,  0.00000000000E+000,  0.10000000000E+001
  0.98220000000E+005,  0.69278175582E+006,  0.16500000000E+002,  0.00000000000E+000,  0.10000000000E+001
  0.98250000000E+005,  0.69278176201E+006,  0.16500000000E+002,  0.00000000000E+000,  0.10000000000E+001
  0.98280000000E+005,  0.69278176835E+006,  0.16500000000E+002,  0.00000000000E+000,  0.10000000000E+001
  0.98310000000E+005,  0.69278177482E+006,  0.16500000000E+002,  0.00000000000E+000,  0.10000000000E+001
  0.98340000000E+005,  0.69278178144E+006,  0.16500000000E+002,  0.00000000000E+000,  0.10000000000E+001
  0.98370000000E+005,  0.69278178821E+006,  0.16500000000E+002,  0.00000000000E+000,  0.10000000000E+001
  0.98400000000E+005,  0.69278179512E+006,  0.16500000000E+002,  0.00000000000E+000,  0.10000000000E+001
  0.98430000000E+005,  0.69278180218E+006,  0.16500000000E+002,  0.00000000000E+000,  0.10000000000E+001
  0.98460000000E+005,  0.69278180939E+006,  0.16500000000E+002,  0.00000000000E+000,  0.10000000000E+001
  0.98490000000E+005,  0.69278181675E+006,  0.16500000000E+002,  0.00000000000E+000,  0.10000000000E+001
  0.98520000000E+005,  0.69278182427E+006,  0.16500000000E+002,  0.00000000000E+000,  0.10000000000E+001
  0.98533000000E+005,  0.69278182756E+006,  0.16500000000E+002,  0.00000000000E+000,  0.10000000000E+001
