"           TIME(S)","              PRES","              TEMP","             SAT_G","             SAT_L"
  0.47568000000E+005,  0.85223617218E+007,  0.16500000000E+002,  0.00000000000E+000,  0.10000000000E+001
  0.47573000000E+005,  0.68789139790E+007,  0.16500000000E+002,  0.00000000000E+000,  0.10000000000E+001
  0.47598000000E+005,  0.51876679870E+007,  0.16500000000E+002,  0.00000000000E+000,  0.10000000000E+001
  0.47658000000E+005,  0.44063139339E+007,  0.16500000000E+002,  0.00000000000E+000,  0.10000000000E+001
  0.47718000000E+005,  0.40834974501E+007,  0.16500000000E+002,  0.00000000000E+000,  0.10000000000E+001
  0.47778000000E+005,  0.38883838989E+007,  0.16500000000E+002,  0.00000000000E+000,  0.10000000000E+001
  0.47838000000E+005,  0.37477565571E+007,  0.16500000000E+002,  0.00000000000E+000,  0.10000000000E+001
  0.47898000000E+005,  0.36371166001E+007,  0.16500000000E+002,  0.00000000000E+000,  0.10000000000E+001
  0.47958000000E+005,  0.35456296921E+007,  0.16500000000E+002,  0.00000000000E+000,  0.10000000000E+001
  0.48018000000E+005,  0.34670111290E+007,  0.16500000000E+002,  0.00000000000E+000,  0.10000000000E+001
  0.48078000000E+005,  0.33974894015E+007,  0.16500000000E+002,  0.00000000000E+000,  0.10000000000E+001
  0.48138000000E+005,  0.33365802637E+007,  0.16500000000E+002,  0.00000000000E+000,  0.10000000000E+001
  0.48198000000E+005,  0.32819280664E+007,  0.16500000000E+002,  0.00000000000E+000,  0.10000000000E+001
  0.48258000000E+005,  0.32322958228E+007,  0.16500000000E+002,  0.00000000000E+000,  0.10000000000E+001
  0.48318000000E+005,  0.31868149505E+007,  0.16500000000E+002,  0.00000000000E+000,  0.10000000000E+001
  0.48378000000E+005,  0.31448330327E+007,  0.16500000000E+002,  0.00000000000E+000,  0.10000000000E+001
  0.48438000000E+005,  0.31058431054E+007,  0.16500000000E+002,  0.00000000000E+000,  0.10000000000E+001
  0.48498000000E+005,  0.30694427808E+007,  0.16500000000E+002,  0.00000000000E+000,  0.10000000000E+001
  0.48558000000E+005,  0.30353069714E+007,  0.16500000000E+002,  0.00000000000E+000,  0.10000000000E+001
  0.48618000000E+005,  0.30031688638E+007,  0.16500000000E+002,  0.00000000000E+000,  0.10000000000E+001
  0.48678000000E+005,  0.29728068907E+007,  0.16500000000E+002,  0.00000000000E+000,  0.10000000000E+001
  0.48738000000E+005,  0.29440347448E+007,  0.16500000000E+002,  0.00000000000E+000,  0.10000000000E+001
  0.48798000000E+005,  0.29166942963E+007,  0.16500000000E+002,  0.00000000000E+000,  0.10000000000E+001
  0.48858000000E+005,  0.28906501431E+007,  0.16500000000E+002,  0.00000000000E+000,  0.10000000000E+001
  0.48918000000E+005,  0.28657852915E+007,  0.16500000000E+002,  0.00000000000E+000,  0.10000000000E+001
  0.48978000000E+005,  0.28419980896E+007,  0.16500000000E+002,  0.00000000000E+000,  0.10000000000E+001
  0.49038000000E+005,  0.28191994391E+007,  0.16500000000E+002,  0.00000000000E+000,  0.10000000000E+001
  0.49098000000E+005,  0.27973109509E+007,  0.16500000000E+002,  0.00000000000E+000,  0.10000000000E+001
  0.49158000000E+005,  0.27762632570E+007,  0.16500000000E+002,  0.00000000000E+000,  0.10000000000E+001
  0.49218000000E+005,  0.27559945973E+007,  0.16500000000E+002,  0.00000000000E+000,  0.10000000000E+001
  0.49278000000E+005,  0.27364498337E+007,  0.16500000000E+002,  0.00000000000E+000,  0.10000000000E+001
  0.49338000000E+005,  0.27175794649E+007,  0.16500000000E+002,  0.00000000000E+000,  0.10000000000E+001
  0.49398000000E+005,  0.26993388885E+007,  0.16500000000E+002,  0.00000000000E+000,  0.10000000000E+001
  0.49458000000E+005,  0.26816878034E+007,  0.16500000000E+002,  0.00000000000E+000,  0.10000000000E+001
  0.49518000000E+005,  0.26645896715E+007,  0.16500000000E+002,  0.00000000000E+000,  0.10000000000E+001
  0.49578000000E+005,  0.26480112238E+007,  0.16500000000E+002,  0.00000000000E+000,  0.10000000000E+001
  0.49638000000E+005,  0.26319221060E+007,  0.16500000000E+002,  0.00000000000E+000,  0.10000000000E+001
  0.49698000000E+005,  0.26162945770E+007,  0.16500000000E+002,  0.00000000000E+000,  0.10000000000E+001
  0.49758000000E+005,  0.26011031625E+007,  0.16500000000E+002,  0.00000000000E+000,  0.10000000000E+001
  0.49818000000E+005,  0.25863244453E+007,  0.16500000000E+002,  0.00000000000E+000,  0.10000000000E+001
  0.49878000000E+005,  0.25719368499E+007,  0.16500000000E+002,  0.00000000000E+000,  0.10000000000E+001
  0.49938000000E+005,  0.25579204322E+007,  0.16500000000E+002,  0.00000000000E+000,  0.10000000000E+001
  0.49998000000E+005,  0.25442567645E+007,  0.16500000000E+002,  0.00000000000E+000,  0.10000000000E+001
  0.50058000000E+005,  0.25309287409E+007,  0.16500000000E+002,  0.00000000000E+000,  0.10000000000E+001
  0.50118000000E+005,  0.25179204779E+007,  0.16500000000E+002,  0.00000000000E+000,  0.10000000000E+001
  0.50178000000E+005,  0.25052171824E+007,  0.16500000000E+002,  0.00000000000E+000,  0.10000000000E+001
  0.50238000000E+005,  0.24928050808E+007,  0.16500000000E+002,  0.00000000000E+000,  0.10000000000E+001
  0.50298000000E+005,  0.24806712971E+007,  0.16500000000E+002,  0.00000000000E+000,  0.10000000000E+001
  0.50358000000E+005,  0.24688037805E+007,  0.16500000000E+002,  0.00000000000E+000,  0.10000000000E+001
  0.50418000000E+005,  0.24571912791E+007,  0.16500000000E+002,  0.00000000000E+000,  0.10000000000E+001
  0.50478000000E+005,  0.24458232260E+007,  0.16500000000E+002,  0.00000000000E+000,  0.10000000000E+001
  0.50538000000E+005,  0.24346896765E+007,  0.16500000000E+002,  0.00000000000E+000,  0.10000000000E+001
  0.50598000000E+005,  0.24237813155E+007,  0.16500000000E+002,  0.00000000000E+000,  0.10000000000E+001
  0.50658000000E+005,  0.24130893399E+007,  0.16500000000E+002,  0.00000000000E+000,  0.10000000000E+001
  0.50718000000E+005,  0.24026054854E+007,  0.16500000000E+002,  0.00000000000E+000,  0.10000000000E+001
  0.50778000000E+005,  0.23923219197E+007,  0.16500000000E+002,  0.00000000000E+000,  0.10000000000E+001
  0.50838000000E+005,  0.23822312715E+007,  0.16500000000E+002,  0.00000000000E+000,  0.10000000000E+001
  0.50898000000E+005,  0.23723265452E+007,  0.16500000000E+002,  0.00000000000E+000,  0.10000000000E+001
  0.50958000000E+005,  0.23626011442E+007,  0.16500000000E+002,  0.00000000000E+000,  0.10000000000E+001
  0.51018000000E+005,  0.23530487920E+007,  0.16500000000E+002,  0.00000000000E+000,  0.10000000000E+001
  0.51078000000E+005,  0.23436635561E+007,  0.16500000000E+002,  0.00000000000E+000,  0.10000000000E+001
  0.51138000000E+005,  0.23344397930E+007,  0.16500000000E+002,  0.00000000000E+000,  0.10000000000E+001
  0.51198000000E+005,  0.23253721340E+007,  0.16500000000E+002,  0.00000000000E+000,  0.10000000000E+001
  0.51258000000E+005,  0.23164554989E+007,  0.16500000000E+002,  0.00000000000E+000,  0.10000000000E+001
  0.51318000000E+005,  0.23076850229E+007,  0.16500000000E+002,  0.00000000000E+000,  0.10000000000E+001
  0.51378000000E+005,  0.22990560849E+007,  0.16500000000E+002,  0.00000000000E+000,  0.10000000000E+001
  0.51438000000E+005,  0.22905642825E+007,  0.16500000000E+002,  0.00000000000E+000,  0.10000000000E+001
  0.51498000000E+005,  0.22822054083E+007,  0.16500000000E+002,  0.00000000000E+000,  0.10000000000E+001
  0.51558000000E+005,  0.22739754410E+007,  0.16500000000E+002,  0.00000000000E+000,  0.10000000000E+001
  0.51618000000E+005,  0.22658705540E+007,  0.16500000000E+002,  0.00000000000E+000,  0.10000000000E+001
  0.51678000000E+005,  0.22578870785E+007,  0.16500000000E+002,  0.00000000000E+000,  0.10000000000E+001
  0.51738000000E+005,  0.22500215020E+007,  0.16500000000E+002,  0.00000000000E+000,  0.10000000000E+001
  0.51798000000E+005,  0.22422704665E+007,  0.16500000000E+002,  0.00000000000E+000,  0.10000000000E+001
  0.51858000000E+005,  0.22346307592E+007,  0.16500000000E+002,  0.00000000000E+000,  0.10000000000E+001
  0.51918000000E+005,  0.22270992907E+007,  0.16500000000E+002,  0.00000000000E+000,  0.10000000000E+001
  0.51978000000E+005,  0.22196730953E+007,  0.16500000000E+002,  0.00000000000E+000,  0.10000000000E+001
  0.52038000000E+005,  0.22123493388E+007,  0.16500000000E+002,  0.00000000000E+000,  0.10000000000E+001
  0.52098000000E+005,  0.22051252994E+007,  0.16500000000E+002,  0.00000000000E+000,  0.10000000000E+001
  0.52158000000E+005,  0.21979983500E+007,  0.16500000000E+002,  0.00000000000E+000,  0.10000000000E+001
  0.52218000000E+005,  0.21909659781E+007,  0.16500000000E+002,  0.00000000000E+000,  0.10000000000E+001
  0.52278000000E+005,  0.21840257611E+007,  0.16500000000E+002,  0.00000000000E+000,  0.10000000000E+001
  0.52338000000E+005,  0.21771753628E+007,  0.16500000000E+002,  0.00000000000E+000,  0.10000000000E+001
  0.52398000000E+005,  0.21704125431E+007,  0.16500000000E+002,  0.00000000000E+000,  0.10000000000E+001
  0.52458000000E+005,  0.21637351455E+007,  0.16500000000E+002,  0.00000000000E+000,  0.10000000000E+001
  0.52518000000E+005,  0.21571410858E+007,  0.16500000000E+002,  0.00000000000E+000,  0.10000000000E+001
  0.52578000000E+005,  0.21506283543E+007,  0.16500000000E+002,  0.00000000000E+000,  0.10000000000E+001
  0.52638000000E+005,  0.21441950185E+007,  0.16500000000E+002,  0.00000000000E+000,  0.10000000000E+001
  0.52698000000E+005,  0.21378392129E+007,  0.16500000000E+002,  0.00000000000E+000,  0.10000000000E+001
  0.52758000000E+005,  0.21315591304E+007,  0.16500000000E+002,  0.00000000000E+000,  0.10000000000E+001
  0.52818000000E+005,  0.21253530357E+007,  0.16500000000E+002,  0.00000000000E+000,  0.10000000000E+001
  0.52878000000E+005,  0.21192192454E+007,  0.16500000000E+002,  0.00000000000E+000,  0.10000000000E+001
  0.52938000000E+005,  0.21131561377E+007,  0.16500000000E+002,  0.00000000000E+000,  0.10000000000E+001
  0.52998000000E+005,  0.21071621359E+007,  0.16500000000E+002,  0.00000000000E+000,  0.10000000000E+001
  0.53058000000E+005,  0.21012357287E+007,  0.16500000000E+002,  0.00000000000E+000,  0.10000000000E+001
  0.53118000000E+005,  0.20953754435E+007,  0.16500000000E+002,  0.00000000000E+000,  0.10000000000E+001
  0.53178000000E+005,  0.20895798548E+007,  0.16500000000E+002,  0.00000000000E+000,  0.10000000000E+001
  0.53238000000E+005,  0.20838475928E+007,  0.16500000000E+002,  0.00000000000E+000,  0.10000000000E+001
  0.53298000000E+005,  0.20781773232E+007,  0.16500000000E+002,  0.00000000000E+000,  0.10000000000E+001
  0.53358000000E+005,  0.20725677537E+007,  0.16500000000E+002,  0.00000000000E+000,  0.10000000000E+001
  0.53418000000E+005,  0.20670176327E+007,  0.16500000000E+002,  0.00000000000E+000,  0.10000000000E+001
  0.53478000000E+005,  0.20615257469E+007,  0.16500000000E+002,  0.00000000000E+000,  0.10000000000E+001
  0.53538000000E+005,  0.20560909215E+007,  0.16500000000E+002,  0.00000000000E+000,  0.10000000000E+001
  0.53598000000E+005,  0.20507120130E+007,  0.16500000000E+002,  0.00000000000E+000,  0.10000000000E+001
  0.53658000000E+005,  0.20453879217E+007,  0.16500000000E+002,  0.00000000000E+000,  0.10000000000E+001
  0.53718000000E+005,  0.20401175659E+007,  0.16500000000E+002,  0.00000000000E+000,  0.10000000000E+001
  0.53778000000E+005,  0.20348999084E+007,  0.16500000000E+002,  0.00000000000E+000,  0.10000000000E+001
  0.53838000000E+005,  0.20297339376E+007,  0.16500000000E+002,  0.00000000000E+000,  0.10000000000E+001
  0.53898000000E+005,  0.20246186664E+007,  0.16500000000E+002,  0.00000000000E+000,  0.10000000000E+001
  0.53958000000E+005,  0.20195531395E+007,  0.16500000000E+002,  0.00000000000E+000,  0.10000000000E+001
  0.54018000000E+005,  0.20150693190E+007,  0.16500000000E+002,  0.00000000000E+000,  0.10000000000E+001
  0.54078000000E+005,  0.20114779482E+007,  0.16500000000E+002,  0.00000000000E+000,  0.10000000000E+001
  0.54138000000E+005,  0.20069362977E+007,  0.16500000000E+002,  0.00000000000E+000,  0.10000000000E+001
  0.54198000000E+005,  0.20022631775E+007,  0.16500000000E+002,  0.00000000000E+000,  0.10000000000E+001
  0.54258000000E+005,  0.19975726819E+007,  0.16500000000E+002,  0.00000000000E+000,  0.10000000000E+001
  0.54318000000E+005,  0.19928950119E+007,  0.16500000000E+002,  0.00000000000E+000,  0.10000000000E+001
  0.54378000000E+005,  0.19882416520E+007,  0.16500000000E+002,  0.00000000000E+000,  0.10000000000E+001
  0.54438000000E+005,  0.19836179775E+007,  0.16500000000E+002,  0.00000000000E+000,  0.10000000000E+001
  0.54498000000E+005,  0.19790268174E+007,  0.16500000000E+002,  0.00000000000E+000,  0.10000000000E+001
  0.54558000000E+005,  0.19744697288E+007,  0.16500000000E+002,  0.00000000000E+000,  0.10000000000E+001
  0.54618000000E+005,  0.19699475616E+007,  0.16500000000E+002,  0.00000000000E+000,  0.10000000000E+001
  0.54678000000E+005,  0.19654607408E+007,  0.16500000000E+002,  0.00000000000E+000,  0.10000000000E+001
  0.54738000000E+005,  0.19610094160E+007,  0.16500000000E+002,  0.00000000000E+000,  0.10000000000E+001
  0.54798000000E+005,  0.19565935583E+007,  0.16500000000E+002,  0.00000000000E+000,  0.10000000000E+001
  0.54858000000E+005,  0.19522130195E+007,  0.16500000000E+002,  0.00000000000E+000,  0.10000000000E+001
  0.54918000000E+005,  0.19478675627E+007,  0.16500000000E+002,  0.00000000000E+000,  0.10000000000E+001
  0.54978000000E+005,  0.19435568986E+007,  0.16500000000E+002,  0.00000000000E+000,  0.10000000000E+001
  0.55038000000E+005,  0.19392806912E+007,  0.16500000000E+002,  0.00000000000E+000,  0.10000000000E+001
  0.55098000000E+005,  0.19350385777E+007,  0.16500000000E+002,  0.00000000000E+000,  0.10000000000E+001
  0.55158000000E+005,  0.19308301742E+007,  0.16500000000E+002,  0.00000000000E+000,  0.10000000000E+001
  0.55218000000E+005,  0.19266550844E+007,  0.16500000000E+002,  0.00000000000E+000,  0.10000000000E+001
  0.55278000000E+005,  0.19225129025E+007,  0.16500000000E+002,  0.00000000000E+000,  0.10000000000E+001
  0.55338000000E+005,  0.19184032197E+007,  0.16500000000E+002,  0.00000000000E+000,  0.10000000000E+001
  0.55398000000E+005,  0.19143256226E+007,  0.16500000000E+002,  0.00000000000E+000,  0.10000000000E+001
  0.55458000000E+005,  0.19102796960E+007,  0.16500000000E+002,  0.00000000000E+000,  0.10000000000E+001
  0.55518000000E+005,  0.19062650304E+007,  0.16500000000E+002,  0.00000000000E+000,  0.10000000000E+001
  0.55578000000E+005,  0.19022812185E+007,  0.16500000000E+002,  0.00000000000E+000,  0.10000000000E+001
  0.55638000000E+005,  0.18983278527E+007,  0.16500000000E+002,  0.00000000000E+000,  0.10000000000E+001
  0.55698000000E+005,  0.18944045326E+007,  0.16500000000E+002,  0.00000000000E+000,  0.10000000000E+001
  0.55758000000E+005,  0.18905108640E+007,  0.16500000000E+002,  0.00000000000E+000,  0.10000000000E+001
  0.55818000000E+005,  0.18866464544E+007,  0.16500000000E+002,  0.00000000000E+000,  0.10000000000E+001
  0.55878000000E+005,  0.18828109186E+007,  0.16500000000E+002,  0.00000000000E+000,  0.10000000000E+001
  0.55938000000E+005,  0.18790038790E+007,  0.16500000000E+002,  0.00000000000E+000,  0.10000000000E+001
  0.55998000000E+005,  0.18752249597E+007,  0.16500000000E+002,  0.00000000000E+000,  0.10000000000E+001
  0.56058000000E+005,  0.18714737966E+007,  0.16500000000E+002,  0.00000000000E+000,  0.10000000000E+001
  0.56118000000E+005,  0.18677500264E+007,  0.16500000000E+002,  0.00000000000E+000,  0.10000000000E+001
  0.56178000000E+005,  0.18640532948E+007,  0.16500000000E+002,  0.00000000000E+000,  0.10000000000E+001
  0.56238000000E+005,  0.18603832534E+007,  0.16500000000E+002,  0.00000000000E+000,  0.10000000000E+001
  0.56298000000E+005,  0.18567395585E+007,  0.16500000000E+002,  0.00000000000E+000,  0.10000000000E+001
  0.56358000000E+005,  0.18531218766E+007,  0.16500000000E+002,  0.00000000000E+000,  0.10000000000E+001
  0.56418000000E+005,  0.18495298739E+007,  0.16500000000E+002,  0.00000000000E+000,  0.10000000000E+001
  0.56478000000E+005,  0.18459632292E+007,  0.16500000000E+002,  0.00000000000E+000,  0.10000000000E+001
  0.56538000000E+005,  0.18424216215E+007,  0.16500000000E+002,  0.00000000000E+000,  0.10000000000E+001
  0.56598000000E+005,  0.18389047403E+007,  0.16500000000E+002,  0.00000000000E+000,  0.10000000000E+001
  0.56658000000E+005,  0.18354122775E+007,  0.16500000000E+002,  0.00000000000E+000,  0.10000000000E+001
  0.56718000000E+005,  0.18319439325E+007,  0.16500000000E+002,  0.00000000000E+000,  0.10000000000E+001
  0.56778000000E+005,  0.18284994104E+007,  0.16500000000E+002,  0.00000000000E+000,  0.10000000000E+001
  0.56838000000E+005,  0.18250784198E+007,  0.16500000000E+002,  0.00000000000E+000,  0.10000000000E+001
  0.56898000000E+005,  0.18216806762E+007,  0.16500000000E+002,  0.00000000000E+000,  0.10000000000E+001
  0.56958000000E+005,  0.18183058990E+007,  0.16500000000E+002,  0.00000000000E+000,  0.10000000000E+001
  0.57018000000E+005,  0.18149538164E+007,  0.16500000000E+002,  0.00000000000E+000,  0.10000000000E+001
  0.57078000000E+005,  0.18116241563E+007,  0.16500000000E+002,  0.00000000000E+000,  0.10000000000E+001
  0.57138000000E+005,  0.18083166564E+007,  0.16500000000E+002,  0.00000000000E+000,  0.10000000000E+001
  0.57198000000E+005,  0.18050310551E+007,  0.16500000000E+002,  0.00000000000E+000,  0.10000000000E+001
  0.57258000000E+005,  0.18017670992E+007,  0.16500000000E+002,  0.00000000000E+000,  0.10000000000E+001
  0.57318000000E+005,  0.17985245378E+007,  0.16500000000E+002,  0.00000000000E+000,  0.10000000000E+001
  0.57378000000E+005,  0.17953031243E+007,  0.16500000000E+002,  0.00000000000E+000,  0.10000000000E+001
  0.57438000000E+005,  0.17921026188E+007,  0.16500000000E+002,  0.00000000000E+000,  0.10000000000E+001
  0.57498000000E+005,  0.17889227833E+007,  0.16500000000E+002,  0.00000000000E+000,  0.10000000000E+001
  0.57558000000E+005,  0.17857633850E+007,  0.16500000000E+002,  0.00000000000E+000,  0.10000000000E+001
  0.57618000000E+005,  0.17826241957E+007,  0.16500000000E+002,  0.00000000000E+000,  0.10000000000E+001
  0.57678000000E+005,  0.17795049908E+007,  0.16500000000E+002,  0.00000000000E+000,  0.10000000000E+001
  0.57738000000E+005,  0.17764055489E+007,  0.16500000000E+002,  0.00000000000E+000,  0.10000000000E+001
  0.57798000000E+005,  0.17733256541E+007,  0.16500000000E+002,  0.00000000000E+000,  0.10000000000E+001
  0.57858000000E+005,  0.17702650925E+007,  0.16500000000E+002,  0.00000000000E+000,  0.10000000000E+001
  0.57918000000E+005,  0.17672236564E+007,  0.16500000000E+002,  0.00000000000E+000,  0.10000000000E+001
  0.57978000000E+005,  0.17642011386E+007,  0.16500000000E+002,  0.00000000000E+000,  0.10000000000E+001
  0.58038000000E+005,  0.17611973378E+007,  0.16500000000E+002,  0.00000000000E+000,  0.10000000000E+001
  0.58098000000E+005,  0.17582120544E+007,  0.16500000000E+002,  0.00000000000E+000,  0.10000000000E+001
  0.58158000000E+005,  0.17552450939E+007,  0.16500000000E+002,  0.00000000000E+000,  0.10000000000E+001
  0.58218000000E+005,  0.17522962641E+007,  0.16500000000E+002,  0.00000000000E+000,  0.10000000000E+001
  0.58278000000E+005,  0.17493653769E+007,  0.16500000000E+002,  0.00000000000E+000,  0.10000000000E+001
  0.58338000000E+005,  0.17464522456E+007,  0.16500000000E+002,  0.00000000000E+000,  0.10000000000E+001
  0.58398000000E+005,  0.17435566883E+007,  0.16500000000E+002,  0.00000000000E+000,  0.10000000000E+001
  0.58458000000E+005,  0.17406785248E+007,  0.16500000000E+002,  0.00000000000E+000,  0.10000000000E+001
  0.58518000000E+005,  0.17378175792E+007,  0.16500000000E+002,  0.00000000000E+000,  0.10000000000E+001
  0.58578000000E+005,  0.17349736779E+007,  0.16500000000E+002,  0.00000000000E+000,  0.10000000000E+001
  0.58638000000E+005,  0.17321466500E+007,  0.16500000000E+002,  0.00000000000E+000,  0.10000000000E+001
  0.58698000000E+005,  0.17293363274E+007,  0.16500000000E+002,  0.00000000000E+000,  0.10000000000E+001
  0.58758000000E+005,  0.17265425447E+007,  0.16500000000E+002,  0.00000000000E+000,  0.10000000000E+001
