"           TIME(S)","              PRES","              TEMP","             SAT_G","             SAT_L"
  0.32471000000E+005,  0.66234784230E+007,  0.16500000000E+002,  0.00000000000E+000,  0.10000000000E+001
  0.32476000000E+005,  0.34485557568E+007,  0.16500000000E+002,  0.00000000000E+000,  0.10000000000E+001
  0.32501000000E+005,  0.33522615362E+007,  0.16500000000E+002,  0.00000000000E+000,  0.10000000000E+001
  0.32561000000E+005,  0.12272791649E+008,  0.16500000000E+002,  0.00000000000E+000,  0.10000000000E+001
  0.32621000000E+005,  0.22269745485E+008,  0.16500000000E+002,  0.00000000000E+000,  0.10000000000E+001
  0.32681000000E+005,  0.26941936371E+008,  0.16500000000E+002,  0.00000000000E+000,  0.10000000000E+001
  0.32741000000E+005,  0.30072200243E+008,  0.16500000000E+002,  0.00000000000E+000,  0.10000000000E+001
  0.32801000000E+005,  0.32442115097E+008,  0.16500000000E+002,  0.00000000000E+000,  0.10000000000E+001
  0.32861000000E+005,  0.34344487761E+008,  0.16500000000E+002,  0.00000000000E+000,  0.10000000000E+001
  0.32921000000E+005,  0.35929866731E+008,  0.16500000000E+002,  0.00000000000E+000,  0.10000000000E+001
  0.32981000000E+005,  0.37285474191E+008,  0.16500000000E+002,  0.00000000000E+000,  0.10000000000E+001
  0.33041000000E+005,  0.38466530807E+008,  0.16500000000E+002,  0.00000000000E+000,  0.10000000000E+001
  0.33101000000E+005,  0.39510371734E+008,  0.16500000000E+002,  0.00000000000E+000,  0.10000000000E+001
  0.33161000000E+005,  0.40443520788E+008,  0.16500000000E+002,  0.00000000000E+000,  0.10000000000E+001
  0.33221000000E+005,  0.41285552538E+008,  0.16500000000E+002,  0.00000000000E+000,  0.10000000000E+001
  0.33281000000E+005,  0.42051350729E+008,  0.16500000000E+002,  0.00000000000E+000,  0.10000000000E+001
  0.33341000000E+005,  0.42752505578E+008,  0.16500000000E+002,  0.00000000000E+000,  0.10000000000E+001
  0.33401000000E+005,  0.43398219791E+008,  0.16500000000E+002,  0.00000000000E+000,  0.10000000000E+001
  0.33461000000E+005,  0.43995919527E+008,  0.16500000000E+002,  0.00000000000E+000,  0.10000000000E+001
  0.33521000000E+005,  0.44551680112E+008,  0.16500000000E+002,  0.00000000000E+000,  0.10000000000E+001
  0.33581000000E+005,  0.45070530952E+008,  0.16500000000E+002,  0.00000000000E+000,  0.10000000000E+001
  0.33641000000E+005,  0.45556679031E+008,  0.16500000000E+002,  0.00000000000E+000,  0.10000000000E+001
  0.33701000000E+005,  0.46013675988E+008,  0.16500000000E+002,  0.00000000000E+000,  0.10000000000E+001
  0.33761000000E+005,  0.46444545113E+008,  0.16500000000E+002,  0.00000000000E+000,  0.10000000000E+001
  0.33821000000E+005,  0.46851879167E+008,  0.16500000000E+002,  0.00000000000E+000,  0.10000000000E+001
  0.33881000000E+005,  0.47237917540E+008,  0.16500000000E+002,  0.00000000000E+000,  0.10000000000E+001
  0.33941000000E+005,  0.47604605406E+008,  0.16500000000E+002,  0.00000000000E+000,  0.10000000000E+001
  0.34001000000E+005,  0.47953643555E+008,  0.16500000000E+002,  0.00000000000E+000,  0.10000000000E+001
  0.34061000000E+005,  0.48286525751E+008,  0.16500000000E+002,  0.00000000000E+000,  0.10000000000E+001
  0.34121000000E+005,  0.48604571134E+008,  0.16500000000E+002,  0.00000000000E+000,  0.10000000000E+001
  0.34181000000E+005,  0.48908950068E+008,  0.16500000000E+002,  0.00000000000E+000,  0.10000000000E+001
  0.34241000000E+005,  0.49200704916E+008,  0.16500000000E+002,  0.00000000000E+000,  0.10000000000E+001
  0.34301000000E+005,  0.49480767963E+008,  0.16500000000E+002,  0.00000000000E+000,  0.10000000000E+001
  0.34361000000E+005,  0.49749976111E+008,  0.16500000000E+002,  0.00000000000E+000,  0.10000000000E+001
  0.34421000000E+005,  0.50009083237E+008,  0.16500000000E+002,  0.00000000000E+000,  0.10000000000E+001
  0.34481000000E+005,  0.50258770645E+008,  0.16500000000E+002,  0.00000000000E+000,  0.10000000000E+001
  0.34541000000E+005,  0.50499655894E+008,  0.16500000000E+002,  0.00000000000E+000,  0.10000000000E+001
  0.34601000000E+005,  0.50732300399E+008,  0.16500000000E+002,  0.00000000000E+000,  0.10000000000E+001
  0.34661000000E+005,  0.50957215892E+008,  0.16500000000E+002,  0.00000000000E+000,  0.10000000000E+001
  0.34721000000E+005,  0.51174869997E+008,  0.16500000000E+002,  0.00000000000E+000,  0.10000000000E+001
  0.34781000000E+005,  0.51385691056E+008,  0.16500000000E+002,  0.00000000000E+000,  0.10000000000E+001
  0.34841000000E+005,  0.51590072309E+008,  0.16500000000E+002,  0.00000000000E+000,  0.10000000000E+001
  0.34901000000E+005,  0.51788375545E+008,  0.16500000000E+002,  0.00000000000E+000,  0.10000000000E+001
  0.34961000000E+005,  0.51980934291E+008,  0.16500000000E+002,  0.00000000000E+000,  0.10000000000E+001
  0.35021000000E+005,  0.52168056590E+008,  0.16500000000E+002,  0.00000000000E+000,  0.10000000000E+001
  0.35081000000E+005,  0.52350027586E+008,  0.16500000000E+002,  0.00000000000E+000,  0.10000000000E+001
  0.35141000000E+005,  0.52527111458E+008,  0.16500000000E+002,  0.00000000000E+000,  0.10000000000E+001
  0.35201000000E+005,  0.52699553482E+008,  0.16500000000E+002,  0.00000000000E+000,  0.10000000000E+001
  0.35261000000E+005,  0.52867581789E+008,  0.16500000000E+002,  0.00000000000E+000,  0.10000000000E+001
  0.35321000000E+005,  0.53031408892E+008,  0.16500000000E+002,  0.00000000000E+000,  0.10000000000E+001
  0.35381000000E+005,  0.53191232953E+008,  0.16500000000E+002,  0.00000000000E+000,  0.10000000000E+001
  0.35441000000E+005,  0.53347239071E+008,  0.16500000000E+002,  0.00000000000E+000,  0.10000000000E+001
  0.35501000000E+005,  0.53499600289E+008,  0.16500000000E+002,  0.00000000000E+000,  0.10000000000E+001
  0.35561000000E+005,  0.53648478683E+008,  0.16500000000E+002,  0.00000000000E+000,  0.10000000000E+001
  0.35621000000E+005,  0.53794026311E+008,  0.16500000000E+002,  0.00000000000E+000,  0.10000000000E+001
  0.35681000000E+005,  0.53936385768E+008,  0.16500000000E+002,  0.00000000000E+000,  0.10000000000E+001
  0.35741000000E+005,  0.54075691103E+008,  0.16500000000E+002,  0.00000000000E+000,  0.10000000000E+001
  0.35801000000E+005,  0.54212068417E+008,  0.16500000000E+002,  0.00000000000E+000,  0.10000000000E+001
  0.35861000000E+005,  0.54345636459E+008,  0.16500000000E+002,  0.00000000000E+000,  0.10000000000E+001
  0.35921000000E+005,  0.54476507178E+008,  0.16500000000E+002,  0.00000000000E+000,  0.10000000000E+001
  0.35981000000E+005,  0.54604786202E+008,  0.16500000000E+002,  0.00000000000E+000,  0.10000000000E+001
  0.36041000000E+005,  0.54501176833E+008,  0.16500000000E+002,  0.00000000000E+000,  0.10000000000E+001
  0.36101000000E+005,  0.54426495046E+008,  0.16500000000E+002,  0.00000000000E+000,  0.10000000000E+001
  0.36161000000E+005,  0.54449278796E+008,  0.16500000000E+002,  0.00000000000E+000,  0.10000000000E+001
  0.36221000000E+005,  0.54501871972E+008,  0.16500000000E+002,  0.00000000000E+000,  0.10000000000E+001
  0.36281000000E+005,  0.54568515972E+008,  0.16500000000E+002,  0.00000000000E+000,  0.10000000000E+001
  0.36341000000E+005,  0.54642971615E+008,  0.16500000000E+002,  0.00000000000E+000,  0.10000000000E+001
  0.36401000000E+005,  0.54722157705E+008,  0.16500000000E+002,  0.00000000000E+000,  0.10000000000E+001
  0.36461000000E+005,  0.54804280443E+008,  0.16500000000E+002,  0.00000000000E+000,  0.10000000000E+001
  0.36521000000E+005,  0.54888231042E+008,  0.16500000000E+002,  0.00000000000E+000,  0.10000000000E+001
  0.36581000000E+005,  0.54973280912E+008,  0.16500000000E+002,  0.00000000000E+000,  0.10000000000E+001
  0.36641000000E+005,  0.55058928889E+008,  0.16500000000E+002,  0.00000000000E+000,  0.10000000000E+001
  0.36701000000E+005,  0.55144818199E+008,  0.16500000000E+002,  0.00000000000E+000,  0.10000000000E+001
  0.36761000000E+005,  0.55230688573E+008,  0.16500000000E+002,  0.00000000000E+000,  0.10000000000E+001
  0.36821000000E+005,  0.55316346724E+008,  0.16500000000E+002,  0.00000000000E+000,  0.10000000000E+001
  0.36881000000E+005,  0.55401647322E+008,  0.16500000000E+002,  0.00000000000E+000,  0.10000000000E+001
  0.36941000000E+005,  0.55486480262E+008,  0.16500000000E+002,  0.00000000000E+000,  0.10000000000E+001
  0.37001000000E+005,  0.55570761805E+008,  0.16500000000E+002,  0.00000000000E+000,  0.10000000000E+001
  0.37061000000E+005,  0.55654428320E+008,  0.16500000000E+002,  0.00000000000E+000,  0.10000000000E+001
  0.37121000000E+005,  0.55737431668E+008,  0.16500000000E+002,  0.00000000000E+000,  0.10000000000E+001
  0.37181000000E+005,  0.55819735802E+008,  0.16500000000E+002,  0.00000000000E+000,  0.10000000000E+001
  0.37241000000E+005,  0.55901314180E+008,  0.16500000000E+002,  0.00000000000E+000,  0.10000000000E+001
  0.37301000000E+005,  0.55982147810E+008,  0.16500000000E+002,  0.00000000000E+000,  0.10000000000E+001
  0.37361000000E+005,  0.56062223699E+008,  0.16500000000E+002,  0.00000000000E+000,  0.10000000000E+001
  0.37421000000E+005,  0.56141533680E+008,  0.16500000000E+002,  0.00000000000E+000,  0.10000000000E+001
  0.37481000000E+005,  0.56138169690E+008,  0.16500000000E+002,  0.00000000000E+000,  0.10000000000E+001
  0.37541000000E+005,  0.56597702413E+008,  0.16500000000E+002,  0.00000000000E+000,  0.10000000000E+001
  0.37601000000E+005,  0.56820341837E+008,  0.16500000000E+002,  0.00000000000E+000,  0.10000000000E+001
  0.37661000000E+005,  0.56983718857E+008,  0.16500000000E+002,  0.00000000000E+000,  0.10000000000E+001
  0.37721000000E+005,  0.57120905543E+008,  0.16500000000E+002,  0.00000000000E+000,  0.10000000000E+001
  0.37781000000E+005,  0.57243219503E+008,  0.16500000000E+002,  0.00000000000E+000,  0.10000000000E+001
  0.37841000000E+005,  0.57355810535E+008,  0.16500000000E+002,  0.00000000000E+000,  0.10000000000E+001
  0.37901000000E+005,  0.57461442650E+008,  0.16500000000E+002,  0.00000000000E+000,  0.10000000000E+001
  0.37961000000E+005,  0.57561771814E+008,  0.16500000000E+002,  0.00000000000E+000,  0.10000000000E+001
  0.38021000000E+005,  0.57657872416E+008,  0.16500000000E+002,  0.00000000000E+000,  0.10000000000E+001
  0.38081000000E+005,  0.57750484820E+008,  0.16500000000E+002,  0.00000000000E+000,  0.10000000000E+001
  0.38141000000E+005,  0.57840143635E+008,  0.16500000000E+002,  0.00000000000E+000,  0.10000000000E+001
  0.38201000000E+005,  0.57927249368E+008,  0.16500000000E+002,  0.00000000000E+000,  0.10000000000E+001
  0.38261000000E+005,  0.58012111076E+008,  0.16500000000E+002,  0.00000000000E+000,  0.10000000000E+001
  0.38321000000E+005,  0.58094973013E+008,  0.16500000000E+002,  0.00000000000E+000,  0.10000000000E+001
  0.38381000000E+005,  0.58176032144E+008,  0.16500000000E+002,  0.00000000000E+000,  0.10000000000E+001
  0.38441000000E+005,  0.58255450008E+008,  0.16500000000E+002,  0.00000000000E+000,  0.10000000000E+001
  0.38501000000E+005,  0.58333361051E+008,  0.16500000000E+002,  0.00000000000E+000,  0.10000000000E+001
  0.38561000000E+005,  0.58409878609E+008,  0.16500000000E+002,  0.00000000000E+000,  0.10000000000E+001
  0.38621000000E+005,  0.58485099303E+008,  0.16500000000E+002,  0.00000000000E+000,  0.10000000000E+001
  0.38681000000E+005,  0.58559106362E+008,  0.16500000000E+002,  0.00000000000E+000,  0.10000000000E+001
  0.38741000000E+005,  0.58631972146E+008,  0.16500000000E+002,  0.00000000000E+000,  0.10000000000E+001
  0.38801000000E+005,  0.58703760100E+008,  0.16500000000E+002,  0.00000000000E+000,  0.10000000000E+001
  0.38861000000E+005,  0.58774526290E+008,  0.16500000000E+002,  0.00000000000E+000,  0.10000000000E+001
  0.38921000000E+005,  0.58844320617E+008,  0.16500000000E+002,  0.00000000000E+000,  0.10000000000E+001
  0.38981000000E+005,  0.58913187784E+008,  0.16500000000E+002,  0.00000000000E+000,  0.10000000000E+001
  0.39041000000E+005,  0.58981168089E+008,  0.16500000000E+002,  0.00000000000E+000,  0.10000000000E+001
  0.39101000000E+005,  0.59048298058E+008,  0.16500000000E+002,  0.00000000000E+000,  0.10000000000E+001
  0.39161000000E+005,  0.59114610980E+008,  0.16500000000E+002,  0.00000000000E+000,  0.10000000000E+001
  0.39221000000E+005,  0.59180137319E+008,  0.16500000000E+002,  0.00000000000E+000,  0.10000000000E+001
  0.39281000000E+005,  0.59244905104E+008,  0.16500000000E+002,  0.00000000000E+000,  0.10000000000E+001
  0.39341000000E+005,  0.59308940215E+008,  0.16500000000E+002,  0.00000000000E+000,  0.10000000000E+001
  0.39401000000E+005,  0.59372266644E+008,  0.16500000000E+002,  0.00000000000E+000,  0.10000000000E+001
  0.39461000000E+005,  0.59434906702E+008,  0.16500000000E+002,  0.00000000000E+000,  0.10000000000E+001
  0.39521000000E+005,  0.59496881215E+008,  0.16500000000E+002,  0.00000000000E+000,  0.10000000000E+001
  0.39581000000E+005,  0.59558209681E+008,  0.16500000000E+002,  0.00000000000E+000,  0.10000000000E+001
  0.39641000000E+005,  0.59618910402E+008,  0.16500000000E+002,  0.00000000000E+000,  0.10000000000E+001
  0.39701000000E+005,  0.59679000594E+008,  0.16500000000E+002,  0.00000000000E+000,  0.10000000000E+001
  0.39761000000E+005,  0.59738496508E+008,  0.16500000000E+002,  0.00000000000E+000,  0.10000000000E+001
  0.39821000000E+005,  0.59797413504E+008,  0.16500000000E+002,  0.00000000000E+000,  0.10000000000E+001
  0.39881000000E+005,  0.59855766140E+008,  0.16500000000E+002,  0.00000000000E+000,  0.10000000000E+001
  0.39941000000E+005,  0.59913568231E+008,  0.16500000000E+002,  0.00000000000E+000,  0.10000000000E+001
  0.40001000000E+005,  0.59970832919E+008,  0.16500000000E+002,  0.00000000000E+000,  0.10000000000E+001
  0.40061000000E+005,  0.60027572720E+008,  0.16500000000E+002,  0.00000000000E+000,  0.10000000000E+001
  0.40121000000E+005,  0.60083799579E+008,  0.16500000000E+002,  0.00000000000E+000,  0.10000000000E+001
  0.40181000000E+005,  0.60139524906E+008,  0.16500000000E+002,  0.00000000000E+000,  0.10000000000E+001
  0.40241000000E+005,  0.60194759623E+008,  0.16500000000E+002,  0.00000000000E+000,  0.10000000000E+001
  0.40301000000E+005,  0.60249514190E+008,  0.16500000000E+002,  0.00000000000E+000,  0.10000000000E+001
  0.40361000000E+005,  0.60303798641E+008,  0.16500000000E+002,  0.00000000000E+000,  0.10000000000E+001
  0.40421000000E+005,  0.60357622614E+008,  0.16500000000E+002,  0.00000000000E+000,  0.10000000000E+001
  0.40481000000E+005,  0.60410995373E+008,  0.16500000000E+002,  0.00000000000E+000,  0.10000000000E+001
  0.40541000000E+005,  0.60463925833E+008,  0.16500000000E+002,  0.00000000000E+000,  0.10000000000E+001
  0.40601000000E+005,  0.60516422580E+008,  0.16500000000E+002,  0.00000000000E+000,  0.10000000000E+001
  0.40661000000E+005,  0.60568493894E+008,  0.16500000000E+002,  0.00000000000E+000,  0.10000000000E+001
  0.40721000000E+005,  0.60620147764E+008,  0.16500000000E+002,  0.00000000000E+000,  0.10000000000E+001
  0.40781000000E+005,  0.60671391903E+008,  0.16500000000E+002,  0.00000000000E+000,  0.10000000000E+001
  0.40841000000E+005,  0.60722233766E+008,  0.16500000000E+002,  0.00000000000E+000,  0.10000000000E+001
  0.40901000000E+005,  0.60772680564E+008,  0.16500000000E+002,  0.00000000000E+000,  0.10000000000E+001
  0.40961000000E+005,  0.60822739275E+008,  0.16500000000E+002,  0.00000000000E+000,  0.10000000000E+001
  0.41021000000E+005,  0.60872416656E+008,  0.16500000000E+002,  0.00000000000E+000,  0.10000000000E+001
  0.41081000000E+005,  0.60921719256E+008,  0.16500000000E+002,  0.00000000000E+000,  0.10000000000E+001
  0.41141000000E+005,  0.60970653423E+008,  0.16500000000E+002,  0.00000000000E+000,  0.10000000000E+001
  0.41201000000E+005,  0.61019225316E+008,  0.16500000000E+002,  0.00000000000E+000,  0.10000000000E+001
  0.41261000000E+005,  0.61067440915E+008,  0.16500000000E+002,  0.00000000000E+000,  0.10000000000E+001
  0.41321000000E+005,  0.61115306023E+008,  0.16500000000E+002,  0.00000000000E+000,  0.10000000000E+001
  0.41381000000E+005,  0.61162826285E+008,  0.16500000000E+002,  0.00000000000E+000,  0.10000000000E+001
  0.41441000000E+005,  0.61210007185E+008,  0.16500000000E+002,  0.00000000000E+000,  0.10000000000E+001
  0.41501000000E+005,  0.61256854055E+008,  0.16500000000E+002,  0.00000000000E+000,  0.10000000000E+001
  0.41561000000E+005,  0.61303372084E+008,  0.16500000000E+002,  0.00000000000E+000,  0.10000000000E+001
  0.41621000000E+005,  0.61349566324E+008,  0.16500000000E+002,  0.00000000000E+000,  0.10000000000E+001
  0.41681000000E+005,  0.61395441692E+008,  0.16500000000E+002,  0.00000000000E+000,  0.10000000000E+001
  0.41741000000E+005,  0.61441002980E+008,  0.16500000000E+002,  0.00000000000E+000,  0.10000000000E+001
  0.41801000000E+005,  0.61486254855E+008,  0.16500000000E+002,  0.00000000000E+000,  0.10000000000E+001
  0.41861000000E+005,  0.61531201866E+008,  0.16500000000E+002,  0.00000000000E+000,  0.10000000000E+001
  0.41921000000E+005,  0.61575848456E+008,  0.16500000000E+002,  0.00000000000E+000,  0.10000000000E+001
  0.41981000000E+005,  0.61620198951E+008,  0.16500000000E+002,  0.00000000000E+000,  0.10000000000E+001
  0.42041000000E+005,  0.61532698457E+008,  0.16500000000E+002,  0.00000000000E+000,  0.10000000000E+001
  0.42101000000E+005,  0.61462731470E+008,  0.16500000000E+002,  0.00000000000E+000,  0.10000000000E+001
  0.42161000000E+005,  0.61449887543E+008,  0.16500000000E+002,  0.00000000000E+000,  0.10000000000E+001
  0.42221000000E+005,  0.61455212106E+008,  0.16500000000E+002,  0.00000000000E+000,  0.10000000000E+001
  0.42281000000E+005,  0.61469500484E+008,  0.16500000000E+002,  0.00000000000E+000,  0.10000000000E+001
  0.42341000000E+005,  0.61489164524E+008,  0.16500000000E+002,  0.00000000000E+000,  0.10000000000E+001
  0.42401000000E+005,  0.61512329139E+008,  0.16500000000E+002,  0.00000000000E+000,  0.10000000000E+001
  0.42461000000E+005,  0.61537993675E+008,  0.16500000000E+002,  0.00000000000E+000,  0.10000000000E+001
  0.42521000000E+005,  0.61565501499E+008,  0.16500000000E+002,  0.00000000000E+000,  0.10000000000E+001
  0.42581000000E+005,  0.61594410303E+008,  0.16500000000E+002,  0.00000000000E+000,  0.10000000000E+001
  0.42641000000E+005,  0.61624404201E+008,  0.16500000000E+002,  0.00000000000E+000,  0.10000000000E+001
  0.42701000000E+005,  0.61655247574E+008,  0.16500000000E+002,  0.00000000000E+000,  0.10000000000E+001
  0.42761000000E+005,  0.61686774688E+008,  0.16500000000E+002,  0.00000000000E+000,  0.10000000000E+001
  0.42821000000E+005,  0.61718834566E+008,  0.16500000000E+002,  0.00000000000E+000,  0.10000000000E+001
  0.42881000000E+005,  0.61751326507E+008,  0.16500000000E+002,  0.00000000000E+000,  0.10000000000E+001
  0.42941000000E+005,  0.61784169232E+008,  0.16500000000E+002,  0.00000000000E+000,  0.10000000000E+001
  0.43001000000E+005,  0.61817282721E+008,  0.16500000000E+002,  0.00000000000E+000,  0.10000000000E+001
  0.43061000000E+005,  0.61850614108E+008,  0.16500000000E+002,  0.00000000000E+000,  0.10000000000E+001
  0.43121000000E+005,  0.61884117584E+008,  0.16500000000E+002,  0.00000000000E+000,  0.10000000000E+001
  0.43181000000E+005,  0.61917751762E+008,  0.16500000000E+002,  0.00000000000E+000,  0.10000000000E+001
  0.43241000000E+005,  0.61951481716E+008,  0.16500000000E+002,  0.00000000000E+000,  0.10000000000E+001
  0.43301000000E+005,  0.61985278039E+008,  0.16500000000E+002,  0.00000000000E+000,  0.10000000000E+001
  0.43361000000E+005,  0.62019115775E+008,  0.16500000000E+002,  0.00000000000E+000,  0.10000000000E+001
  0.43421000000E+005,  0.62052973593E+008,  0.16500000000E+002,  0.00000000000E+000,  0.10000000000E+001
  0.43481000000E+005,  0.62086833150E+008,  0.16500000000E+002,  0.00000000000E+000,  0.10000000000E+001
  0.43541000000E+005,  0.62120678610E+008,  0.16500000000E+002,  0.00000000000E+000,  0.10000000000E+001
  0.43601000000E+005,  0.62154496235E+008,  0.16500000000E+002,  0.00000000000E+000,  0.10000000000E+001
  0.43661000000E+005,  0.62188274077E+008,  0.16500000000E+002,  0.00000000000E+000,  0.10000000000E+001
