"           TIME(S)","              PRES","              TEMP","             SAT_G","             SAT_L"
  0.94860000000E+005,  0.99952875818E+006,  0.16500000000E+002,  0.00000000000E+000,  0.10000000000E+001
  0.94870000000E+005,  0.99952876313E+006,  0.16500000000E+002,  0.00000000000E+000,  0.10000000000E+001
  0.94880000000E+005,  0.99952876309E+006,  0.16500000000E+002,  0.00000000000E+000,  0.10000000000E+001
  0.94890000000E+005,  0.17038002069E+007,  0.16500000000E+002,  0.00000000000E+000,  0.10000000000E+001
  0.94900000000E+005,  0.25194895773E+007,  0.16500000000E+002,  0.00000000000E+000,  0.10000000000E+001
  0.94910000000E+005,  0.33154559584E+007,  0.16500000000E+002,  0.00000000000E+000,  0.10000000000E+001
  0.94920000000E+005,  0.42124689556E+007,  0.16500000000E+002,  0.00000000000E+000,  0.10000000000E+001
  0.94930000000E+005,  0.53837739637E+007,  0.16500000000E+002,  0.00000000000E+000,  0.10000000000E+001
  0.94940000000E+005,  0.87226868557E+007,  0.16500000000E+002,  0.00000000000E+000,  0.10000000000E+001
  0.94950000000E+005,  0.12528288580E+008,  0.16500000000E+002,  0.00000000000E+000,  0.10000000000E+001
  0.94960000000E+005,  0.16391887476E+008,  0.16500000000E+002,  0.00000000000E+000,  0.10000000000E+001
  0.94970000000E+005,  0.20089979124E+008,  0.16500000000E+002,  0.00000000000E+000,  0.10000000000E+001
  0.94980000000E+005,  0.23706499974E+008,  0.16500000000E+002,  0.00000000000E+000,  0.10000000000E+001
  0.94990000000E+005,  0.27246913047E+008,  0.16500000000E+002,  0.00000000000E+000,  0.10000000000E+001
  0.95000000000E+005,  0.30795199939E+008,  0.16500000000E+002,  0.00000000000E+000,  0.10000000000E+001
  0.95010000000E+005,  0.34258709737E+008,  0.16500000000E+002,  0.00000000000E+000,  0.10000000000E+001
  0.95020000000E+005,  0.37656159589E+008,  0.16500000000E+002,  0.00000000000E+000,  0.10000000000E+001
  0.95030000000E+005,  0.40967855809E+008,  0.16500000000E+002,  0.00000000000E+000,  0.10000000000E+001
  0.95040000000E+005,  0.44178686227E+008,  0.16500000000E+002,  0.00000000000E+000,  0.10000000000E+001
  0.95050000000E+005,  0.47333847715E+008,  0.16500000000E+002,  0.00000000000E+000,  0.10000000000E+001
  0.95060000000E+005,  0.50435431464E+008,  0.16500000000E+002,  0.00000000000E+000,  0.10000000000E+001
  0.95070000000E+005,  0.53485403014E+008,  0.16500000000E+002,  0.00000000000E+000,  0.10000000000E+001
  0.95080000000E+005,  0.56485602139E+008,  0.16500000000E+002,  0.00000000000E+000,  0.10000000000E+001
  0.95090000000E+005,  0.59437750742E+008,  0.16500000000E+002,  0.00000000000E+000,  0.10000000000E+001
  0.95100000000E+005,  0.62343462697E+008,  0.16500000000E+002,  0.00000000000E+000,  0.10000000000E+001
  0.95110000000E+005,  0.65204253605E+008,  0.16500000000E+002,  0.00000000000E+000,  0.10000000000E+001
  0.95120000000E+005,  0.68021549792E+008,  0.16500000000E+002,  0.00000000000E+000,  0.10000000000E+001
  0.95128100000E+005,  0.70275269798E+008,  0.16500000000E+002,  0.00000000000E+000,  0.10000000000E+001
  0.95138100000E+005,  0.73017136528E+008,  0.16500000000E+002,  0.00000000000E+000,  0.10000000000E+001
  0.95148100000E+005,  0.75719108005E+008,  0.16500000000E+002,  0.00000000000E+000,  0.10000000000E+001
  0.95158100000E+005,  0.78382336854E+008,  0.16500000000E+002,  0.00000000000E+000,  0.10000000000E+001
  0.95168100000E+005,  0.81007917664E+008,  0.16500000000E+002,  0.00000000000E+000,  0.10000000000E+001
  0.95178100000E+005,  0.83596891560E+008,  0.16500000000E+002,  0.00000000000E+000,  0.10000000000E+001
  0.95188100000E+005,  0.86150250266E+008,  0.16500000000E+002,  0.00000000000E+000,  0.10000000000E+001
  0.95198100000E+005,  0.88668939735E+008,  0.16500000000E+002,  0.00000000000E+000,  0.10000000000E+001
  0.95208100000E+005,  0.91153863407E+008,  0.16500000000E+002,  0.00000000000E+000,  0.10000000000E+001
  0.95218100000E+005,  0.93605885145E+008,  0.16500000000E+002,  0.00000000000E+000,  0.10000000000E+001
  0.95228100000E+005,  0.96025831885E+008,  0.16500000000E+002,  0.00000000000E+000,  0.10000000000E+001
  0.95238100000E+005,  0.98414496052E+008,  0.16500000000E+002,  0.00000000000E+000,  0.10000000000E+001
  0.95239350000E+005,  0.98712334733E+008,  0.16500000000E+002,  0.00000000000E+000,  0.10000000000E+001
  0.95240131250E+005,  0.98898286240E+008,  0.16500000000E+002,  0.00000000000E+000,  0.10000000000E+001
  0.95244037500E+005,  0.99823643333E+008,  0.16500000000E+002,  0.00000000000E+000,  0.10000000000E+001
  0.95244193750E+005,  0.99860636890E+008,  0.16500000000E+002,  0.00000000000E+000,  0.10000000000E+001
  0.95244291406E+005,  0.99883754716E+008,  0.16500000000E+002,  0.00000000000E+000,  0.10000000000E+001
  0.95244352441E+005,  0.99898202120E+008,  0.16500000000E+002,  0.00000000000E+000,  0.10000000000E+001
  0.95244657617E+005,  0.99970413722E+008,  0.16500000000E+002,  0.00000000000E+000,  0.10000000000E+001
  0.95244681459E+005,  0.99976054820E+008,  0.16500000000E+002,  0.00000000000E+000,  0.10000000000E+001
  0.95244696360E+005,  0.99979580434E+008,  0.16500000000E+002,  0.00000000000E+000,  0.10000000000E+001
  0.95244705673E+005,  0.99981783913E+008,  0.16500000000E+002,  0.00000000000E+000,  0.10000000000E+001
  0.95244752240E+005,  0.99992800713E+008,  0.16500000000E+002,  0.00000000000E+000,  0.10000000000E+001
  0.95244755878E+005,  0.99993661389E+008,  0.16500000000E+002,  0.00000000000E+000,  0.10000000000E+001
  0.95244758151E+005,  0.99994199310E+008,  0.16500000000E+002,  0.00000000000E+000,  0.10000000000E+001
  0.95244759572E+005,  0.99994535510E+008,  0.16500000000E+002,  0.00000000000E+000,  0.10000000000E+001
  0.95244766678E+005,  0.99996216495E+008,  0.16500000000E+002,  0.00000000000E+000,  0.10000000000E+001
  0.95244767233E+005,  0.99996347822E+008,  0.16500000000E+002,  0.00000000000E+000,  0.10000000000E+001
  0.95244767580E+005,  0.99996429901E+008,  0.16500000000E+002,  0.00000000000E+000,  0.10000000000E+001
  0.95244767797E+005,  0.99996481201E+008,  0.16500000000E+002,  0.00000000000E+000,  0.10000000000E+001
  0.95244768881E+005,  0.99996737698E+008,  0.16500000000E+002,  0.00000000000E+000,  0.10000000000E+001
  0.95244768966E+005,  0.99996757737E+008,  0.16500000000E+002,  0.00000000000E+000,  0.10000000000E+001
  0.95244769019E+005,  0.99996757737E+008,  0.16500000000E+002,  0.00000000000E+000,  0.10000000000E+001
  0.95244769283E+005,  0.99996820358E+008,  0.16500000000E+002,  0.00000000000E+000,  0.10000000000E+001
  0.95244769304E+005,  0.99996820358E+008,  0.16500000000E+002,  0.00000000000E+000,  0.10000000000E+001
  0.95244769317E+005,  0.99996820358E+008,  0.16500000000E+002,  0.00000000000E+000,  0.10000000000E+001
  0.95244769381E+005,  0.99996820358E+008,  0.16500000000E+002,  0.00000000000E+000,  0.10000000000E+001
  0.95244769422E+005,  0.99996820358E+008,  0.16500000000E+002,  0.00000000000E+000,  0.10000000000E+001
