"           TIME(S)","              PRES","              TEMP","             SAT_G","             SAT_L"
  0.32471000000E+005,  0.66534310563E+007,  0.16500000000E+002,  0.00000000000E+000,  0.10000000000E+001
  0.32476000000E+005,  0.34611674066E+007,  0.16500000000E+002,  0.00000000000E+000,  0.10000000000E+001
  0.32501000000E+005,  0.33484450750E+007,  0.16500000000E+002,  0.00000000000E+000,  0.10000000000E+001
  0.32561000000E+005,  0.12257138971E+008,  0.16500000000E+002,  0.00000000000E+000,  0.10000000000E+001
  0.32621000000E+005,  0.22249842505E+008,  0.16500000000E+002,  0.00000000000E+000,  0.10000000000E+001
  0.32681000000E+005,  0.26927466115E+008,  0.16500000000E+002,  0.00000000000E+000,  0.10000000000E+001
  0.32741000000E+005,  0.30059933453E+008,  0.16500000000E+002,  0.00000000000E+000,  0.10000000000E+001
  0.32801000000E+005,  0.32430983260E+008,  0.16500000000E+002,  0.00000000000E+000,  0.10000000000E+001
  0.32861000000E+005,  0.34334005732E+008,  0.16500000000E+002,  0.00000000000E+000,  0.10000000000E+001
  0.32921000000E+005,  0.35919770370E+008,  0.16500000000E+002,  0.00000000000E+000,  0.10000000000E+001
  0.32981000000E+005,  0.37275600705E+008,  0.16500000000E+002,  0.00000000000E+000,  0.10000000000E+001
  0.33041000000E+005,  0.38456777075E+008,  0.16500000000E+002,  0.00000000000E+000,  0.10000000000E+001
  0.33101000000E+005,  0.39500671024E+008,  0.16500000000E+002,  0.00000000000E+000,  0.10000000000E+001
  0.33161000000E+005,  0.40433829694E+008,  0.16500000000E+002,  0.00000000000E+000,  0.10000000000E+001
  0.33221000000E+005,  0.41275843148E+008,  0.16500000000E+002,  0.00000000000E+000,  0.10000000000E+001
  0.33281000000E+005,  0.42041605611E+008,  0.16500000000E+002,  0.00000000000E+000,  0.10000000000E+001
  0.33341000000E+005,  0.42742714425E+008,  0.16500000000E+002,  0.00000000000E+000,  0.10000000000E+001
  0.33401000000E+005,  0.43388377132E+008,  0.16500000000E+002,  0.00000000000E+000,  0.10000000000E+001
  0.33461000000E+005,  0.43986023134E+008,  0.16500000000E+002,  0.00000000000E+000,  0.10000000000E+001
  0.33521000000E+005,  0.44541729897E+008,  0.16500000000E+002,  0.00000000000E+000,  0.10000000000E+001
  0.33581000000E+005,  0.45060528195E+008,  0.16500000000E+002,  0.00000000000E+000,  0.10000000000E+001
  0.33641000000E+005,  0.45546625852E+008,  0.16500000000E+002,  0.00000000000E+000,  0.10000000000E+001
  0.33701000000E+005,  0.46003574980E+008,  0.16500000000E+002,  0.00000000000E+000,  0.10000000000E+001
  0.33761000000E+005,  0.46434399098E+008,  0.16500000000E+002,  0.00000000000E+000,  0.10000000000E+001
  0.33821000000E+005,  0.46841691032E+008,  0.16500000000E+002,  0.00000000000E+000,  0.10000000000E+001
  0.33881000000E+005,  0.47227690134E+008,  0.16500000000E+002,  0.00000000000E+000,  0.10000000000E+001
  0.33941000000E+005,  0.47594341466E+008,  0.16500000000E+002,  0.00000000000E+000,  0.10000000000E+001
  0.34001000000E+005,  0.47943345680E+008,  0.16500000000E+002,  0.00000000000E+000,  0.10000000000E+001
  0.34061000000E+005,  0.48276196369E+008,  0.16500000000E+002,  0.00000000000E+000,  0.10000000000E+001
  0.34121000000E+005,  0.48594212504E+008,  0.16500000000E+002,  0.00000000000E+000,  0.10000000000E+001
  0.34181000000E+005,  0.48898564281E+008,  0.16500000000E+002,  0.00000000000E+000,  0.10000000000E+001
  0.34241000000E+005,  0.49190293895E+008,  0.16500000000E+002,  0.00000000000E+000,  0.10000000000E+001
  0.34301000000E+005,  0.49470333477E+008,  0.16500000000E+002,  0.00000000000E+000,  0.10000000000E+001
  0.34361000000E+005,  0.49739519781E+008,  0.16500000000E+002,  0.00000000000E+000,  0.10000000000E+001
  0.34421000000E+005,  0.49998606551E+008,  0.16500000000E+002,  0.00000000000E+000,  0.10000000000E+001
  0.34481000000E+005,  0.50248274970E+008,  0.16500000000E+002,  0.00000000000E+000,  0.10000000000E+001
  0.34541000000E+005,  0.50489142480E+008,  0.16500000000E+002,  0.00000000000E+000,  0.10000000000E+001
  0.34601000000E+005,  0.50721770396E+008,  0.16500000000E+002,  0.00000000000E+000,  0.10000000000E+001
  0.34661000000E+005,  0.50946670357E+008,  0.16500000000E+002,  0.00000000000E+000,  0.10000000000E+001
  0.34721000000E+005,  0.51164309902E+008,  0.16500000000E+002,  0.00000000000E+000,  0.10000000000E+001
  0.34781000000E+005,  0.51375117297E+008,  0.16500000000E+002,  0.00000000000E+000,  0.10000000000E+001
  0.34841000000E+005,  0.51579485712E+008,  0.16500000000E+002,  0.00000000000E+000,  0.10000000000E+001
  0.34901000000E+005,  0.51777776876E+008,  0.16500000000E+002,  0.00000000000E+000,  0.10000000000E+001
  0.34961000000E+005,  0.51970324256E+008,  0.16500000000E+002,  0.00000000000E+000,  0.10000000000E+001
  0.35021000000E+005,  0.52157435847E+008,  0.16500000000E+002,  0.00000000000E+000,  0.10000000000E+001
  0.35081000000E+005,  0.52339396744E+008,  0.16500000000E+002,  0.00000000000E+000,  0.10000000000E+001
  0.35141000000E+005,  0.52516471083E+008,  0.16500000000E+002,  0.00000000000E+000,  0.10000000000E+001
  0.35201000000E+005,  0.52688904099E+008,  0.16500000000E+002,  0.00000000000E+000,  0.10000000000E+001
  0.35261000000E+005,  0.52856923892E+008,  0.16500000000E+002,  0.00000000000E+000,  0.10000000000E+001
  0.35321000000E+005,  0.53020742944E+008,  0.16500000000E+002,  0.00000000000E+000,  0.10000000000E+001
  0.35381000000E+005,  0.53180559383E+008,  0.16500000000E+002,  0.00000000000E+000,  0.10000000000E+001
  0.35441000000E+005,  0.53336558280E+008,  0.16500000000E+002,  0.00000000000E+000,  0.10000000000E+001
  0.35501000000E+005,  0.53488912657E+008,  0.16500000000E+002,  0.00000000000E+000,  0.10000000000E+001
  0.35561000000E+005,  0.53637784566E+008,  0.16500000000E+002,  0.00000000000E+000,  0.10000000000E+001
  0.35621000000E+005,  0.53783326042E+008,  0.16500000000E+002,  0.00000000000E+000,  0.10000000000E+001
  0.35681000000E+005,  0.53925679662E+008,  0.16500000000E+002,  0.00000000000E+000,  0.10000000000E+001
  0.35741000000E+005,  0.54064979458E+008,  0.16500000000E+002,  0.00000000000E+000,  0.10000000000E+001
  0.35801000000E+005,  0.54201351511E+008,  0.16500000000E+002,  0.00000000000E+000,  0.10000000000E+001
  0.35861000000E+005,  0.54334914559E+008,  0.16500000000E+002,  0.00000000000E+000,  0.10000000000E+001
  0.35921000000E+005,  0.54465780533E+008,  0.16500000000E+002,  0.00000000000E+000,  0.10000000000E+001
  0.35981000000E+005,  0.54594055049E+008,  0.16500000000E+002,  0.00000000000E+000,  0.10000000000E+001
  0.36041000000E+005,  0.54490789412E+008,  0.16500000000E+002,  0.00000000000E+000,  0.10000000000E+001
  0.36101000000E+005,  0.54416137679E+008,  0.16500000000E+002,  0.00000000000E+000,  0.10000000000E+001
  0.36161000000E+005,  0.54438807234E+008,  0.16500000000E+002,  0.00000000000E+000,  0.10000000000E+001
  0.36221000000E+005,  0.54491346988E+008,  0.16500000000E+002,  0.00000000000E+000,  0.10000000000E+001
  0.36281000000E+005,  0.54557962339E+008,  0.16500000000E+002,  0.00000000000E+000,  0.10000000000E+001
  0.36341000000E+005,  0.54632399762E+008,  0.16500000000E+002,  0.00000000000E+000,  0.10000000000E+001
  0.36401000000E+005,  0.54711573633E+008,  0.16500000000E+002,  0.00000000000E+000,  0.10000000000E+001
  0.36461000000E+005,  0.54793687982E+008,  0.16500000000E+002,  0.00000000000E+000,  0.10000000000E+001
  0.36521000000E+005,  0.54877632686E+008,  0.16500000000E+002,  0.00000000000E+000,  0.10000000000E+001
  0.36581000000E+005,  0.54962678336E+008,  0.16500000000E+002,  0.00000000000E+000,  0.10000000000E+001
  0.36641000000E+005,  0.55048323242E+008,  0.16500000000E+002,  0.00000000000E+000,  0.10000000000E+001
  0.36701000000E+005,  0.55134210276E+008,  0.16500000000E+002,  0.00000000000E+000,  0.10000000000E+001
  0.36761000000E+005,  0.55220078926E+008,  0.16500000000E+002,  0.00000000000E+000,  0.10000000000E+001
  0.36821000000E+005,  0.55305735734E+008,  0.16500000000E+002,  0.00000000000E+000,  0.10000000000E+001
  0.36881000000E+005,  0.55391035256E+008,  0.16500000000E+002,  0.00000000000E+000,  0.10000000000E+001
  0.36941000000E+005,  0.55475867301E+008,  0.16500000000E+002,  0.00000000000E+000,  0.10000000000E+001
  0.37001000000E+005,  0.55560148075E+008,  0.16500000000E+002,  0.00000000000E+000,  0.10000000000E+001
  0.37061000000E+005,  0.55643813910E+008,  0.16500000000E+002,  0.00000000000E+000,  0.10000000000E+001
  0.37121000000E+005,  0.55726816639E+008,  0.16500000000E+002,  0.00000000000E+000,  0.10000000000E+001
  0.37181000000E+005,  0.55809120198E+008,  0.16500000000E+002,  0.00000000000E+000,  0.10000000000E+001
  0.37241000000E+005,  0.55890698033E+008,  0.16500000000E+002,  0.00000000000E+000,  0.10000000000E+001
  0.37301000000E+005,  0.55971531147E+008,  0.16500000000E+002,  0.00000000000E+000,  0.10000000000E+001
  0.37361000000E+005,  0.56051606543E+008,  0.16500000000E+002,  0.00000000000E+000,  0.10000000000E+001
  0.37421000000E+005,  0.56130916051E+008,  0.16500000000E+002,  0.00000000000E+000,  0.10000000000E+001
  0.37481000000E+005,  0.56127676024E+008,  0.16500000000E+002,  0.00000000000E+000,  0.10000000000E+001
  0.37541000000E+005,  0.56586533114E+008,  0.16500000000E+002,  0.00000000000E+000,  0.10000000000E+001
  0.37601000000E+005,  0.56809384601E+008,  0.16500000000E+002,  0.00000000000E+000,  0.10000000000E+001
  0.37661000000E+005,  0.56972843416E+008,  0.16500000000E+002,  0.00000000000E+000,  0.10000000000E+001
  0.37721000000E+005,  0.57110070680E+008,  0.16500000000E+002,  0.00000000000E+000,  0.10000000000E+001
  0.37781000000E+005,  0.57232407200E+008,  0.16500000000E+002,  0.00000000000E+000,  0.10000000000E+001
  0.37841000000E+005,  0.57345011483E+008,  0.16500000000E+002,  0.00000000000E+000,  0.10000000000E+001
  0.37901000000E+005,  0.57450651498E+008,  0.16500000000E+002,  0.00000000000E+000,  0.10000000000E+001
  0.37961000000E+005,  0.57550985266E+008,  0.16500000000E+002,  0.00000000000E+000,  0.10000000000E+001
  0.38021000000E+005,  0.57647088348E+008,  0.16500000000E+002,  0.00000000000E+000,  0.10000000000E+001
  0.38081000000E+005,  0.57739701838E+008,  0.16500000000E+002,  0.00000000000E+000,  0.10000000000E+001
  0.38141000000E+005,  0.57829360823E+008,  0.16500000000E+002,  0.00000000000E+000,  0.10000000000E+001
  0.38201000000E+005,  0.57916466131E+008,  0.16500000000E+002,  0.00000000000E+000,  0.10000000000E+001
  0.38261000000E+005,  0.58001327040E+008,  0.16500000000E+002,  0.00000000000E+000,  0.10000000000E+001
  0.38321000000E+005,  0.58084187960E+008,  0.16500000000E+002,  0.00000000000E+000,  0.10000000000E+001
  0.38381000000E+005,  0.58165245958E+008,  0.16500000000E+002,  0.00000000000E+000,  0.10000000000E+001
  0.38441000000E+005,  0.58244662649E+008,  0.16500000000E+002,  0.00000000000E+000,  0.10000000000E+001
  0.38501000000E+005,  0.58322572525E+008,  0.16500000000E+002,  0.00000000000E+000,  0.10000000000E+001
  0.38561000000E+005,  0.58399088953E+008,  0.16500000000E+002,  0.00000000000E+000,  0.10000000000E+001
  0.38621000000E+005,  0.58474308577E+008,  0.16500000000E+002,  0.00000000000E+000,  0.10000000000E+001
  0.38681000000E+005,  0.58548314635E+008,  0.16500000000E+002,  0.00000000000E+000,  0.10000000000E+001
  0.38741000000E+005,  0.58621179494E+008,  0.16500000000E+002,  0.00000000000E+000,  0.10000000000E+001
  0.38801000000E+005,  0.58692966602E+008,  0.16500000000E+002,  0.00000000000E+000,  0.10000000000E+001
  0.38861000000E+005,  0.58763732025E+008,  0.16500000000E+002,  0.00000000000E+000,  0.10000000000E+001
  0.38921000000E+005,  0.58833525660E+008,  0.16500000000E+002,  0.00000000000E+000,  0.10000000000E+001
  0.38981000000E+005,  0.58902392209E+008,  0.16500000000E+002,  0.00000000000E+000,  0.10000000000E+001
  0.39041000000E+005,  0.58970371966E+008,  0.16500000000E+002,  0.00000000000E+000,  0.10000000000E+001
  0.39101000000E+005,  0.59037501453E+008,  0.16500000000E+002,  0.00000000000E+000,  0.10000000000E+001
  0.39161000000E+005,  0.59103813954E+008,  0.16500000000E+002,  0.00000000000E+000,  0.10000000000E+001
  0.39221000000E+005,  0.59169339932E+008,  0.16500000000E+002,  0.00000000000E+000,  0.10000000000E+001
  0.39281000000E+005,  0.59234107410E+008,  0.16500000000E+002,  0.00000000000E+000,  0.10000000000E+001
  0.39341000000E+005,  0.59298142264E+008,  0.16500000000E+002,  0.00000000000E+000,  0.10000000000E+001
  0.39401000000E+005,  0.59361468485E+008,  0.16500000000E+002,  0.00000000000E+000,  0.10000000000E+001
  0.39461000000E+005,  0.59424108379E+008,  0.16500000000E+002,  0.00000000000E+000,  0.10000000000E+001
  0.39521000000E+005,  0.59486082771E+008,  0.16500000000E+002,  0.00000000000E+000,  0.10000000000E+001
  0.39581000000E+005,  0.59547411154E+008,  0.16500000000E+002,  0.00000000000E+000,  0.10000000000E+001
  0.39641000000E+005,  0.59608111828E+008,  0.16500000000E+002,  0.00000000000E+000,  0.10000000000E+001
  0.39701000000E+005,  0.59668202009E+008,  0.16500000000E+002,  0.00000000000E+000,  0.10000000000E+001
  0.39761000000E+005,  0.59727697943E+008,  0.16500000000E+002,  0.00000000000E+000,  0.10000000000E+001
  0.39821000000E+005,  0.59786614990E+008,  0.16500000000E+002,  0.00000000000E+000,  0.10000000000E+001
  0.39881000000E+005,  0.59844967704E+008,  0.16500000000E+002,  0.00000000000E+000,  0.10000000000E+001
  0.39941000000E+005,  0.59902769901E+008,  0.16500000000E+002,  0.00000000000E+000,  0.10000000000E+001
  0.40001000000E+005,  0.59960034720E+008,  0.16500000000E+002,  0.00000000000E+000,  0.10000000000E+001
  0.40061000000E+005,  0.60016774675E+008,  0.16500000000E+002,  0.00000000000E+000,  0.10000000000E+001
  0.40121000000E+005,  0.60073001711E+008,  0.16500000000E+002,  0.00000000000E+000,  0.10000000000E+001
  0.40181000000E+005,  0.60128727237E+008,  0.16500000000E+002,  0.00000000000E+000,  0.10000000000E+001
  0.40241000000E+005,  0.60183962171E+008,  0.16500000000E+002,  0.00000000000E+000,  0.10000000000E+001
  0.40301000000E+005,  0.60238716975E+008,  0.16500000000E+002,  0.00000000000E+000,  0.10000000000E+001
  0.40361000000E+005,  0.60293001681E+008,  0.16500000000E+002,  0.00000000000E+000,  0.10000000000E+001
  0.40421000000E+005,  0.60346825925E+008,  0.16500000000E+002,  0.00000000000E+000,  0.10000000000E+001
  0.40481000000E+005,  0.60400198971E+008,  0.16500000000E+002,  0.00000000000E+000,  0.10000000000E+001
  0.40541000000E+005,  0.60453129733E+008,  0.16500000000E+002,  0.00000000000E+000,  0.10000000000E+001
  0.40601000000E+005,  0.60505626797E+008,  0.16500000000E+002,  0.00000000000E+000,  0.10000000000E+001
  0.40661000000E+005,  0.60557698442E+008,  0.16500000000E+002,  0.00000000000E+000,  0.10000000000E+001
  0.40721000000E+005,  0.60609352654E+008,  0.16500000000E+002,  0.00000000000E+000,  0.10000000000E+001
  0.40781000000E+005,  0.60660597148E+008,  0.16500000000E+002,  0.00000000000E+000,  0.10000000000E+001
  0.40841000000E+005,  0.60711439378E+008,  0.16500000000E+002,  0.00000000000E+000,  0.10000000000E+001
  0.40901000000E+005,  0.60761886553E+008,  0.16500000000E+002,  0.00000000000E+000,  0.10000000000E+001
  0.40961000000E+005,  0.60811945651E+008,  0.16500000000E+002,  0.00000000000E+000,  0.10000000000E+001
  0.41021000000E+005,  0.60861623429E+008,  0.16500000000E+002,  0.00000000000E+000,  0.10000000000E+001
  0.41081000000E+005,  0.60910926435E+008,  0.16500000000E+002,  0.00000000000E+000,  0.10000000000E+001
  0.41141000000E+005,  0.60959861016E+008,  0.16500000000E+002,  0.00000000000E+000,  0.10000000000E+001
  0.41201000000E+005,  0.61008433333E+008,  0.16500000000E+002,  0.00000000000E+000,  0.10000000000E+001
  0.41261000000E+005,  0.61056649362E+008,  0.16500000000E+002,  0.00000000000E+000,  0.10000000000E+001
  0.41321000000E+005,  0.61104514907E+008,  0.16500000000E+002,  0.00000000000E+000,  0.10000000000E+001
  0.41381000000E+005,  0.61152035613E+008,  0.16500000000E+002,  0.00000000000E+000,  0.10000000000E+001
  0.41441000000E+005,  0.61199216963E+008,  0.16500000000E+002,  0.00000000000E+000,  0.10000000000E+001
  0.41501000000E+005,  0.61246064290E+008,  0.16500000000E+002,  0.00000000000E+000,  0.10000000000E+001
  0.41561000000E+005,  0.61292582781E+008,  0.16500000000E+002,  0.00000000000E+000,  0.10000000000E+001
  0.41621000000E+005,  0.61338777488E+008,  0.16500000000E+002,  0.00000000000E+000,  0.10000000000E+001
  0.41681000000E+005,  0.61384653328E+008,  0.16500000000E+002,  0.00000000000E+000,  0.10000000000E+001
  0.41741000000E+005,  0.61430215091E+008,  0.16500000000E+002,  0.00000000000E+000,  0.10000000000E+001
  0.41801000000E+005,  0.61475467446E+008,  0.16500000000E+002,  0.00000000000E+000,  0.10000000000E+001
  0.41861000000E+005,  0.61520414942E+008,  0.16500000000E+002,  0.00000000000E+000,  0.10000000000E+001
  0.41921000000E+005,  0.61565062018E+008,  0.16500000000E+002,  0.00000000000E+000,  0.10000000000E+001
  0.41981000000E+005,  0.61609413004E+008,  0.16500000000E+002,  0.00000000000E+000,  0.10000000000E+001
  0.42041000000E+005,  0.61522114587E+008,  0.16500000000E+002,  0.00000000000E+000,  0.10000000000E+001
  0.42101000000E+005,  0.61452167873E+008,  0.16500000000E+002,  0.00000000000E+000,  0.10000000000E+001
  0.42161000000E+005,  0.61439263267E+008,  0.16500000000E+002,  0.00000000000E+000,  0.10000000000E+001
  0.42221000000E+005,  0.61444557497E+008,  0.16500000000E+002,  0.00000000000E+000,  0.10000000000E+001
  0.42281000000E+005,  0.61458830109E+008,  0.16500000000E+002,  0.00000000000E+000,  0.10000000000E+001
  0.42341000000E+005,  0.61478485879E+008,  0.16500000000E+002,  0.00000000000E+000,  0.10000000000E+001
  0.42401000000E+005,  0.61501645743E+008,  0.16500000000E+002,  0.00000000000E+000,  0.10000000000E+001
  0.42461000000E+005,  0.61527307383E+008,  0.16500000000E+002,  0.00000000000E+000,  0.10000000000E+001
  0.42521000000E+005,  0.61554814047E+008,  0.16500000000E+002,  0.00000000000E+000,  0.10000000000E+001
  0.42581000000E+005,  0.61583722682E+008,  0.16500000000E+002,  0.00000000000E+000,  0.10000000000E+001
  0.42641000000E+005,  0.61613716902E+008,  0.16500000000E+002,  0.00000000000E+000,  0.10000000000E+001
  0.42701000000E+005,  0.61644560945E+008,  0.16500000000E+002,  0.00000000000E+000,  0.10000000000E+001
  0.42761000000E+005,  0.61676088908E+008,  0.16500000000E+002,  0.00000000000E+000,  0.10000000000E+001
  0.42821000000E+005,  0.61708149959E+008,  0.16500000000E+002,  0.00000000000E+000,  0.10000000000E+001
  0.42881000000E+005,  0.61740643153E+008,  0.16500000000E+002,  0.00000000000E+000,  0.10000000000E+001
  0.42941000000E+005,  0.61773487041E+008,  0.16500000000E+002,  0.00000000000E+000,  0.10000000000E+001
  0.43001000000E+005,  0.61806601634E+008,  0.16500000000E+002,  0.00000000000E+000,  0.10000000000E+001
  0.43061000000E+005,  0.61839934134E+008,  0.16500000000E+002,  0.00000000000E+000,  0.10000000000E+001
  0.43121000000E+005,  0.61873438722E+008,  0.16500000000E+002,  0.00000000000E+000,  0.10000000000E+001
  0.43181000000E+005,  0.61907073991E+008,  0.16500000000E+002,  0.00000000000E+000,  0.10000000000E+001
  0.43241000000E+005,  0.61940805004E+008,  0.16500000000E+002,  0.00000000000E+000,  0.10000000000E+001
  0.43301000000E+005,  0.61974602354E+008,  0.16500000000E+002,  0.00000000000E+000,  0.10000000000E+001
  0.43361000000E+005,  0.62008441081E+008,  0.16500000000E+002,  0.00000000000E+000,  0.10000000000E+001
  0.43421000000E+005,  0.62042299856E+008,  0.16500000000E+002,  0.00000000000E+000,  0.10000000000E+001
  0.43481000000E+005,  0.62076160337E+008,  0.16500000000E+002,  0.00000000000E+000,  0.10000000000E+001
  0.43541000000E+005,  0.62110006688E+008,  0.16500000000E+002,  0.00000000000E+000,  0.10000000000E+001
  0.43601000000E+005,  0.62143825174E+008,  0.16500000000E+002,  0.00000000000E+000,  0.10000000000E+001
  0.43661000000E+005,  0.62177603849E+008,  0.16500000000E+002,  0.00000000000E+000,  0.10000000000E+001
