"           TIME(S)","              PRES","              TEMP","             SAT_G","             SAT_L"
  0.94878500000E+005,  0.99997395711E+006,  0.16500000000E+002,  0.00000000000E+000,  0.10000000000E+001
  0.94880500000E+005,  0.99997395659E+006,  0.16500000000E+002,  0.00000000000E+000,  0.10000000000E+001
  0.94882500000E+005,  0.10000015179E+007,  0.16500000000E+002,  0.00000000000E+000,  0.10000000000E+001
  0.94884500000E+005,  0.10000601567E+007,  0.16500000000E+002,  0.00000000000E+000,  0.10000000000E+001
  0.94886500000E+005,  0.10001187890E+007,  0.16500000000E+002,  0.00000000000E+000,  0.10000000000E+001
  0.94888500000E+005,  0.10001774151E+007,  0.16500000000E+002,  0.00000000000E+000,  0.10000000000E+001
  0.94890500000E+005,  0.10002360349E+007,  0.16500000000E+002,  0.00000000000E+000,  0.10000000000E+001
  0.94892500000E+005,  0.10002946484E+007,  0.16500000000E+002,  0.00000000000E+000,  0.10000000000E+001
  0.94894500000E+005,  0.10003532556E+007,  0.16500000000E+002,  0.00000000000E+000,  0.10000000000E+001
  0.94896500000E+005,  0.10004118566E+007,  0.16500000000E+002,  0.00000000000E+000,  0.10000000000E+001
  0.94898500000E+005,  0.10004704513E+007,  0.16500000000E+002,  0.00000000000E+000,  0.10000000000E+001
  0.94900500000E+005,  0.10005290398E+007,  0.16500000000E+002,  0.00000000000E+000,  0.10000000000E+001
  0.94902500000E+005,  0.10005876220E+007,  0.16500000000E+002,  0.00000000000E+000,  0.10000000000E+001
  0.94904500000E+005,  0.10006461980E+007,  0.16500000000E+002,  0.00000000000E+000,  0.10000000000E+001
  0.94906500000E+005,  0.10007047677E+007,  0.16500000000E+002,  0.00000000000E+000,  0.10000000000E+001
  0.94908500000E+005,  0.10007633312E+007,  0.16500000000E+002,  0.00000000000E+000,  0.10000000000E+001
  0.94910500000E+005,  0.10008218885E+007,  0.16500000000E+002,  0.00000000000E+000,  0.10000000000E+001
  0.94912500000E+005,  0.10008804395E+007,  0.16500000000E+002,  0.00000000000E+000,  0.10000000000E+001
  0.94914500000E+005,  0.10009392248E+007,  0.16500000000E+002,  0.00000000000E+000,  0.10000000000E+001
  0.94916500000E+005,  0.10010258729E+007,  0.16500000000E+002,  0.00000000000E+000,  0.10000000000E+001
  0.94918500000E+005,  0.10010927092E+007,  0.16500000000E+002,  0.00000000000E+000,  0.10000000000E+001
  0.94920500000E+005,  0.10011579657E+007,  0.16500000000E+002,  0.00000000000E+000,  0.10000000000E+001
  0.94922500000E+005,  0.10012147926E+007,  0.16500000000E+002,  0.00000000000E+000,  0.10000000000E+001
  0.94924500000E+005,  0.10012892554E+007,  0.16500000000E+002,  0.00000000000E+000,  0.10000000000E+001
  0.94926500000E+005,  0.10013702959E+007,  0.16500000000E+002,  0.00000000000E+000,  0.10000000000E+001
  0.94928500000E+005,  0.10014818905E+007,  0.16500000000E+002,  0.00000000000E+000,  0.10000000000E+001
  0.94930500000E+005,  0.10016176953E+007,  0.16500000000E+002,  0.00000000000E+000,  0.10000000000E+001
  0.94932500000E+005,  0.10018223090E+007,  0.16500000000E+002,  0.00000000000E+000,  0.10000000000E+001
  0.94934500000E+005,  0.10020790953E+007,  0.16500000000E+002,  0.00000000000E+000,  0.10000000000E+001
  0.94936500000E+005,  0.10023367287E+007,  0.16500000000E+002,  0.00000000000E+000,  0.10000000000E+001
  0.94938500000E+005,  0.10025942422E+007,  0.16500000000E+002,  0.00000000000E+000,  0.10000000000E+001
  0.94940500000E+005,  0.10028516358E+007,  0.16500000000E+002,  0.00000000000E+000,  0.10000000000E+001
  0.94942500000E+005,  0.10031089099E+007,  0.16500000000E+002,  0.00000000000E+000,  0.10000000000E+001
  0.94944500000E+005,  0.10033660644E+007,  0.16500000000E+002,  0.00000000000E+000,  0.10000000000E+001
  0.94946500000E+005,  0.10036505399E+007,  0.16500000000E+002,  0.00000000000E+000,  0.10000000000E+001
  0.94948500000E+005,  0.10039659304E+007,  0.16500000000E+002,  0.00000000000E+000,  0.10000000000E+001
  0.94950500000E+005,  0.10042617956E+007,  0.16500000000E+002,  0.00000000000E+000,  0.10000000000E+001
  0.94952500000E+005,  0.10045580003E+007,  0.16500000000E+002,  0.00000000000E+000,  0.10000000000E+001
  0.94954500000E+005,  0.10048555168E+007,  0.16500000000E+002,  0.00000000000E+000,  0.10000000000E+001
  0.94956500000E+005,  0.10051408531E+007,  0.16500000000E+002,  0.00000000000E+000,  0.10000000000E+001
  0.94958500000E+005,  0.10054256423E+007,  0.16500000000E+002,  0.00000000000E+000,  0.10000000000E+001
  0.94960500000E+005,  0.10057102852E+007,  0.16500000000E+002,  0.00000000000E+000,  0.10000000000E+001
  0.94962500000E+005,  0.10059947820E+007,  0.16500000000E+002,  0.00000000000E+000,  0.10000000000E+001
  0.94964500000E+005,  0.10062791329E+007,  0.16500000000E+002,  0.00000000000E+000,  0.10000000000E+001
  0.94966500000E+005,  0.10065633380E+007,  0.16500000000E+002,  0.00000000000E+000,  0.10000000000E+001
  0.94968500000E+005,  0.10068473974E+007,  0.16500000000E+002,  0.00000000000E+000,  0.10000000000E+001
  0.94970500000E+005,  0.10071313113E+007,  0.16500000000E+002,  0.00000000000E+000,  0.10000000000E+001
  0.94972500000E+005,  0.10074150798E+007,  0.16500000000E+002,  0.00000000000E+000,  0.10000000000E+001
  0.94974500000E+005,  0.10076987032E+007,  0.16500000000E+002,  0.00000000000E+000,  0.10000000000E+001
  0.94976500000E+005,  0.10079821815E+007,  0.16500000000E+002,  0.00000000000E+000,  0.10000000000E+001
  0.94978500000E+005,  0.10082655150E+007,  0.16500000000E+002,  0.00000000000E+000,  0.10000000000E+001
  0.94980500000E+005,  0.10085487037E+007,  0.16500000000E+002,  0.00000000000E+000,  0.10000000000E+001
  0.94982500000E+005,  0.10088317478E+007,  0.16500000000E+002,  0.00000000000E+000,  0.10000000000E+001
  0.94984500000E+005,  0.10091146474E+007,  0.16500000000E+002,  0.00000000000E+000,  0.10000000000E+001
  0.94986500000E+005,  0.10093974028E+007,  0.16500000000E+002,  0.00000000000E+000,  0.10000000000E+001
  0.94988500000E+005,  0.10096800141E+007,  0.16500000000E+002,  0.00000000000E+000,  0.10000000000E+001
  0.94990500000E+005,  0.10099624813E+007,  0.16500000000E+002,  0.00000000000E+000,  0.10000000000E+001
  0.94992500000E+005,  0.10102448047E+007,  0.16500000000E+002,  0.00000000000E+000,  0.10000000000E+001
  0.94994500000E+005,  0.10105372289E+007,  0.16500000000E+002,  0.00000000000E+000,  0.10000000000E+001
  0.94996500000E+005,  0.10108290289E+007,  0.16500000000E+002,  0.00000000000E+000,  0.10000000000E+001
  0.94998500000E+005,  0.10111154796E+007,  0.16500000000E+002,  0.00000000000E+000,  0.10000000000E+001
  0.95000500000E+005,  0.10114017824E+007,  0.16500000000E+002,  0.00000000000E+000,  0.10000000000E+001
  0.95002500000E+005,  0.10116879373E+007,  0.16500000000E+002,  0.00000000000E+000,  0.10000000000E+001
  0.95004500000E+005,  0.10119739447E+007,  0.16500000000E+002,  0.00000000000E+000,  0.10000000000E+001
  0.95006500000E+005,  0.10122598046E+007,  0.16500000000E+002,  0.00000000000E+000,  0.10000000000E+001
  0.95008500000E+005,  0.10125455173E+007,  0.16500000000E+002,  0.00000000000E+000,  0.10000000000E+001
  0.95010500000E+005,  0.10128310827E+007,  0.16500000000E+002,  0.00000000000E+000,  0.10000000000E+001
  0.95012500000E+005,  0.10131165012E+007,  0.16500000000E+002,  0.00000000000E+000,  0.10000000000E+001
  0.95014500000E+005,  0.10134017728E+007,  0.16500000000E+002,  0.00000000000E+000,  0.10000000000E+001
  0.95016500000E+005,  0.10136868978E+007,  0.16500000000E+002,  0.00000000000E+000,  0.10000000000E+001
  0.95018500000E+005,  0.10139718762E+007,  0.16500000000E+002,  0.00000000000E+000,  0.10000000000E+001
  0.95020500000E+005,  0.10142567082E+007,  0.16500000000E+002,  0.00000000000E+000,  0.10000000000E+001
  0.95022500000E+005,  0.10145463938E+007,  0.16500000000E+002,  0.00000000000E+000,  0.10000000000E+001
  0.95024500000E+005,  0.10148303723E+007,  0.16500000000E+002,  0.00000000000E+000,  0.10000000000E+001
  0.95026500000E+005,  0.10151102226E+007,  0.16500000000E+002,  0.00000000000E+000,  0.10000000000E+001
  0.95028500000E+005,  0.10153899317E+007,  0.16500000000E+002,  0.00000000000E+000,  0.10000000000E+001
  0.95030500000E+005,  0.10156694999E+007,  0.16500000000E+002,  0.00000000000E+000,  0.10000000000E+001
  0.95032500000E+005,  0.10159489271E+007,  0.16500000000E+002,  0.00000000000E+000,  0.10000000000E+001
  0.95034500000E+005,  0.10162282137E+007,  0.16500000000E+002,  0.00000000000E+000,  0.10000000000E+001
  0.95036500000E+005,  0.10165073596E+007,  0.16500000000E+002,  0.00000000000E+000,  0.10000000000E+001
  0.95038500000E+005,  0.10167863651E+007,  0.16500000000E+002,  0.00000000000E+000,  0.10000000000E+001
  0.95040500000E+005,  0.10170652303E+007,  0.16500000000E+002,  0.00000000000E+000,  0.10000000000E+001
  0.95042500000E+005,  0.10173439554E+007,  0.16500000000E+002,  0.00000000000E+000,  0.10000000000E+001
  0.95044500000E+005,  0.10176225404E+007,  0.16500000000E+002,  0.00000000000E+000,  0.10000000000E+001
  0.95046500000E+005,  0.10179009856E+007,  0.16500000000E+002,  0.00000000000E+000,  0.10000000000E+001
  0.95048500000E+005,  0.10181792910E+007,  0.16500000000E+002,  0.00000000000E+000,  0.10000000000E+001
  0.95050500000E+005,  0.10184574568E+007,  0.16500000000E+002,  0.00000000000E+000,  0.10000000000E+001
  0.95052500000E+005,  0.10187354831E+007,  0.16500000000E+002,  0.00000000000E+000,  0.10000000000E+001
  0.95054500000E+005,  0.10190133702E+007,  0.16500000000E+002,  0.00000000000E+000,  0.10000000000E+001
  0.95056500000E+005,  0.10192911181E+007,  0.16500000000E+002,  0.00000000000E+000,  0.10000000000E+001
  0.95058500000E+005,  0.10195687269E+007,  0.16500000000E+002,  0.00000000000E+000,  0.10000000000E+001
  0.95060500000E+005,  0.10198461968E+007,  0.16500000000E+002,  0.00000000000E+000,  0.10000000000E+001
  0.95062500000E+005,  0.10201235280E+007,  0.16500000000E+002,  0.00000000000E+000,  0.10000000000E+001
  0.95064500000E+005,  0.10204007206E+007,  0.16500000000E+002,  0.00000000000E+000,  0.10000000000E+001
  0.95066500000E+005,  0.10206777747E+007,  0.16500000000E+002,  0.00000000000E+000,  0.10000000000E+001
  0.95068500000E+005,  0.10209546905E+007,  0.16500000000E+002,  0.00000000000E+000,  0.10000000000E+001
  0.95070500000E+005,  0.10212314680E+007,  0.16500000000E+002,  0.00000000000E+000,  0.10000000000E+001
  0.95072500000E+005,  0.10215081076E+007,  0.16500000000E+002,  0.00000000000E+000,  0.10000000000E+001
  0.95074500000E+005,  0.10217846092E+007,  0.16500000000E+002,  0.00000000000E+000,  0.10000000000E+001
  0.95076500000E+005,  0.10220609730E+007,  0.16500000000E+002,  0.00000000000E+000,  0.10000000000E+001
  0.95078500000E+005,  0.10223371991E+007,  0.16500000000E+002,  0.00000000000E+000,  0.10000000000E+001
  0.95080500000E+005,  0.10226132878E+007,  0.16500000000E+002,  0.00000000000E+000,  0.10000000000E+001
  0.95082500000E+005,  0.10228892391E+007,  0.16500000000E+002,  0.00000000000E+000,  0.10000000000E+001
  0.95084500000E+005,  0.10231650532E+007,  0.16500000000E+002,  0.00000000000E+000,  0.10000000000E+001
  0.95086500000E+005,  0.10234407301E+007,  0.16500000000E+002,  0.00000000000E+000,  0.10000000000E+001
  0.95088500000E+005,  0.10237162702E+007,  0.16500000000E+002,  0.00000000000E+000,  0.10000000000E+001
  0.95090500000E+005,  0.10239916734E+007,  0.16500000000E+002,  0.00000000000E+000,  0.10000000000E+001
  0.95092500000E+005,  0.10242669399E+007,  0.16500000000E+002,  0.00000000000E+000,  0.10000000000E+001
  0.95094500000E+005,  0.10245420699E+007,  0.16500000000E+002,  0.00000000000E+000,  0.10000000000E+001
  0.95096500000E+005,  0.10248170634E+007,  0.16500000000E+002,  0.00000000000E+000,  0.10000000000E+001
  0.95098500000E+005,  0.10250919207E+007,  0.16500000000E+002,  0.00000000000E+000,  0.10000000000E+001
  0.95100500000E+005,  0.10253666419E+007,  0.16500000000E+002,  0.00000000000E+000,  0.10000000000E+001
  0.95102500000E+005,  0.10256412270E+007,  0.16500000000E+002,  0.00000000000E+000,  0.10000000000E+001
  0.95104500000E+005,  0.10259156763E+007,  0.16500000000E+002,  0.00000000000E+000,  0.10000000000E+001
  0.95106500000E+005,  0.10261899899E+007,  0.16500000000E+002,  0.00000000000E+000,  0.10000000000E+001
  0.95108500000E+005,  0.10264641678E+007,  0.16500000000E+002,  0.00000000000E+000,  0.10000000000E+001
  0.95110500000E+005,  0.10267382103E+007,  0.16500000000E+002,  0.00000000000E+000,  0.10000000000E+001
  0.95112500000E+005,  0.10270121175E+007,  0.16500000000E+002,  0.00000000000E+000,  0.10000000000E+001
  0.95114500000E+005,  0.10272858895E+007,  0.16500000000E+002,  0.00000000000E+000,  0.10000000000E+001
  0.95116500000E+005,  0.10275595264E+007,  0.16500000000E+002,  0.00000000000E+000,  0.10000000000E+001
  0.95118500000E+005,  0.10278330284E+007,  0.16500000000E+002,  0.00000000000E+000,  0.10000000000E+001
  0.95120500000E+005,  0.10281063956E+007,  0.16500000000E+002,  0.00000000000E+000,  0.10000000000E+001
  0.95122500000E+005,  0.10283796281E+007,  0.16500000000E+002,  0.00000000000E+000,  0.10000000000E+001
  0.95124500000E+005,  0.10286527261E+007,  0.16500000000E+002,  0.00000000000E+000,  0.10000000000E+001
  0.95126500000E+005,  0.10289256898E+007,  0.16500000000E+002,  0.00000000000E+000,  0.10000000000E+001
  0.95128500000E+005,  0.10291985191E+007,  0.16500000000E+002,  0.00000000000E+000,  0.10000000000E+001
  0.95130500000E+005,  0.10294712144E+007,  0.16500000000E+002,  0.00000000000E+000,  0.10000000000E+001
  0.95132500000E+005,  0.10297437756E+007,  0.16500000000E+002,  0.00000000000E+000,  0.10000000000E+001
  0.95134500000E+005,  0.10300162030E+007,  0.16500000000E+002,  0.00000000000E+000,  0.10000000000E+001
  0.95136500000E+005,  0.10302884966E+007,  0.16500000000E+002,  0.00000000000E+000,  0.10000000000E+001
  0.95138500000E+005,  0.10305606567E+007,  0.16500000000E+002,  0.00000000000E+000,  0.10000000000E+001
  0.95140500000E+005,  0.10308326833E+007,  0.16500000000E+002,  0.00000000000E+000,  0.10000000000E+001
  0.95142500000E+005,  0.10311045765E+007,  0.16500000000E+002,  0.00000000000E+000,  0.10000000000E+001
  0.95144500000E+005,  0.10313763365E+007,  0.16500000000E+002,  0.00000000000E+000,  0.10000000000E+001
  0.95146500000E+005,  0.10316479635E+007,  0.16500000000E+002,  0.00000000000E+000,  0.10000000000E+001
  0.95148500000E+005,  0.10319194575E+007,  0.16500000000E+002,  0.00000000000E+000,  0.10000000000E+001
  0.95150500000E+005,  0.10321908187E+007,  0.16500000000E+002,  0.00000000000E+000,  0.10000000000E+001
  0.95152500000E+005,  0.10324620473E+007,  0.16500000000E+002,  0.00000000000E+000,  0.10000000000E+001
  0.95154500000E+005,  0.10327331433E+007,  0.16500000000E+002,  0.00000000000E+000,  0.10000000000E+001
  0.95156500000E+005,  0.10330041068E+007,  0.16500000000E+002,  0.00000000000E+000,  0.10000000000E+001
  0.95158500000E+005,  0.10332749381E+007,  0.16500000000E+002,  0.00000000000E+000,  0.10000000000E+001
  0.95160500000E+005,  0.10335456372E+007,  0.16500000000E+002,  0.00000000000E+000,  0.10000000000E+001
  0.95162500000E+005,  0.10338162042E+007,  0.16500000000E+002,  0.00000000000E+000,  0.10000000000E+001
  0.95164500000E+005,  0.10340866394E+007,  0.16500000000E+002,  0.00000000000E+000,  0.10000000000E+001
  0.95166500000E+005,  0.10343569428E+007,  0.16500000000E+002,  0.00000000000E+000,  0.10000000000E+001
  0.95168500000E+005,  0.10346271145E+007,  0.16500000000E+002,  0.00000000000E+000,  0.10000000000E+001
  0.95170500000E+005,  0.10348971548E+007,  0.16500000000E+002,  0.00000000000E+000,  0.10000000000E+001
  0.95172500000E+005,  0.10351670636E+007,  0.16500000000E+002,  0.00000000000E+000,  0.10000000000E+001
  0.95174500000E+005,  0.10354368412E+007,  0.16500000000E+002,  0.00000000000E+000,  0.10000000000E+001
  0.95176500000E+005,  0.10357064876E+007,  0.16500000000E+002,  0.00000000000E+000,  0.10000000000E+001
  0.95178500000E+005,  0.10359760030E+007,  0.16500000000E+002,  0.00000000000E+000,  0.10000000000E+001
  0.95180500000E+005,  0.10362453876E+007,  0.16500000000E+002,  0.00000000000E+000,  0.10000000000E+001
  0.95182500000E+005,  0.10365146414E+007,  0.16500000000E+002,  0.00000000000E+000,  0.10000000000E+001
  0.95184500000E+005,  0.10367837646E+007,  0.16500000000E+002,  0.00000000000E+000,  0.10000000000E+001
  0.95186500000E+005,  0.10370527573E+007,  0.16500000000E+002,  0.00000000000E+000,  0.10000000000E+001
  0.95188500000E+005,  0.10373216196E+007,  0.16500000000E+002,  0.00000000000E+000,  0.10000000000E+001
  0.95190500000E+005,  0.10375903517E+007,  0.16500000000E+002,  0.00000000000E+000,  0.10000000000E+001
  0.95192500000E+005,  0.10378589536E+007,  0.16500000000E+002,  0.00000000000E+000,  0.10000000000E+001
  0.95194500000E+005,  0.10381274256E+007,  0.16500000000E+002,  0.00000000000E+000,  0.10000000000E+001
  0.95196500000E+005,  0.10383957677E+007,  0.16500000000E+002,  0.00000000000E+000,  0.10000000000E+001
  0.95198500000E+005,  0.10386639801E+007,  0.16500000000E+002,  0.00000000000E+000,  0.10000000000E+001
  0.95200500000E+005,  0.10389320628E+007,  0.16500000000E+002,  0.00000000000E+000,  0.10000000000E+001
  0.95202500000E+005,  0.10392000161E+007,  0.16500000000E+002,  0.00000000000E+000,  0.10000000000E+001
  0.95204500000E+005,  0.10394678400E+007,  0.16500000000E+002,  0.00000000000E+000,  0.10000000000E+001
  0.95206500000E+005,  0.10397355347E+007,  0.16500000000E+002,  0.00000000000E+000,  0.10000000000E+001
  0.95208500000E+005,  0.10400031003E+007,  0.16500000000E+002,  0.00000000000E+000,  0.10000000000E+001
  0.95210500000E+005,  0.10402705368E+007,  0.16500000000E+002,  0.00000000000E+000,  0.10000000000E+001
  0.95212500000E+005,  0.10405378446E+007,  0.16500000000E+002,  0.00000000000E+000,  0.10000000000E+001
  0.95214500000E+005,  0.10408050235E+007,  0.16500000000E+002,  0.00000000000E+000,  0.10000000000E+001
  0.95216500000E+005,  0.10410720739E+007,  0.16500000000E+002,  0.00000000000E+000,  0.10000000000E+001
  0.95218500000E+005,  0.10413389958E+007,  0.16500000000E+002,  0.00000000000E+000,  0.10000000000E+001
  0.95220500000E+005,  0.10416057893E+007,  0.16500000000E+002,  0.00000000000E+000,  0.10000000000E+001
  0.95222500000E+005,  0.10418724545E+007,  0.16500000000E+002,  0.00000000000E+000,  0.10000000000E+001
  0.95224500000E+005,  0.10421389917E+007,  0.16500000000E+002,  0.00000000000E+000,  0.10000000000E+001
  0.95226500000E+005,  0.10424054008E+007,  0.16500000000E+002,  0.00000000000E+000,  0.10000000000E+001
  0.95228500000E+005,  0.10426716821E+007,  0.16500000000E+002,  0.00000000000E+000,  0.10000000000E+001
  0.95230500000E+005,  0.10429378357E+007,  0.16500000000E+002,  0.00000000000E+000,  0.10000000000E+001
  0.95232500000E+005,  0.10432038616E+007,  0.16500000000E+002,  0.00000000000E+000,  0.10000000000E+001
  0.95234500000E+005,  0.10434697600E+007,  0.16500000000E+002,  0.00000000000E+000,  0.10000000000E+001
  0.95236500000E+005,  0.10437355310E+007,  0.16500000000E+002,  0.00000000000E+000,  0.10000000000E+001
  0.95238500000E+005,  0.10440011748E+007,  0.16500000000E+002,  0.00000000000E+000,  0.10000000000E+001
  0.95240500000E+005,  0.10442666914E+007,  0.16500000000E+002,  0.00000000000E+000,  0.10000000000E+001
  0.95242500000E+005,  0.10445320810E+007,  0.16500000000E+002,  0.00000000000E+000,  0.10000000000E+001
  0.95244500000E+005,  0.10447973437E+007,  0.16500000000E+002,  0.00000000000E+000,  0.10000000000E+001
  0.95246500000E+005,  0.10450624797E+007,  0.16500000000E+002,  0.00000000000E+000,  0.10000000000E+001
  0.95248500000E+005,  0.10453274890E+007,  0.16500000000E+002,  0.00000000000E+000,  0.10000000000E+001
  0.95250500000E+005,  0.10455923717E+007,  0.16500000000E+002,  0.00000000000E+000,  0.10000000000E+001
  0.95252500000E+005,  0.10458571281E+007,  0.16500000000E+002,  0.00000000000E+000,  0.10000000000E+001
  0.95254500000E+005,  0.10461217582E+007,  0.16500000000E+002,  0.00000000000E+000,  0.10000000000E+001
