"           TIME(S)","              PRES","              TEMP","             SAT_G","             SAT_L"
  0.94879000000E+005,  0.78395343773E+006,  0.16500000000E+002,  0.00000000000E+000,  0.10000000000E+001
  0.94884000000E+005,  0.78395350900E+006,  0.16500000000E+002,  0.00000000000E+000,  0.10000000000E+001
  0.94909000000E+005,  0.78395480525E+006,  0.16500000000E+002,  0.00000000000E+000,  0.10000000000E+001
  0.94939000000E+005,  0.78396537776E+006,  0.16500000000E+002,  0.00000000000E+000,  0.10000000000E+001
  0.94969000000E+005,  0.78400293102E+006,  0.16500000000E+002,  0.00000000000E+000,  0.10000000000E+001
  0.94999000000E+005,  0.78409312424E+006,  0.16500000000E+002,  0.00000000000E+000,  0.10000000000E+001
  0.95029000000E+005,  0.78426131739E+006,  0.16500000000E+002,  0.00000000000E+000,  0.10000000000E+001
  0.95059000000E+005,  0.78452563298E+006,  0.16500000000E+002,  0.00000000000E+000,  0.10000000000E+001
  0.95089000000E+005,  0.78489430944E+006,  0.16500000000E+002,  0.00000000000E+000,  0.10000000000E+001
  0.95119000000E+005,  0.78536665306E+006,  0.16500000000E+002,  0.00000000000E+000,  0.10000000000E+001
  0.95149000000E+005,  0.78593560656E+006,  0.16500000000E+002,  0.00000000000E+000,  0.10000000000E+001
  0.95179000000E+005,  0.78659043669E+006,  0.16500000000E+002,  0.00000000000E+000,  0.10000000000E+001
  0.95209000000E+005,  0.78731886013E+006,  0.16500000000E+002,  0.00000000000E+000,  0.10000000000E+001
  0.95239000000E+005,  0.78810847347E+006,  0.16500000000E+002,  0.00000000000E+000,  0.10000000000E+001
  0.95269000000E+005,  0.78894759489E+006,  0.16500000000E+002,  0.00000000000E+000,  0.10000000000E+001
  0.95299000000E+005,  0.78982568544E+006,  0.16500000000E+002,  0.00000000000E+000,  0.10000000000E+001
  0.95329000000E+005,  0.79073350082E+006,  0.16500000000E+002,  0.00000000000E+000,  0.10000000000E+001
  0.95359000000E+005,  0.79166308501E+006,  0.16500000000E+002,  0.00000000000E+000,  0.10000000000E+001
  0.95389000000E+005,  0.79260768088E+006,  0.16500000000E+002,  0.00000000000E+000,  0.10000000000E+001
  0.95419000000E+005,  0.79356160370E+006,  0.16500000000E+002,  0.00000000000E+000,  0.10000000000E+001
  0.95449000000E+005,  0.79452010496E+006,  0.16500000000E+002,  0.00000000000E+000,  0.10000000000E+001
  0.95479000000E+005,  0.79547924058E+006,  0.16500000000E+002,  0.00000000000E+000,  0.10000000000E+001
  0.95509000000E+005,  0.79643575109E+006,  0.16500000000E+002,  0.00000000000E+000,  0.10000000000E+001
  0.95539000000E+005,  0.79738695599E+006,  0.16500000000E+002,  0.00000000000E+000,  0.10000000000E+001
  0.95569000000E+005,  0.79833066256E+006,  0.16500000000E+002,  0.00000000000E+000,  0.10000000000E+001
  0.95599000000E+005,  0.79926508835E+006,  0.16500000000E+002,  0.00000000000E+000,  0.10000000000E+001
  0.95629000000E+005,  0.80018879563E+006,  0.16500000000E+002,  0.00000000000E+000,  0.10000000000E+001
  0.95659000000E+005,  0.80110063624E+006,  0.16500000000E+002,  0.00000000000E+000,  0.10000000000E+001
  0.95689000000E+005,  0.80199970539E+006,  0.16500000000E+002,  0.00000000000E+000,  0.10000000000E+001
  0.95719000000E+005,  0.80288530283E+006,  0.16500000000E+002,  0.00000000000E+000,  0.10000000000E+001
  0.95749000000E+005,  0.80375690027E+006,  0.16500000000E+002,  0.00000000000E+000,  0.10000000000E+001
  0.95779000000E+005,  0.80461411402E+006,  0.16500000000E+002,  0.00000000000E+000,  0.10000000000E+001
  0.95809000000E+005,  0.80545668192E+006,  0.16500000000E+002,  0.00000000000E+000,  0.10000000000E+001
  0.95839000000E+005,  0.80628444390E+006,  0.16500000000E+002,  0.00000000000E+000,  0.10000000000E+001
  0.95869000000E+005,  0.80709732535E+006,  0.16500000000E+002,  0.00000000000E+000,  0.10000000000E+001
  0.95899000000E+005,  0.80789532341E+006,  0.16500000000E+002,  0.00000000000E+000,  0.10000000000E+001
  0.95929000000E+005,  0.80867849492E+006,  0.16500000000E+002,  0.00000000000E+000,  0.10000000000E+001
  0.95959000000E+005,  0.80944694637E+006,  0.16500000000E+002,  0.00000000000E+000,  0.10000000000E+001
  0.95989000000E+005,  0.81020082538E+006,  0.16500000000E+002,  0.00000000000E+000,  0.10000000000E+001
  0.96019000000E+005,  0.81094020172E+006,  0.16500000000E+002,  0.00000000000E+000,  0.10000000000E+001
  0.96049000000E+005,  0.81166497012E+006,  0.16500000000E+002,  0.00000000000E+000,  0.10000000000E+001
  0.96079000000E+005,  0.81237491608E+006,  0.16500000000E+002,  0.00000000000E+000,  0.10000000000E+001
  0.96109000000E+005,  0.81306986261E+006,  0.16500000000E+002,  0.00000000000E+000,  0.10000000000E+001
  0.96139000000E+005,  0.81374977775E+006,  0.16500000000E+002,  0.00000000000E+000,  0.10000000000E+001
  0.96169000000E+005,  0.81441480568E+006,  0.16500000000E+002,  0.00000000000E+000,  0.10000000000E+001
  0.96199000000E+005,  0.81506524296E+006,  0.16500000000E+002,  0.00000000000E+000,  0.10000000000E+001
  0.96229000000E+005,  0.81570149277E+006,  0.16500000000E+002,  0.00000000000E+000,  0.10000000000E+001
  0.96259000000E+005,  0.81632401949E+006,  0.16500000000E+002,  0.00000000000E+000,  0.10000000000E+001
  0.96289000000E+005,  0.81693331298E+006,  0.16500000000E+002,  0.00000000000E+000,  0.10000000000E+001
  0.96319000000E+005,  0.81752986425E+006,  0.16500000000E+002,  0.00000000000E+000,  0.10000000000E+001
  0.96349000000E+005,  0.81811415095E+006,  0.16500000000E+002,  0.00000000000E+000,  0.10000000000E+001
  0.96379000000E+005,  0.81868662946E+006,  0.16500000000E+002,  0.00000000000E+000,  0.10000000000E+001
  0.96409000000E+005,  0.81924773162E+006,  0.16500000000E+002,  0.00000000000E+000,  0.10000000000E+001
  0.96439000000E+005,  0.81979786418E+006,  0.16500000000E+002,  0.00000000000E+000,  0.10000000000E+001
  0.96469000000E+005,  0.82033740958E+006,  0.16500000000E+002,  0.00000000000E+000,  0.10000000000E+001
  0.96499000000E+005,  0.82086672763E+006,  0.16500000000E+002,  0.00000000000E+000,  0.10000000000E+001
  0.96529000000E+005,  0.82138615739E+006,  0.16500000000E+002,  0.00000000000E+000,  0.10000000000E+001
  0.96559000000E+005,  0.82189601892E+006,  0.16500000000E+002,  0.00000000000E+000,  0.10000000000E+001
  0.96589000000E+005,  0.82239661516E+006,  0.16500000000E+002,  0.00000000000E+000,  0.10000000000E+001
  0.96619000000E+005,  0.82288823351E+006,  0.16500000000E+002,  0.00000000000E+000,  0.10000000000E+001
  0.96649000000E+005,  0.82337114681E+006,  0.16500000000E+002,  0.00000000000E+000,  0.10000000000E+001
  0.96679000000E+005,  0.82384561537E+006,  0.16500000000E+002,  0.00000000000E+000,  0.10000000000E+001
  0.96709000000E+005,  0.82431188740E+006,  0.16500000000E+002,  0.00000000000E+000,  0.10000000000E+001
  0.96739000000E+005,  0.82477020011E+006,  0.16500000000E+002,  0.00000000000E+000,  0.10000000000E+001
  0.96769000000E+005,  0.82522078051E+006,  0.16500000000E+002,  0.00000000000E+000,  0.10000000000E+001
  0.96799000000E+005,  0.82566384614E+006,  0.16500000000E+002,  0.00000000000E+000,  0.10000000000E+001
  0.96829000000E+005,  0.82609960570E+006,  0.16500000000E+002,  0.00000000000E+000,  0.10000000000E+001
  0.96859000000E+005,  0.82652825956E+006,  0.16500000000E+002,  0.00000000000E+000,  0.10000000000E+001
  0.96889000000E+005,  0.82695000029E+006,  0.16500000000E+002,  0.00000000000E+000,  0.10000000000E+001
  0.96919000000E+005,  0.82736501307E+006,  0.16500000000E+002,  0.00000000000E+000,  0.10000000000E+001
  0.96949000000E+005,  0.82777347615E+006,  0.16500000000E+002,  0.00000000000E+000,  0.10000000000E+001
  0.96979000000E+005,  0.82817556117E+006,  0.16500000000E+002,  0.00000000000E+000,  0.10000000000E+001
  0.97009000000E+005,  0.82857143348E+006,  0.16500000000E+002,  0.00000000000E+000,  0.10000000000E+001
  0.97039000000E+005,  0.82896125257E+006,  0.16500000000E+002,  0.00000000000E+000,  0.10000000000E+001
  0.97069000000E+005,  0.82934517219E+006,  0.16500000000E+002,  0.00000000000E+000,  0.10000000000E+001
  0.97099000000E+005,  0.82972334073E+006,  0.16500000000E+002,  0.00000000000E+000,  0.10000000000E+001
  0.97129000000E+005,  0.83009590144E+006,  0.16500000000E+002,  0.00000000000E+000,  0.10000000000E+001
  0.97159000000E+005,  0.83046299265E+006,  0.16500000000E+002,  0.00000000000E+000,  0.10000000000E+001
  0.97189000000E+005,  0.83082474803E+006,  0.16500000000E+002,  0.00000000000E+000,  0.10000000000E+001
  0.97219000000E+005,  0.83118129674E+006,  0.16500000000E+002,  0.00000000000E+000,  0.10000000000E+001
  0.97249000000E+005,  0.83153276366E+006,  0.16500000000E+002,  0.00000000000E+000,  0.10000000000E+001
  0.97279000000E+005,  0.83187926960E+006,  0.16500000000E+002,  0.00000000000E+000,  0.10000000000E+001
  0.97309000000E+005,  0.83222093139E+006,  0.16500000000E+002,  0.00000000000E+000,  0.10000000000E+001
  0.97339000000E+005,  0.83255786214E+006,  0.16500000000E+002,  0.00000000000E+000,  0.10000000000E+001
  0.97369000000E+005,  0.83289017132E+006,  0.16500000000E+002,  0.00000000000E+000,  0.10000000000E+001
  0.97399000000E+005,  0.83321796494E+006,  0.16500000000E+002,  0.00000000000E+000,  0.10000000000E+001
  0.97429000000E+005,  0.83354134571E+006,  0.16500000000E+002,  0.00000000000E+000,  0.10000000000E+001
  0.97459000000E+005,  0.83386041313E+006,  0.16500000000E+002,  0.00000000000E+000,  0.10000000000E+001
  0.97489000000E+005,  0.83417526367E+006,  0.16500000000E+002,  0.00000000000E+000,  0.10000000000E+001
  0.97519000000E+005,  0.83448599078E+006,  0.16500000000E+002,  0.00000000000E+000,  0.10000000000E+001
  0.97549000000E+005,  0.83479268515E+006,  0.16500000000E+002,  0.00000000000E+000,  0.10000000000E+001
  0.97579000000E+005,  0.83509543474E+006,  0.16500000000E+002,  0.00000000000E+000,  0.10000000000E+001
  0.97609000000E+005,  0.83539432492E+006,  0.16500000000E+002,  0.00000000000E+000,  0.10000000000E+001
  0.97639000000E+005,  0.83568943849E+006,  0.16500000000E+002,  0.00000000000E+000,  0.10000000000E+001
  0.97669000000E+005,  0.83598085583E+006,  0.16500000000E+002,  0.00000000000E+000,  0.10000000000E+001
  0.97699000000E+005,  0.83626865505E+006,  0.16500000000E+002,  0.00000000000E+000,  0.10000000000E+001
  0.97729000000E+005,  0.83655291198E+006,  0.16500000000E+002,  0.00000000000E+000,  0.10000000000E+001
  0.97759000000E+005,  0.83683370031E+006,  0.16500000000E+002,  0.00000000000E+000,  0.10000000000E+001
  0.97789000000E+005,  0.83711109159E+006,  0.16500000000E+002,  0.00000000000E+000,  0.10000000000E+001
  0.97819000000E+005,  0.83738515546E+006,  0.16500000000E+002,  0.00000000000E+000,  0.10000000000E+001
  0.97849000000E+005,  0.83765595950E+006,  0.16500000000E+002,  0.00000000000E+000,  0.10000000000E+001
  0.97879000000E+005,  0.83792356943E+006,  0.16500000000E+002,  0.00000000000E+000,  0.10000000000E+001
  0.97909000000E+005,  0.83818804940E+006,  0.16500000000E+002,  0.00000000000E+000,  0.10000000000E+001
  0.97939000000E+005,  0.83844946157E+006,  0.16500000000E+002,  0.00000000000E+000,  0.10000000000E+001
  0.97969000000E+005,  0.83870786649E+006,  0.16500000000E+002,  0.00000000000E+000,  0.10000000000E+001
  0.97999000000E+005,  0.83896332308E+006,  0.16500000000E+002,  0.00000000000E+000,  0.10000000000E+001
  0.98029000000E+005,  0.83921588870E+006,  0.16500000000E+002,  0.00000000000E+000,  0.10000000000E+001
  0.98059000000E+005,  0.83946561918E+006,  0.16500000000E+002,  0.00000000000E+000,  0.10000000000E+001
  0.98089000000E+005,  0.83971256887E+006,  0.16500000000E+002,  0.00000000000E+000,  0.10000000000E+001
  0.98119000000E+005,  0.83995679070E+006,  0.16500000000E+002,  0.00000000000E+000,  0.10000000000E+001
  0.98149000000E+005,  0.84019833622E+006,  0.16500000000E+002,  0.00000000000E+000,  0.10000000000E+001
  0.98179000000E+005,  0.84043725562E+006,  0.16500000000E+002,  0.00000000000E+000,  0.10000000000E+001
  0.98209000000E+005,  0.84067359780E+006,  0.16500000000E+002,  0.00000000000E+000,  0.10000000000E+001
  0.98239000000E+005,  0.84090741041E+006,  0.16500000000E+002,  0.00000000000E+000,  0.10000000000E+001
  0.98269000000E+005,  0.84113873984E+006,  0.16500000000E+002,  0.00000000000E+000,  0.10000000000E+001
  0.98299000000E+005,  0.84136763131E+006,  0.16500000000E+002,  0.00000000000E+000,  0.10000000000E+001
  0.98329000000E+005,  0.84159412887E+006,  0.16500000000E+002,  0.00000000000E+000,  0.10000000000E+001
  0.98359000000E+005,  0.84181827543E+006,  0.16500000000E+002,  0.00000000000E+000,  0.10000000000E+001
  0.98389000000E+005,  0.84204011282E+006,  0.16500000000E+002,  0.00000000000E+000,  0.10000000000E+001
  0.98419000000E+005,  0.84225968180E+006,  0.16500000000E+002,  0.00000000000E+000,  0.10000000000E+001
  0.98449000000E+005,  0.84247702207E+006,  0.16500000000E+002,  0.00000000000E+000,  0.10000000000E+001
  0.98479000000E+005,  0.84269217234E+006,  0.16500000000E+002,  0.00000000000E+000,  0.10000000000E+001
  0.98509000000E+005,  0.84290517031E+006,  0.16500000000E+002,  0.00000000000E+000,  0.10000000000E+001
  0.98539000000E+005,  0.84311605275E+006,  0.16500000000E+002,  0.00000000000E+000,  0.10000000000E+001
  0.98569000000E+005,  0.84332485547E+006,  0.16500000000E+002,  0.00000000000E+000,  0.10000000000E+001
  0.98599000000E+005,  0.84353161338E+006,  0.16500000000E+002,  0.00000000000E+000,  0.10000000000E+001
  0.98629000000E+005,  0.84373636051E+006,  0.16500000000E+002,  0.00000000000E+000,  0.10000000000E+001
  0.98659000000E+005,  0.84393913001E+006,  0.16500000000E+002,  0.00000000000E+000,  0.10000000000E+001
  0.98689000000E+005,  0.84413995423E+006,  0.16500000000E+002,  0.00000000000E+000,  0.10000000000E+001
  0.98719000000E+005,  0.84433886465E+006,  0.16500000000E+002,  0.00000000000E+000,  0.10000000000E+001
  0.98749000000E+005,  0.84453589198E+006,  0.16500000000E+002,  0.00000000000E+000,  0.10000000000E+001
  0.98779000000E+005,  0.84473106617E+006,  0.16500000000E+002,  0.00000000000E+000,  0.10000000000E+001
  0.98809000000E+005,  0.84492441641E+006,  0.16500000000E+002,  0.00000000000E+000,  0.10000000000E+001
  0.98839000000E+005,  0.84511597117E+006,  0.16500000000E+002,  0.00000000000E+000,  0.10000000000E+001
  0.98869000000E+005,  0.84530575819E+006,  0.16500000000E+002,  0.00000000000E+000,  0.10000000000E+001
  0.98899000000E+005,  0.84549380456E+006,  0.16500000000E+002,  0.00000000000E+000,  0.10000000000E+001
  0.98929000000E+005,  0.84568013667E+006,  0.16500000000E+002,  0.00000000000E+000,  0.10000000000E+001
  0.98959000000E+005,  0.84586478028E+006,  0.16500000000E+002,  0.00000000000E+000,  0.10000000000E+001
  0.98989000000E+005,  0.84604776051E+006,  0.16500000000E+002,  0.00000000000E+000,  0.10000000000E+001
  0.99019000000E+005,  0.84622910188E+006,  0.16500000000E+002,  0.00000000000E+000,  0.10000000000E+001
  0.99049000000E+005,  0.84640882833E+006,  0.16500000000E+002,  0.00000000000E+000,  0.10000000000E+001
  0.99079000000E+005,  0.84658696319E+006,  0.16500000000E+002,  0.00000000000E+000,  0.10000000000E+001
  0.99109000000E+005,  0.84676352927E+006,  0.16500000000E+002,  0.00000000000E+000,  0.10000000000E+001
  0.99139000000E+005,  0.84693854882E+006,  0.16500000000E+002,  0.00000000000E+000,  0.10000000000E+001
  0.99169000000E+005,  0.84711204357E+006,  0.16500000000E+002,  0.00000000000E+000,  0.10000000000E+001
  0.99199000000E+005,  0.84728403475E+006,  0.16500000000E+002,  0.00000000000E+000,  0.10000000000E+001
  0.99229000000E+005,  0.84745454310E+006,  0.16500000000E+002,  0.00000000000E+000,  0.10000000000E+001
  0.99259000000E+005,  0.84762358886E+006,  0.16500000000E+002,  0.00000000000E+000,  0.10000000000E+001
  0.99289000000E+005,  0.84779119184E+006,  0.16500000000E+002,  0.00000000000E+000,  0.10000000000E+001
  0.99319000000E+005,  0.84795737137E+006,  0.16500000000E+002,  0.00000000000E+000,  0.10000000000E+001
  0.99349000000E+005,  0.84812214637E+006,  0.16500000000E+002,  0.00000000000E+000,  0.10000000000E+001
  0.99379000000E+005,  0.84828553532E+006,  0.16500000000E+002,  0.00000000000E+000,  0.10000000000E+001
  0.99409000000E+005,  0.84844755631E+006,  0.16500000000E+002,  0.00000000000E+000,  0.10000000000E+001
  0.99439000000E+005,  0.84860822702E+006,  0.16500000000E+002,  0.00000000000E+000,  0.10000000000E+001
  0.99469000000E+005,  0.84876756475E+006,  0.16500000000E+002,  0.00000000000E+000,  0.10000000000E+001
  0.99499000000E+005,  0.84892558642E+006,  0.16500000000E+002,  0.00000000000E+000,  0.10000000000E+001
  0.99529000000E+005,  0.84908230860E+006,  0.16500000000E+002,  0.00000000000E+000,  0.10000000000E+001
  0.99559000000E+005,  0.84923774751E+006,  0.16500000000E+002,  0.00000000000E+000,  0.10000000000E+001
  0.99589000000E+005,  0.84939191902E+006,  0.16500000000E+002,  0.00000000000E+000,  0.10000000000E+001
  0.99619000000E+005,  0.84954483867E+006,  0.16500000000E+002,  0.00000000000E+000,  0.10000000000E+001
  0.99649000000E+005,  0.84969652168E+006,  0.16500000000E+002,  0.00000000000E+000,  0.10000000000E+001
  0.99679000000E+005,  0.84984698297E+006,  0.16500000000E+002,  0.00000000000E+000,  0.10000000000E+001
  0.99709000000E+005,  0.84999623713E+006,  0.16500000000E+002,  0.00000000000E+000,  0.10000000000E+001
  0.99739000000E+005,  0.85014429849E+006,  0.16500000000E+002,  0.00000000000E+000,  0.10000000000E+001
  0.99769000000E+005,  0.85029118107E+006,  0.16500000000E+002,  0.00000000000E+000,  0.10000000000E+001
  0.99799000000E+005,  0.85043689863E+006,  0.16500000000E+002,  0.00000000000E+000,  0.10000000000E+001
  0.99829000000E+005,  0.85058146465E+006,  0.16500000000E+002,  0.00000000000E+000,  0.10000000000E+001
  0.99859000000E+005,  0.85072421661E+006,  0.16500000000E+002,  0.00000000000E+000,  0.10000000000E+001
  0.99889000000E+005,  0.85086354218E+006,  0.16500000000E+002,  0.00000000000E+000,  0.10000000000E+001
  0.99919000000E+005,  0.85099740041E+006,  0.16500000000E+002,  0.00000000000E+000,  0.10000000000E+001
  0.99949000000E+005,  0.85112404977E+006,  0.16500000000E+002,  0.00000000000E+000,  0.10000000000E+001
  0.99979000000E+005,  0.85124248207E+006,  0.16500000000E+002,  0.00000000000E+000,  0.10000000000E+001
  0.10000900000E+006,  0.85135248487E+006,  0.16500000000E+002,  0.00000000000E+000,  0.10000000000E+001
  0.10003900000E+006,  0.85145445998E+006,  0.16500000000E+002,  0.00000000000E+000,  0.10000000000E+001
  0.10006900000E+006,  0.85154918500E+006,  0.16500000000E+002,  0.00000000000E+000,  0.10000000000E+001
  0.10009900000E+006,  0.85163760568E+006,  0.16500000000E+002,  0.00000000000E+000,  0.10000000000E+001
  0.10012900000E+006,  0.85172069253E+006,  0.16500000000E+002,  0.00000000000E+000,  0.10000000000E+001
  0.10015900000E+006,  0.85179935647E+006,  0.16500000000E+002,  0.00000000000E+000,  0.10000000000E+001
  0.10018900000E+006,  0.85187440741E+006,  0.16500000000E+002,  0.00000000000E+000,  0.10000000000E+001
  0.10021900000E+006,  0.85194653835E+006,  0.16500000000E+002,  0.00000000000E+000,  0.10000000000E+001
  0.10024900000E+006,  0.85201633055E+006,  0.16500000000E+002,  0.00000000000E+000,  0.10000000000E+001
  0.10027900000E+006,  0.85208426590E+006,  0.16500000000E+002,  0.00000000000E+000,  0.10000000000E+001
  0.10030900000E+006,  0.85215074670E+006,  0.16500000000E+002,  0.00000000000E+000,  0.10000000000E+001
  0.10033900000E+006,  0.85221610121E+006,  0.16500000000E+002,  0.00000000000E+000,  0.10000000000E+001
  0.10036900000E+006,  0.85228059841E+006,  0.16500000000E+002,  0.00000000000E+000,  0.10000000000E+001
  0.10039900000E+006,  0.85234445934E+006,  0.16500000000E+002,  0.00000000000E+000,  0.10000000000E+001
  0.10042900000E+006,  0.85240786420E+006,  0.16500000000E+002,  0.00000000000E+000,  0.10000000000E+001
  0.10045900000E+006,  0.85247095858E+006,  0.16500000000E+002,  0.00000000000E+000,  0.10000000000E+001
  0.10048900000E+006,  0.85253385095E+006,  0.16500000000E+002,  0.00000000000E+000,  0.10000000000E+001
