"           TIME(S)","              PRES","              TEMP","             SAT_G","             SAT_L"
  0.32549000000E+005,  0.61073923890E+007,  0.16500000000E+002,  0.00000000000E+000,  0.10000000000E+001
  0.32559000000E+005,  0.52769597603E+007,  0.16500000000E+002,  0.00000000000E+000,  0.10000000000E+001
  0.32609000000E+005,  0.54086122749E+007,  0.16500000000E+002,  0.00000000000E+000,  0.10000000000E+001
  0.32669000000E+005,  0.57090869530E+007,  0.16500000000E+002,  0.00000000000E+000,  0.10000000000E+001
  0.32729000000E+005,  0.59284631237E+007,  0.16500000000E+002,  0.00000000000E+000,  0.10000000000E+001
  0.32789000000E+005,  0.61121170084E+007,  0.16500000000E+002,  0.00000000000E+000,  0.10000000000E+001
  0.32849000000E+005,  0.62620180742E+007,  0.16500000000E+002,  0.00000000000E+000,  0.10000000000E+001
  0.32909000000E+005,  0.63877705844E+007,  0.16500000000E+002,  0.00000000000E+000,  0.10000000000E+001
  0.32969000000E+005,  0.64958051405E+007,  0.16500000000E+002,  0.00000000000E+000,  0.10000000000E+001
  0.33029000000E+005,  0.65903888095E+007,  0.16500000000E+002,  0.00000000000E+000,  0.10000000000E+001
  0.33089000000E+005,  0.66744523508E+007,  0.16500000000E+002,  0.00000000000E+000,  0.10000000000E+001
  0.33149000000E+005,  0.67500801148E+007,  0.16500000000E+002,  0.00000000000E+000,  0.10000000000E+001
  0.33209000000E+005,  0.68188007845E+007,  0.16500000000E+002,  0.00000000000E+000,  0.10000000000E+001
  0.33269000000E+005,  0.68817657137E+007,  0.16500000000E+002,  0.00000000000E+000,  0.10000000000E+001
  0.33329000000E+005,  0.69398622389E+007,  0.16500000000E+002,  0.00000000000E+000,  0.10000000000E+001
  0.33389000000E+005,  0.69937879942E+007,  0.16500000000E+002,  0.00000000000E+000,  0.10000000000E+001
  0.33449000000E+005,  0.70441010952E+007,  0.16500000000E+002,  0.00000000000E+000,  0.10000000000E+001
  0.33509000000E+005,  0.70912548968E+007,  0.16500000000E+002,  0.00000000000E+000,  0.10000000000E+001
  0.33569000000E+005,  0.71356226235E+007,  0.16500000000E+002,  0.00000000000E+000,  0.10000000000E+001
  0.33629000000E+005,  0.71775151939E+007,  0.16500000000E+002,  0.00000000000E+000,  0.10000000000E+001
  0.33689000000E+005,  0.72171943490E+007,  0.16500000000E+002,  0.00000000000E+000,  0.10000000000E+001
  0.33749000000E+005,  0.72548825038E+007,  0.16500000000E+002,  0.00000000000E+000,  0.10000000000E+001
  0.33809000000E+005,  0.72907702387E+007,  0.16500000000E+002,  0.00000000000E+000,  0.10000000000E+001
  0.33869000000E+005,  0.73250220864E+007,  0.16500000000E+002,  0.00000000000E+000,  0.10000000000E+001
  0.33929000000E+005,  0.73577810552E+007,  0.16500000000E+002,  0.00000000000E+000,  0.10000000000E+001
  0.33989000000E+005,  0.73891722077E+007,  0.16500000000E+002,  0.00000000000E+000,  0.10000000000E+001
  0.34049000000E+005,  0.74193055227E+007,  0.16500000000E+002,  0.00000000000E+000,  0.10000000000E+001
  0.34109000000E+005,  0.74482782059E+007,  0.16500000000E+002,  0.00000000000E+000,  0.10000000000E+001
  0.34169000000E+005,  0.74761765736E+007,  0.16500000000E+002,  0.00000000000E+000,  0.10000000000E+001
  0.34229000000E+005,  0.75030776008E+007,  0.16500000000E+002,  0.00000000000E+000,  0.10000000000E+001
  0.34289000000E+005,  0.75290502028E+007,  0.16500000000E+002,  0.00000000000E+000,  0.10000000000E+001
  0.34349000000E+005,  0.75541563053E+007,  0.16500000000E+002,  0.00000000000E+000,  0.10000000000E+001
  0.34409000000E+005,  0.75784517421E+007,  0.16500000000E+002,  0.00000000000E+000,  0.10000000000E+001
  0.34469000000E+005,  0.76019870148E+007,  0.16500000000E+002,  0.00000000000E+000,  0.10000000000E+001
  0.34529000000E+005,  0.76248079373E+007,  0.16500000000E+002,  0.00000000000E+000,  0.10000000000E+001
  0.34589000000E+005,  0.76469561871E+007,  0.16500000000E+002,  0.00000000000E+000,  0.10000000000E+001
  0.34649000000E+005,  0.76684697797E+007,  0.16500000000E+002,  0.00000000000E+000,  0.10000000000E+001
  0.34709000000E+005,  0.76893834757E+007,  0.16500000000E+002,  0.00000000000E+000,  0.10000000000E+001
  0.34769000000E+005,  0.77097291353E+007,  0.16500000000E+002,  0.00000000000E+000,  0.10000000000E+001
  0.34829000000E+005,  0.77295360262E+007,  0.16500000000E+002,  0.00000000000E+000,  0.10000000000E+001
  0.34889000000E+005,  0.77488310927E+007,  0.16500000000E+002,  0.00000000000E+000,  0.10000000000E+001
  0.34949000000E+005,  0.77676391912E+007,  0.16500000000E+002,  0.00000000000E+000,  0.10000000000E+001
  0.35009000000E+005,  0.77859832976E+007,  0.16500000000E+002,  0.00000000000E+000,  0.10000000000E+001
  0.35069000000E+005,  0.78038846901E+007,  0.16500000000E+002,  0.00000000000E+000,  0.10000000000E+001
  0.35129000000E+005,  0.78213631109E+007,  0.16500000000E+002,  0.00000000000E+000,  0.10000000000E+001
  0.35189000000E+005,  0.78384369098E+007,  0.16500000000E+002,  0.00000000000E+000,  0.10000000000E+001
  0.35249000000E+005,  0.78551231718E+007,  0.16500000000E+002,  0.00000000000E+000,  0.10000000000E+001
  0.35309000000E+005,  0.78714378309E+007,  0.16500000000E+002,  0.00000000000E+000,  0.10000000000E+001
  0.35369000000E+005,  0.78873957716E+007,  0.16500000000E+002,  0.00000000000E+000,  0.10000000000E+001
  0.35429000000E+005,  0.79030109203E+007,  0.16500000000E+002,  0.00000000000E+000,  0.10000000000E+001
  0.35489000000E+005,  0.79182963266E+007,  0.16500000000E+002,  0.00000000000E+000,  0.10000000000E+001
  0.35549000000E+005,  0.79332642371E+007,  0.16500000000E+002,  0.00000000000E+000,  0.10000000000E+001
  0.35609000000E+005,  0.79479261612E+007,  0.16500000000E+002,  0.00000000000E+000,  0.10000000000E+001
  0.35669000000E+005,  0.79622929311E+007,  0.16500000000E+002,  0.00000000000E+000,  0.10000000000E+001
  0.35729000000E+005,  0.79763747556E+007,  0.16500000000E+002,  0.00000000000E+000,  0.10000000000E+001
  0.35789000000E+005,  0.79901812690E+007,  0.16500000000E+002,  0.00000000000E+000,  0.10000000000E+001
  0.35849000000E+005,  0.80037215752E+007,  0.16500000000E+002,  0.00000000000E+000,  0.10000000000E+001
  0.35909000000E+005,  0.80170042880E+007,  0.16500000000E+002,  0.00000000000E+000,  0.10000000000E+001
  0.35969000000E+005,  0.80300375677E+007,  0.16500000000E+002,  0.00000000000E+000,  0.10000000000E+001
  0.36029000000E+005,  0.80001665780E+007,  0.16500000000E+002,  0.00000000000E+000,  0.10000000000E+001
  0.36089000000E+005,  0.79598006848E+007,  0.16500000000E+002,  0.00000000000E+000,  0.10000000000E+001
  0.36149000000E+005,  0.79605586557E+007,  0.16500000000E+002,  0.00000000000E+000,  0.10000000000E+001
  0.36209000000E+005,  0.79660630665E+007,  0.16500000000E+002,  0.00000000000E+000,  0.10000000000E+001
  0.36269000000E+005,  0.79732392867E+007,  0.16500000000E+002,  0.00000000000E+000,  0.10000000000E+001
  0.36329000000E+005,  0.79812442867E+007,  0.16500000000E+002,  0.00000000000E+000,  0.10000000000E+001
  0.36389000000E+005,  0.79897091209E+007,  0.16500000000E+002,  0.00000000000E+000,  0.10000000000E+001
  0.36449000000E+005,  0.79984374632E+007,  0.16500000000E+002,  0.00000000000E+000,  0.10000000000E+001
  0.36509000000E+005,  0.80073128466E+007,  0.16500000000E+002,  0.00000000000E+000,  0.10000000000E+001
  0.36569000000E+005,  0.80162611477E+007,  0.16500000000E+002,  0.00000000000E+000,  0.10000000000E+001
  0.36629000000E+005,  0.80252328336E+007,  0.16500000000E+002,  0.00000000000E+000,  0.10000000000E+001
  0.36689000000E+005,  0.80341936185E+007,  0.16500000000E+002,  0.00000000000E+000,  0.10000000000E+001
  0.36749000000E+005,  0.80431191483E+007,  0.16500000000E+002,  0.00000000000E+000,  0.10000000000E+001
  0.36809000000E+005,  0.80519917938E+007,  0.16500000000E+002,  0.00000000000E+000,  0.10000000000E+001
  0.36869000000E+005,  0.80607986230E+007,  0.16500000000E+002,  0.00000000000E+000,  0.10000000000E+001
  0.36929000000E+005,  0.80695300710E+007,  0.16500000000E+002,  0.00000000000E+000,  0.10000000000E+001
  0.36989000000E+005,  0.80781790398E+007,  0.16500000000E+002,  0.00000000000E+000,  0.10000000000E+001
  0.37049000000E+005,  0.80867402713E+007,  0.16500000000E+002,  0.00000000000E+000,  0.10000000000E+001
  0.37109000000E+005,  0.80952099034E+007,  0.16500000000E+002,  0.00000000000E+000,  0.10000000000E+001
  0.37169000000E+005,  0.81035851457E+007,  0.16500000000E+002,  0.00000000000E+000,  0.10000000000E+001
  0.37229000000E+005,  0.81118640419E+007,  0.16500000000E+002,  0.00000000000E+000,  0.10000000000E+001
  0.37289000000E+005,  0.81200452898E+007,  0.16500000000E+002,  0.00000000000E+000,  0.10000000000E+001
  0.37349000000E+005,  0.81281281055E+007,  0.16500000000E+002,  0.00000000000E+000,  0.10000000000E+001
  0.37409000000E+005,  0.81361121185E+007,  0.16500000000E+002,  0.00000000000E+000,  0.10000000000E+001
  0.37469000000E+005,  0.81048742052E+007,  0.16500000000E+002,  0.00000000000E+000,  0.10000000000E+001
  0.37529000000E+005,  0.82327546227E+007,  0.16500000000E+002,  0.00000000000E+000,  0.10000000000E+001
  0.37589000000E+005,  0.82587089105E+007,  0.16500000000E+002,  0.00000000000E+000,  0.10000000000E+001
  0.37649000000E+005,  0.82751339838E+007,  0.16500000000E+002,  0.00000000000E+000,  0.10000000000E+001
  0.37709000000E+005,  0.82884883743E+007,  0.16500000000E+002,  0.00000000000E+000,  0.10000000000E+001
  0.37769000000E+005,  0.83002663737E+007,  0.16500000000E+002,  0.00000000000E+000,  0.10000000000E+001
  0.37829000000E+005,  0.83110591110E+007,  0.16500000000E+002,  0.00000000000E+000,  0.10000000000E+001
  0.37889000000E+005,  0.83211643635E+007,  0.16500000000E+002,  0.00000000000E+000,  0.10000000000E+001
  0.37949000000E+005,  0.83307536681E+007,  0.16500000000E+002,  0.00000000000E+000,  0.10000000000E+001
  0.38009000000E+005,  0.83399349535E+007,  0.16500000000E+002,  0.00000000000E+000,  0.10000000000E+001
  0.38069000000E+005,  0.83487805909E+007,  0.16500000000E+002,  0.00000000000E+000,  0.10000000000E+001
  0.38129000000E+005,  0.83573415307E+007,  0.16500000000E+002,  0.00000000000E+000,  0.10000000000E+001
  0.38189000000E+005,  0.83656550683E+007,  0.16500000000E+002,  0.00000000000E+000,  0.10000000000E+001
  0.38249000000E+005,  0.83737493982E+007,  0.16500000000E+002,  0.00000000000E+000,  0.10000000000E+001
  0.38309000000E+005,  0.83816464257E+007,  0.16500000000E+002,  0.00000000000E+000,  0.10000000000E+001
  0.38369000000E+005,  0.83893635756E+007,  0.16500000000E+002,  0.00000000000E+000,  0.10000000000E+001
  0.38429000000E+005,  0.83969149966E+007,  0.16500000000E+002,  0.00000000000E+000,  0.10000000000E+001
  0.38489000000E+005,  0.84043123871E+007,  0.16500000000E+002,  0.00000000000E+000,  0.10000000000E+001
  0.38549000000E+005,  0.84115655750E+007,  0.16500000000E+002,  0.00000000000E+000,  0.10000000000E+001
  0.38609000000E+005,  0.84186829357E+007,  0.16500000000E+002,  0.00000000000E+000,  0.10000000000E+001
  0.38669000000E+005,  0.84256716969E+007,  0.16500000000E+002,  0.00000000000E+000,  0.10000000000E+001
  0.38729000000E+005,  0.84325381675E+007,  0.16500000000E+002,  0.00000000000E+000,  0.10000000000E+001
  0.38789000000E+005,  0.84392879102E+007,  0.16500000000E+002,  0.00000000000E+000,  0.10000000000E+001
  0.38849000000E+005,  0.84459258747E+007,  0.16500000000E+002,  0.00000000000E+000,  0.10000000000E+001
  0.38909000000E+005,  0.84524565018E+007,  0.16500000000E+002,  0.00000000000E+000,  0.10000000000E+001
  0.38969000000E+005,  0.84588838051E+007,  0.16500000000E+002,  0.00000000000E+000,  0.10000000000E+001
  0.39029000000E+005,  0.84652114365E+007,  0.16500000000E+002,  0.00000000000E+000,  0.10000000000E+001
  0.39089000000E+005,  0.84714427389E+007,  0.16500000000E+002,  0.00000000000E+000,  0.10000000000E+001
  0.39149000000E+005,  0.84775807894E+007,  0.16500000000E+002,  0.00000000000E+000,  0.10000000000E+001
  0.39209000000E+005,  0.84836284343E+007,  0.16500000000E+002,  0.00000000000E+000,  0.10000000000E+001
  0.39269000000E+005,  0.84895883186E+007,  0.16500000000E+002,  0.00000000000E+000,  0.10000000000E+001
  0.39329000000E+005,  0.84954629104E+007,  0.16500000000E+002,  0.00000000000E+000,  0.10000000000E+001
  0.39389000000E+005,  0.85012545212E+007,  0.16500000000E+002,  0.00000000000E+000,  0.10000000000E+001
  0.39449000000E+005,  0.85069653235E+007,  0.16500000000E+002,  0.00000000000E+000,  0.10000000000E+001
  0.39509000000E+005,  0.85125973656E+007,  0.16500000000E+002,  0.00000000000E+000,  0.10000000000E+001
  0.39569000000E+005,  0.85181525842E+007,  0.16500000000E+002,  0.00000000000E+000,  0.10000000000E+001
  0.39629000000E+005,  0.85236328154E+007,  0.16500000000E+002,  0.00000000000E+000,  0.10000000000E+001
  0.39689000000E+005,  0.85290398040E+007,  0.16500000000E+002,  0.00000000000E+000,  0.10000000000E+001
  0.39749000000E+005,  0.85343752121E+007,  0.16500000000E+002,  0.00000000000E+000,  0.10000000000E+001
  0.39809000000E+005,  0.85396406257E+007,  0.16500000000E+002,  0.00000000000E+000,  0.10000000000E+001
  0.39869000000E+005,  0.85448375618E+007,  0.16500000000E+002,  0.00000000000E+000,  0.10000000000E+001
  0.39929000000E+005,  0.85499674732E+007,  0.16500000000E+002,  0.00000000000E+000,  0.10000000000E+001
  0.39989000000E+005,  0.85550317542E+007,  0.16500000000E+002,  0.00000000000E+000,  0.10000000000E+001
  0.40049000000E+005,  0.85600317445E+007,  0.16500000000E+002,  0.00000000000E+000,  0.10000000000E+001
  0.40109000000E+005,  0.85649687330E+007,  0.16500000000E+002,  0.00000000000E+000,  0.10000000000E+001
  0.40169000000E+005,  0.85698439619E+007,  0.16500000000E+002,  0.00000000000E+000,  0.10000000000E+001
  0.40229000000E+005,  0.85746586294E+007,  0.16500000000E+002,  0.00000000000E+000,  0.10000000000E+001
  0.40289000000E+005,  0.85794138925E+007,  0.16500000000E+002,  0.00000000000E+000,  0.10000000000E+001
  0.40349000000E+005,  0.85841108699E+007,  0.16500000000E+002,  0.00000000000E+000,  0.10000000000E+001
  0.40409000000E+005,  0.85887506441E+007,  0.16500000000E+002,  0.00000000000E+000,  0.10000000000E+001
  0.40469000000E+005,  0.85933342634E+007,  0.16500000000E+002,  0.00000000000E+000,  0.10000000000E+001
  0.40529000000E+005,  0.85978627442E+007,  0.16500000000E+002,  0.00000000000E+000,  0.10000000000E+001
  0.40589000000E+005,  0.86023370723E+007,  0.16500000000E+002,  0.00000000000E+000,  0.10000000000E+001
  0.40649000000E+005,  0.86067582050E+007,  0.16500000000E+002,  0.00000000000E+000,  0.10000000000E+001
  0.40709000000E+005,  0.86111270722E+007,  0.16500000000E+002,  0.00000000000E+000,  0.10000000000E+001
  0.40769000000E+005,  0.86154445777E+007,  0.16500000000E+002,  0.00000000000E+000,  0.10000000000E+001
  0.40829000000E+005,  0.86197116008E+007,  0.16500000000E+002,  0.00000000000E+000,  0.10000000000E+001
  0.40889000000E+005,  0.86239289974E+007,  0.16500000000E+002,  0.00000000000E+000,  0.10000000000E+001
  0.40949000000E+005,  0.86280976007E+007,  0.16500000000E+002,  0.00000000000E+000,  0.10000000000E+001
  0.41009000000E+005,  0.86322182225E+007,  0.16500000000E+002,  0.00000000000E+000,  0.10000000000E+001
  0.41069000000E+005,  0.86362916543E+007,  0.16500000000E+002,  0.00000000000E+000,  0.10000000000E+001
  0.41129000000E+005,  0.86403186676E+007,  0.16500000000E+002,  0.00000000000E+000,  0.10000000000E+001
  0.41189000000E+005,  0.86443000152E+007,  0.16500000000E+002,  0.00000000000E+000,  0.10000000000E+001
  0.41249000000E+005,  0.86482364318E+007,  0.16500000000E+002,  0.00000000000E+000,  0.10000000000E+001
  0.41309000000E+005,  0.86521286346E+007,  0.16500000000E+002,  0.00000000000E+000,  0.10000000000E+001
  0.41369000000E+005,  0.86559773240E+007,  0.16500000000E+002,  0.00000000000E+000,  0.10000000000E+001
  0.41429000000E+005,  0.86597831843E+007,  0.16500000000E+002,  0.00000000000E+000,  0.10000000000E+001
  0.41489000000E+005,  0.86635468843E+007,  0.16500000000E+002,  0.00000000000E+000,  0.10000000000E+001
  0.41549000000E+005,  0.86672690777E+007,  0.16500000000E+002,  0.00000000000E+000,  0.10000000000E+001
  0.41609000000E+005,  0.86709504036E+007,  0.16500000000E+002,  0.00000000000E+000,  0.10000000000E+001
  0.41669000000E+005,  0.86745914873E+007,  0.16500000000E+002,  0.00000000000E+000,  0.10000000000E+001
  0.41729000000E+005,  0.86781929404E+007,  0.16500000000E+002,  0.00000000000E+000,  0.10000000000E+001
  0.41789000000E+005,  0.86817553613E+007,  0.16500000000E+002,  0.00000000000E+000,  0.10000000000E+001
  0.41849000000E+005,  0.86852793360E+007,  0.16500000000E+002,  0.00000000000E+000,  0.10000000000E+001
  0.41909000000E+005,  0.86887654378E+007,  0.16500000000E+002,  0.00000000000E+000,  0.10000000000E+001
  0.41969000000E+005,  0.86922142282E+007,  0.16500000000E+002,  0.00000000000E+000,  0.10000000000E+001
  0.42029000000E+005,  0.86710203495E+007,  0.16500000000E+002,  0.00000000000E+000,  0.10000000000E+001
  0.42089000000E+005,  0.86438637421E+007,  0.16500000000E+002,  0.00000000000E+000,  0.10000000000E+001
  0.42149000000E+005,  0.86405271969E+007,  0.16500000000E+002,  0.00000000000E+000,  0.10000000000E+001
  0.42209000000E+005,  0.86400309954E+007,  0.16500000000E+002,  0.00000000000E+000,  0.10000000000E+001
  0.42269000000E+005,  0.86405866750E+007,  0.16500000000E+002,  0.00000000000E+000,  0.10000000000E+001
  0.42329000000E+005,  0.86417033833E+007,  0.16500000000E+002,  0.00000000000E+000,  0.10000000000E+001
  0.42389000000E+005,  0.86431667153E+007,  0.16500000000E+002,  0.00000000000E+000,  0.10000000000E+001
  0.42449000000E+005,  0.86448600975E+007,  0.16500000000E+002,  0.00000000000E+000,  0.10000000000E+001
  0.42509000000E+005,  0.86467157653E+007,  0.16500000000E+002,  0.00000000000E+000,  0.10000000000E+001
  0.42569000000E+005,  0.86486883697E+007,  0.16500000000E+002,  0.00000000000E+000,  0.10000000000E+001
  0.42629000000E+005,  0.86507476753E+007,  0.16500000000E+002,  0.00000000000E+000,  0.10000000000E+001
  0.42689000000E+005,  0.86528715824E+007,  0.16500000000E+002,  0.00000000000E+000,  0.10000000000E+001
  0.42749000000E+005,  0.86550439679E+007,  0.16500000000E+002,  0.00000000000E+000,  0.10000000000E+001
  0.42809000000E+005,  0.86572525817E+007,  0.16500000000E+002,  0.00000000000E+000,  0.10000000000E+001
  0.42869000000E+005,  0.86594879242E+007,  0.16500000000E+002,  0.00000000000E+000,  0.10000000000E+001
  0.42929000000E+005,  0.86617423974E+007,  0.16500000000E+002,  0.00000000000E+000,  0.10000000000E+001
  0.42989000000E+005,  0.86640104369E+007,  0.16500000000E+002,  0.00000000000E+000,  0.10000000000E+001
  0.43049000000E+005,  0.86662872198E+007,  0.16500000000E+002,  0.00000000000E+000,  0.10000000000E+001
  0.43109000000E+005,  0.86685688234E+007,  0.16500000000E+002,  0.00000000000E+000,  0.10000000000E+001
  0.43169000000E+005,  0.86708520306E+007,  0.16500000000E+002,  0.00000000000E+000,  0.10000000000E+001
  0.43229000000E+005,  0.86731341738E+007,  0.16500000000E+002,  0.00000000000E+000,  0.10000000000E+001
  0.43289000000E+005,  0.86754130239E+007,  0.16500000000E+002,  0.00000000000E+000,  0.10000000000E+001
  0.43349000000E+005,  0.86776867069E+007,  0.16500000000E+002,  0.00000000000E+000,  0.10000000000E+001
  0.43409000000E+005,  0.86799536393E+007,  0.16500000000E+002,  0.00000000000E+000,  0.10000000000E+001
  0.43469000000E+005,  0.86822124778E+007,  0.16500000000E+002,  0.00000000000E+000,  0.10000000000E+001
  0.43529000000E+005,  0.86844620802E+007,  0.16500000000E+002,  0.00000000000E+000,  0.10000000000E+001
  0.43589000000E+005,  0.86867014724E+007,  0.16500000000E+002,  0.00000000000E+000,  0.10000000000E+001
  0.43649000000E+005,  0.86889298229E+007,  0.16500000000E+002,  0.00000000000E+000,  0.10000000000E+001
  0.43709000000E+005,  0.86911464216E+007,  0.16500000000E+002,  0.00000000000E+000,  0.10000000000E+001
  0.43769000000E+005,  0.86933506622E+007,  0.16500000000E+002,  0.00000000000E+000,  0.10000000000E+001
