"           TIME(S)","              PRES","              TEMP","             SAT_G","             SAT_L"
  0.32470020000E+005,  0.18401493102E+006,  0.16500000000E+002,  0.00000000000E+000,  0.10000000000E+001
  0.32470120000E+005,  0.18928411657E+006,  0.16500000000E+002,  0.00000000000E+000,  0.10000000000E+001
  0.32470420000E+005,  0.20486733556E+006,  0.16500000000E+002,  0.00000000000E+000,  0.10000000000E+001
  0.32470720000E+005,  0.22039296658E+006,  0.16500000000E+002,  0.00000000000E+000,  0.10000000000E+001
  0.32471020000E+005,  0.23587053918E+006,  0.16500000000E+002,  0.00000000000E+000,  0.10000000000E+001
  0.32471320000E+005,  0.25129851511E+006,  0.16500000000E+002,  0.00000000000E+000,  0.10000000000E+001
  0.32471620000E+005,  0.26667625067E+006,  0.16500000000E+002,  0.00000000000E+000,  0.10000000000E+001
  0.32471920000E+005,  0.28200322370E+006,  0.16500000000E+002,  0.00000000000E+000,  0.10000000000E+001
  0.32472220000E+005,  0.29727970301E+006,  0.16500000000E+002,  0.00000000000E+000,  0.10000000000E+001
  0.32472520000E+005,  0.31250605283E+006,  0.16500000000E+002,  0.00000000000E+000,  0.10000000000E+001
  0.32472820000E+005,  0.32768264657E+006,  0.16500000000E+002,  0.00000000000E+000,  0.10000000000E+001
  0.32473120000E+005,  0.34280985762E+006,  0.16500000000E+002,  0.00000000000E+000,  0.10000000000E+001
  0.32473420000E+005,  0.35788805786E+006,  0.16500000000E+002,  0.00000000000E+000,  0.10000000000E+001
  0.32473720000E+005,  0.37291761746E+006,  0.16500000000E+002,  0.00000000000E+000,  0.10000000000E+001
  0.32474020000E+005,  0.38789890430E+006,  0.16500000000E+002,  0.00000000000E+000,  0.10000000000E+001
  0.32474320000E+005,  0.40283228387E+006,  0.16500000000E+002,  0.00000000000E+000,  0.10000000000E+001
  0.32474620000E+005,  0.41771811924E+006,  0.16500000000E+002,  0.00000000000E+000,  0.10000000000E+001
  0.32474920000E+005,  0.43255677093E+006,  0.16500000000E+002,  0.00000000000E+000,  0.10000000000E+001
  0.32475220000E+005,  0.44734859675E+006,  0.16500000000E+002,  0.00000000000E+000,  0.10000000000E+001
  0.32475520000E+005,  0.46209395190E+006,  0.16500000000E+002,  0.00000000000E+000,  0.10000000000E+001
  0.32475820000E+005,  0.47679318882E+006,  0.16500000000E+002,  0.00000000000E+000,  0.10000000000E+001
  0.32476120000E+005,  0.49144665710E+006,  0.16500000000E+002,  0.00000000000E+000,  0.10000000000E+001
  0.32476420000E+005,  0.50605466123E+006,  0.16500000000E+002,  0.00000000000E+000,  0.10000000000E+001
  0.32476720000E+005,  0.52061722725E+006,  0.16500000000E+002,  0.00000000000E+000,  0.10000000000E+001
  0.32477020000E+005,  0.53513469699E+006,  0.16500000000E+002,  0.00000000000E+000,  0.10000000000E+001
  0.32477320000E+005,  0.54960743259E+006,  0.16500000000E+002,  0.00000000000E+000,  0.10000000000E+001
  0.32477620000E+005,  0.56403433347E+006,  0.16500000000E+002,  0.00000000000E+000,  0.10000000000E+001
  0.32477920000E+005,  0.57841618532E+006,  0.16500000000E+002,  0.00000000000E+000,  0.10000000000E+001
  0.32478220000E+005,  0.59274944978E+006,  0.16500000000E+002,  0.00000000000E+000,  0.10000000000E+001
  0.32478520000E+005,  0.60703858189E+006,  0.16500000000E+002,  0.00000000000E+000,  0.10000000000E+001
  0.32478820000E+005,  0.62126215434E+006,  0.16500000000E+002,  0.00000000000E+000,  0.10000000000E+001
  0.32479120000E+005,  0.63543923399E+006,  0.16500000000E+002,  0.00000000000E+000,  0.10000000000E+001
  0.32479420000E+005,  0.64957238556E+006,  0.16500000000E+002,  0.00000000000E+000,  0.10000000000E+001
  0.32479720000E+005,  0.66367526328E+006,  0.16500000000E+002,  0.00000000000E+000,  0.10000000000E+001
  0.32480020000E+005,  0.67774689907E+006,  0.16500000000E+002,  0.00000000000E+000,  0.10000000000E+001
  0.32480320000E+005,  0.69177653672E+006,  0.16500000000E+002,  0.00000000000E+000,  0.10000000000E+001
  0.32480620000E+005,  0.70661889485E+006,  0.16500000000E+002,  0.00000000000E+000,  0.10000000000E+001
  0.32480920000E+005,  0.72490130629E+006,  0.16500000000E+002,  0.00000000000E+000,  0.10000000000E+001
  0.32481220000E+005,  0.74310585782E+006,  0.16500000000E+002,  0.00000000000E+000,  0.10000000000E+001
  0.32481520000E+005,  0.76125389697E+006,  0.16500000000E+002,  0.00000000000E+000,  0.10000000000E+001
  0.32481820000E+005,  0.90716952552E+006,  0.16500000000E+002,  0.00000000000E+000,  0.10000000000E+001
  0.32482120000E+005,  0.10719514991E+007,  0.16500000000E+002,  0.00000000000E+000,  0.10000000000E+001
  0.32482420000E+005,  0.12359905189E+007,  0.16500000000E+002,  0.00000000000E+000,  0.10000000000E+001
  0.32482720000E+005,  0.13994670228E+007,  0.16500000000E+002,  0.00000000000E+000,  0.10000000000E+001
  0.32483020000E+005,  0.15623844021E+007,  0.16500000000E+002,  0.00000000000E+000,  0.10000000000E+001
  0.32483320000E+005,  0.17247407765E+007,  0.16500000000E+002,  0.00000000000E+000,  0.10000000000E+001
  0.32483620000E+005,  0.18865381262E+007,  0.16500000000E+002,  0.00000000000E+000,  0.10000000000E+001
  0.32483920000E+005,  0.20477800127E+007,  0.16500000000E+002,  0.00000000000E+000,  0.10000000000E+001
  0.32484220000E+005,  0.22084704461E+007,  0.16500000000E+002,  0.00000000000E+000,  0.10000000000E+001
  0.32484520000E+005,  0.23686135402E+007,  0.16500000000E+002,  0.00000000000E+000,  0.10000000000E+001
  0.32484820000E+005,  0.25282134201E+007,  0.16500000000E+002,  0.00000000000E+000,  0.10000000000E+001
  0.32485120000E+005,  0.26872741962E+007,  0.16500000000E+002,  0.00000000000E+000,  0.10000000000E+001
  0.32485420000E+005,  0.28457999582E+007,  0.16500000000E+002,  0.00000000000E+000,  0.10000000000E+001
  0.32485720000E+005,  0.30037947710E+007,  0.16500000000E+002,  0.00000000000E+000,  0.10000000000E+001
  0.32486020000E+005,  0.31612626736E+007,  0.16500000000E+002,  0.00000000000E+000,  0.10000000000E+001
  0.32486320000E+005,  0.33182076779E+007,  0.16500000000E+002,  0.00000000000E+000,  0.10000000000E+001
  0.32486620000E+005,  0.34746337672E+007,  0.16500000000E+002,  0.00000000000E+000,  0.10000000000E+001
  0.32486920000E+005,  0.36305448962E+007,  0.16500000000E+002,  0.00000000000E+000,  0.10000000000E+001
  0.32487220000E+005,  0.37859449895E+007,  0.16500000000E+002,  0.00000000000E+000,  0.10000000000E+001
  0.32487520000E+005,  0.39408374912E+007,  0.16500000000E+002,  0.00000000000E+000,  0.10000000000E+001
  0.32487820000E+005,  0.40952068273E+007,  0.16500000000E+002,  0.00000000000E+000,  0.10000000000E+001
  0.32488120000E+005,  0.42490653743E+007,  0.16500000000E+002,  0.00000000000E+000,  0.10000000000E+001
  0.32488420000E+005,  0.44023828671E+007,  0.16500000000E+002,  0.00000000000E+000,  0.10000000000E+001
  0.32488720000E+005,  0.45551966866E+007,  0.16500000000E+002,  0.00000000000E+000,  0.10000000000E+001
  0.32489020000E+005,  0.47075160371E+007,  0.16500000000E+002,  0.00000000000E+000,  0.10000000000E+001
  0.32489320000E+005,  0.48593412228E+007,  0.16500000000E+002,  0.00000000000E+000,  0.10000000000E+001
  0.32489620000E+005,  0.50106675297E+007,  0.16500000000E+002,  0.00000000000E+000,  0.10000000000E+001
  0.32489920000E+005,  0.51615055463E+007,  0.16500000000E+002,  0.00000000000E+000,  0.10000000000E+001
  0.32490220000E+005,  0.53118605949E+007,  0.16500000000E+002,  0.00000000000E+000,  0.10000000000E+001
  0.32490520000E+005,  0.54617368216E+007,  0.16500000000E+002,  0.00000000000E+000,  0.10000000000E+001
  0.32490820000E+005,  0.56111381680E+007,  0.16500000000E+002,  0.00000000000E+000,  0.10000000000E+001
  0.32491120000E+005,  0.57600685065E+007,  0.16500000000E+002,  0.00000000000E+000,  0.10000000000E+001
  0.32491420000E+005,  0.59085316573E+007,  0.16500000000E+002,  0.00000000000E+000,  0.10000000000E+001
  0.32491720000E+005,  0.60565313909E+007,  0.16500000000E+002,  0.00000000000E+000,  0.10000000000E+001
  0.32492020000E+005,  0.62040714297E+007,  0.16500000000E+002,  0.00000000000E+000,  0.10000000000E+001
  0.32492320000E+005,  0.63511554480E+007,  0.16500000000E+002,  0.00000000000E+000,  0.10000000000E+001
  0.32492620000E+005,  0.64977870736E+007,  0.16500000000E+002,  0.00000000000E+000,  0.10000000000E+001
  0.32492920000E+005,  0.66439698882E+007,  0.16500000000E+002,  0.00000000000E+000,  0.10000000000E+001
  0.32493220000E+005,  0.67897074281E+007,  0.16500000000E+002,  0.00000000000E+000,  0.10000000000E+001
  0.32493520000E+005,  0.69350031851E+007,  0.16500000000E+002,  0.00000000000E+000,  0.10000000000E+001
  0.32493820000E+005,  0.70798606070E+007,  0.16500000000E+002,  0.00000000000E+000,  0.10000000000E+001
  0.32494120000E+005,  0.72242830987E+007,  0.16500000000E+002,  0.00000000000E+000,  0.10000000000E+001
  0.32494420000E+005,  0.73682740224E+007,  0.16500000000E+002,  0.00000000000E+000,  0.10000000000E+001
  0.32494720000E+005,  0.75118366986E+007,  0.16500000000E+002,  0.00000000000E+000,  0.10000000000E+001
  0.32495020000E+005,  0.76549744067E+007,  0.16500000000E+002,  0.00000000000E+000,  0.10000000000E+001
  0.32495320000E+005,  0.77976903860E+007,  0.16500000000E+002,  0.00000000000E+000,  0.10000000000E+001
  0.32495620000E+005,  0.79399878355E+007,  0.16500000000E+002,  0.00000000000E+000,  0.10000000000E+001
  0.32495920000E+005,  0.80818699156E+007,  0.16500000000E+002,  0.00000000000E+000,  0.10000000000E+001
  0.32496220000E+005,  0.82233379712E+007,  0.16500000000E+002,  0.00000000000E+000,  0.10000000000E+001
  0.32496520000E+005,  0.83643485512E+007,  0.16500000000E+002,  0.00000000000E+000,  0.10000000000E+001
  0.32496820000E+005,  0.85049469821E+007,  0.16500000000E+002,  0.00000000000E+000,  0.10000000000E+001
  0.32497120000E+005,  0.86451413754E+007,  0.16500000000E+002,  0.00000000000E+000,  0.10000000000E+001
  0.32497420000E+005,  0.87849346234E+007,  0.16500000000E+002,  0.00000000000E+000,  0.10000000000E+001
  0.32497720000E+005,  0.89243295815E+007,  0.16500000000E+002,  0.00000000000E+000,  0.10000000000E+001
  0.32498020000E+005,  0.90633291635E+007,  0.16500000000E+002,  0.00000000000E+000,  0.10000000000E+001
  0.32498320000E+005,  0.92019362734E+007,  0.16500000000E+002,  0.00000000000E+000,  0.10000000000E+001
  0.32498620000E+005,  0.93401537861E+007,  0.16500000000E+002,  0.00000000000E+000,  0.10000000000E+001
  0.32498920000E+005,  0.94779845431E+007,  0.16500000000E+002,  0.00000000000E+000,  0.10000000000E+001
  0.32499220000E+005,  0.96154313523E+007,  0.16500000000E+002,  0.00000000000E+000,  0.10000000000E+001
  0.32499520000E+005,  0.97524966817E+007,  0.16500000000E+002,  0.00000000000E+000,  0.10000000000E+001
  0.32499820000E+005,  0.98891832341E+007,  0.16500000000E+002,  0.00000000000E+000,  0.10000000000E+001
  0.32500000000E+005,  0.99710557168E+007,  0.16500000000E+002,  0.00000000000E+000,  0.10000000000E+001
