"           TIME(S)","              PRES","              TEMP","             SAT_G","             SAT_L"
  0.10000000000E+001,  0.63532496878E+006,  0.16500000000E+002,  0.00000000000E+000,  0.10000000000E+001
  0.60000000000E+001,  0.66735277749E+006,  0.16500000000E+002,  0.00000000000E+000,  0.10000000000E+001
  0.31000000000E+002,  0.68751869460E+006,  0.16500000000E+002,  0.00000000000E+000,  0.10000000000E+001
  0.15600000000E+003,  0.70219901264E+006,  0.16500000000E+002,  0.00000000000E+000,  0.10000000000E+001
  0.45600000000E+003,  0.71096978459E+006,  0.16500000000E+002,  0.00000000000E+000,  0.10000000000E+001
  0.75600000000E+003,  0.71512327086E+006,  0.16500000000E+002,  0.00000000000E+000,  0.10000000000E+001
  0.10560000000E+004,  0.71770983817E+006,  0.16500000000E+002,  0.00000000000E+000,  0.10000000000E+001
  0.13560000000E+004,  0.71953651642E+006,  0.16500000000E+002,  0.00000000000E+000,  0.10000000000E+001
  0.16560000000E+004,  0.72091140166E+006,  0.16500000000E+002,  0.00000000000E+000,  0.10000000000E+001
  0.19560000000E+004,  0.72198172774E+006,  0.16500000000E+002,  0.00000000000E+000,  0.10000000000E+001
  0.22560000000E+004,  0.72283019704E+006,  0.16500000000E+002,  0.00000000000E+000,  0.10000000000E+001
  0.25560000000E+004,  0.72350946791E+006,  0.16500000000E+002,  0.00000000000E+000,  0.10000000000E+001
  0.28560000000E+004,  0.72405629859E+006,  0.16500000000E+002,  0.00000000000E+000,  0.10000000000E+001
  0.31560000000E+004,  0.72449796279E+006,  0.16500000000E+002,  0.00000000000E+000,  0.10000000000E+001
  0.34560000000E+004,  0.72485545371E+006,  0.16500000000E+002,  0.00000000000E+000,  0.10000000000E+001
  0.37560000000E+004,  0.72514528678E+006,  0.16500000000E+002,  0.00000000000E+000,  0.10000000000E+001
  0.40560000000E+004,  0.72538060344E+006,  0.16500000000E+002,  0.00000000000E+000,  0.10000000000E+001
  0.43560000000E+004,  0.72557192824E+006,  0.16500000000E+002,  0.00000000000E+000,  0.10000000000E+001
  0.46560000000E+004,  0.72572773047E+006,  0.16500000000E+002,  0.00000000000E+000,  0.10000000000E+001
  0.49560000000E+004,  0.72585482117E+006,  0.16500000000E+002,  0.00000000000E+000,  0.10000000000E+001
  0.52560000000E+004,  0.72595869735E+006,  0.16500000000E+002,  0.00000000000E+000,  0.10000000000E+001
  0.55560000000E+004,  0.72604378907E+006,  0.16500000000E+002,  0.00000000000E+000,  0.10000000000E+001
  0.58560000000E+004,  0.72611368910E+006,  0.16500000000E+002,  0.00000000000E+000,  0.10000000000E+001
  0.61560000000E+004,  0.72619980418E+006,  0.16500000000E+002,  0.00000000000E+000,  0.10000000000E+001
  0.64560000000E+004,  0.72627567219E+006,  0.16500000000E+002,  0.00000000000E+000,  0.10000000000E+001
  0.67560000000E+004,  0.72631781222E+006,  0.16500000000E+002,  0.00000000000E+000,  0.10000000000E+001
  0.70560000000E+004,  0.72635207926E+006,  0.16500000000E+002,  0.00000000000E+000,  0.10000000000E+001
  0.73560000000E+004,  0.72638057740E+006,  0.16500000000E+002,  0.00000000000E+000,  0.10000000000E+001
  0.76560000000E+004,  0.72640451452E+006,  0.16500000000E+002,  0.00000000000E+000,  0.10000000000E+001
  0.79560000000E+004,  0.72642477971E+006,  0.16500000000E+002,  0.00000000000E+000,  0.10000000000E+001
  0.82560000000E+004,  0.72644207001E+006,  0.16500000000E+002,  0.00000000000E+000,  0.10000000000E+001
  0.85560000000E+004,  0.72645693348E+006,  0.16500000000E+002,  0.00000000000E+000,  0.10000000000E+001
  0.88560000000E+004,  0.72646981782E+006,  0.16500000000E+002,  0.00000000000E+000,  0.10000000000E+001
  0.91560000000E+004,  0.72648107807E+006,  0.16500000000E+002,  0.00000000000E+000,  0.10000000000E+001
  0.94560000000E+004,  0.72649100407E+006,  0.16500000000E+002,  0.00000000000E+000,  0.10000000000E+001
  0.97560000000E+004,  0.72649983132E+006,  0.16500000000E+002,  0.00000000000E+000,  0.10000000000E+001
  0.10056000000E+005,  0.72650775036E+006,  0.16500000000E+002,  0.00000000000E+000,  0.10000000000E+001
  0.10356000000E+005,  0.72651491289E+006,  0.16500000000E+002,  0.00000000000E+000,  0.10000000000E+001
  0.10656000000E+005,  0.72652145266E+006,  0.16500000000E+002,  0.00000000000E+000,  0.10000000000E+001
  0.10956000000E+005,  0.72652746492E+006,  0.16500000000E+002,  0.00000000000E+000,  0.10000000000E+001
  0.11256000000E+005,  0.72653303574E+006,  0.16500000000E+002,  0.00000000000E+000,  0.10000000000E+001
  0.11556000000E+005,  0.72653823245E+006,  0.16500000000E+002,  0.00000000000E+000,  0.10000000000E+001
  0.11856000000E+005,  0.72654311123E+006,  0.16500000000E+002,  0.00000000000E+000,  0.10000000000E+001
  0.12156000000E+005,  0.72641455395E+006,  0.16500000000E+002,  0.00000000000E+000,  0.10000000000E+001
  0.12456000000E+005,  0.72628693953E+006,  0.16500000000E+002,  0.00000000000E+000,  0.10000000000E+001
  0.12756000000E+005,  0.72627911597E+006,  0.16500000000E+002,  0.00000000000E+000,  0.10000000000E+001
  0.13056000000E+005,  0.72627726245E+006,  0.16500000000E+002,  0.00000000000E+000,  0.10000000000E+001
  0.13356000000E+005,  0.72627727211E+006,  0.16500000000E+002,  0.00000000000E+000,  0.10000000000E+001
  0.13656000000E+005,  0.72627817039E+006,  0.16500000000E+002,  0.00000000000E+000,  0.10000000000E+001
  0.13956000000E+005,  0.72627960900E+006,  0.16500000000E+002,  0.00000000000E+000,  0.10000000000E+001
  0.14256000000E+005,  0.72628139662E+006,  0.16500000000E+002,  0.00000000000E+000,  0.10000000000E+001
  0.14556000000E+005,  0.72628342623E+006,  0.16500000000E+002,  0.00000000000E+000,  0.10000000000E+001
  0.14856000000E+005,  0.72628562294E+006,  0.16500000000E+002,  0.00000000000E+000,  0.10000000000E+001
  0.15156000000E+005,  0.72628793462E+006,  0.16500000000E+002,  0.00000000000E+000,  0.10000000000E+001
  0.15456000000E+005,  0.72629032725E+006,  0.16500000000E+002,  0.00000000000E+000,  0.10000000000E+001
  0.15756000000E+005,  0.72629276436E+006,  0.16500000000E+002,  0.00000000000E+000,  0.10000000000E+001
  0.16056000000E+005,  0.72629523246E+006,  0.16500000000E+002,  0.00000000000E+000,  0.10000000000E+001
  0.16356000000E+005,  0.72629771641E+006,  0.16500000000E+002,  0.00000000000E+000,  0.10000000000E+001
  0.16656000000E+005,  0.72630020450E+006,  0.16500000000E+002,  0.00000000000E+000,  0.10000000000E+001
  0.16956000000E+005,  0.72630268711E+006,  0.16500000000E+002,  0.00000000000E+000,  0.10000000000E+001
  0.17256000000E+005,  0.72630516114E+006,  0.16500000000E+002,  0.00000000000E+000,  0.10000000000E+001
  0.17556000000E+005,  0.72630762113E+006,  0.16500000000E+002,  0.00000000000E+000,  0.10000000000E+001
  0.17856000000E+005,  0.72631006228E+006,  0.16500000000E+002,  0.00000000000E+000,  0.10000000000E+001
  0.18156000000E+005,  0.72644961642E+006,  0.16500000000E+002,  0.00000000000E+000,  0.10000000000E+001
  0.18456000000E+005,  0.72658765635E+006,  0.16500000000E+002,  0.00000000000E+000,  0.10000000000E+001
  0.18756000000E+005,  0.72660238097E+006,  0.16500000000E+002,  0.00000000000E+000,  0.10000000000E+001
  0.19056000000E+005,  0.72661080760E+006,  0.16500000000E+002,  0.00000000000E+000,  0.10000000000E+001
  0.19356000000E+005,  0.72661714205E+006,  0.16500000000E+002,  0.00000000000E+000,  0.10000000000E+001
  0.19656000000E+005,  0.72662237751E+006,  0.16500000000E+002,  0.00000000000E+000,  0.10000000000E+001
  0.19956000000E+005,  0.72662690288E+006,  0.16500000000E+002,  0.00000000000E+000,  0.10000000000E+001
  0.20256000000E+005,  0.72663091566E+006,  0.16500000000E+002,  0.00000000000E+000,  0.10000000000E+001
  0.20556000000E+005,  0.72663453493E+006,  0.16500000000E+002,  0.00000000000E+000,  0.10000000000E+001
  0.20856000000E+005,  0.72663784109E+006,  0.16500000000E+002,  0.00000000000E+000,  0.10000000000E+001
  0.21156000000E+005,  0.72664089358E+006,  0.16500000000E+002,  0.00000000000E+000,  0.10000000000E+001
  0.21456000000E+005,  0.72664373725E+006,  0.16500000000E+002,  0.00000000000E+000,  0.10000000000E+001
  0.21756000000E+005,  0.72664640837E+006,  0.16500000000E+002,  0.00000000000E+000,  0.10000000000E+001
  0.22056000000E+005,  0.72664893396E+006,  0.16500000000E+002,  0.00000000000E+000,  0.10000000000E+001
  0.22356000000E+005,  0.72665133793E+006,  0.16500000000E+002,  0.00000000000E+000,  0.10000000000E+001
  0.22656000000E+005,  0.72665363910E+006,  0.16500000000E+002,  0.00000000000E+000,  0.10000000000E+001
  0.22956000000E+005,  0.72665585159E+006,  0.16500000000E+002,  0.00000000000E+000,  0.10000000000E+001
  0.23256000000E+005,  0.72665798774E+006,  0.16500000000E+002,  0.00000000000E+000,  0.10000000000E+001
  0.23556000000E+005,  0.72666005745E+006,  0.16500000000E+002,  0.00000000000E+000,  0.10000000000E+001
  0.23856000000E+005,  0.72666206878E+006,  0.16500000000E+002,  0.00000000000E+000,  0.10000000000E+001
  0.24156000000E+005,  0.72670660440E+006,  0.16500000000E+002,  0.00000000000E+000,  0.10000000000E+001
  0.24456000000E+005,  0.72675064887E+006,  0.16500000000E+002,  0.00000000000E+000,  0.10000000000E+001
  0.24756000000E+005,  0.72675636847E+006,  0.16500000000E+002,  0.00000000000E+000,  0.10000000000E+001
  0.25056000000E+005,  0.72676010452E+006,  0.16500000000E+002,  0.00000000000E+000,  0.10000000000E+001
  0.25356000000E+005,  0.72676316256E+006,  0.16500000000E+002,  0.00000000000E+000,  0.10000000000E+001
  0.25656000000E+005,  0.72676585380E+006,  0.16500000000E+002,  0.00000000000E+000,  0.10000000000E+001
  0.25956000000E+005,  0.72676830232E+006,  0.16500000000E+002,  0.00000000000E+000,  0.10000000000E+001
  0.26256000000E+005,  0.72677057199E+006,  0.16500000000E+002,  0.00000000000E+000,  0.10000000000E+001
  0.26556000000E+005,  0.72677270174E+006,  0.16500000000E+002,  0.00000000000E+000,  0.10000000000E+001
  0.26856000000E+005,  0.72677471842E+006,  0.16500000000E+002,  0.00000000000E+000,  0.10000000000E+001
  0.27156000000E+005,  0.72677664138E+006,  0.16500000000E+002,  0.00000000000E+000,  0.10000000000E+001
  0.27456000000E+005,  0.72677848568E+006,  0.16500000000E+002,  0.00000000000E+000,  0.10000000000E+001
  0.27756000000E+005,  0.72678026361E+006,  0.16500000000E+002,  0.00000000000E+000,  0.10000000000E+001
  0.28056000000E+005,  0.72678198434E+006,  0.16500000000E+002,  0.00000000000E+000,  0.10000000000E+001
  0.28356000000E+005,  0.72678365529E+006,  0.16500000000E+002,  0.00000000000E+000,  0.10000000000E+001
  0.28656000000E+005,  0.72678528281E+006,  0.16500000000E+002,  0.00000000000E+000,  0.10000000000E+001
  0.28956000000E+005,  0.72678687233E+006,  0.16500000000E+002,  0.00000000000E+000,  0.10000000000E+001
  0.29256000000E+005,  0.72678842788E+006,  0.16500000000E+002,  0.00000000000E+000,  0.10000000000E+001
  0.29556000000E+005,  0.72678995288E+006,  0.16500000000E+002,  0.00000000000E+000,  0.10000000000E+001
  0.29856000000E+005,  0.72679145018E+006,  0.16500000000E+002,  0.00000000000E+000,  0.10000000000E+001
  0.30156000000E+005,  0.72684950644E+006,  0.16500000000E+002,  0.00000000000E+000,  0.10000000000E+001
  0.30456000000E+005,  0.72690694863E+006,  0.16500000000E+002,  0.00000000000E+000,  0.10000000000E+001
  0.30756000000E+005,  0.72691348360E+006,  0.16500000000E+002,  0.00000000000E+000,  0.10000000000E+001
  0.31056000000E+005,  0.72691741412E+006,  0.16500000000E+002,  0.00000000000E+000,  0.10000000000E+001
  0.31356000000E+005,  0.72692047089E+006,  0.16500000000E+002,  0.00000000000E+000,  0.10000000000E+001
  0.31656000000E+005,  0.72692306531E+006,  0.16500000000E+002,  0.00000000000E+000,  0.10000000000E+001
  0.31956000000E+005,  0.72692536026E+006,  0.16500000000E+002,  0.00000000000E+000,  0.10000000000E+001
  0.32256000000E+005,  0.72692743832E+006,  0.16500000000E+002,  0.00000000000E+000,  0.10000000000E+001
  0.32556000000E+005,  0.14508765227E+007,  0.16500000000E+002,  0.00000000000E+000,  0.10000000000E+001
  0.32856000000E+005,  0.66822114956E+007,  0.16500000000E+002,  0.00000000000E+000,  0.10000000000E+001
  0.33156000000E+005,  0.70398229957E+007,  0.16500000000E+002,  0.00000000000E+000,  0.10000000000E+001
  0.33456000000E+005,  0.72039512462E+007,  0.16500000000E+002,  0.00000000000E+000,  0.10000000000E+001
  0.33756000000E+005,  0.73079571992E+007,  0.16500000000E+002,  0.00000000000E+000,  0.10000000000E+001
  0.34056000000E+005,  0.73826608816E+007,  0.16500000000E+002,  0.00000000000E+000,  0.10000000000E+001
  0.34356000000E+005,  0.74395409068E+007,  0.16500000000E+002,  0.00000000000E+000,  0.10000000000E+001
  0.34656000000E+005,  0.74841365347E+007,  0.16500000000E+002,  0.00000000000E+000,  0.10000000000E+001
  0.34956000000E+005,  0.75196387082E+007,  0.16500000000E+002,  0.00000000000E+000,  0.10000000000E+001
  0.35256000000E+005,  0.75481357944E+007,  0.16500000000E+002,  0.00000000000E+000,  0.10000000000E+001
  0.35556000000E+005,  0.75711170873E+007,  0.16500000000E+002,  0.00000000000E+000,  0.10000000000E+001
  0.35856000000E+005,  0.75897034628E+007,  0.16500000000E+002,  0.00000000000E+000,  0.10000000000E+001
  0.36156000000E+005,  0.75400017928E+007,  0.16500000000E+002,  0.00000000000E+000,  0.10000000000E+001
  0.36456000000E+005,  0.74880453176E+007,  0.16500000000E+002,  0.00000000000E+000,  0.10000000000E+001
  0.36756000000E+005,  0.74921002747E+007,  0.16500000000E+002,  0.00000000000E+000,  0.10000000000E+001
  0.37056000000E+005,  0.74972403792E+007,  0.16500000000E+002,  0.00000000000E+000,  0.10000000000E+001
  0.37356000000E+005,  0.75018864349E+007,  0.16500000000E+002,  0.00000000000E+000,  0.10000000000E+001
  0.37656000000E+005,  0.75719273580E+007,  0.16500000000E+002,  0.00000000000E+000,  0.10000000000E+001
  0.37956000000E+005,  0.76373335895E+007,  0.16500000000E+002,  0.00000000000E+000,  0.10000000000E+001
  0.38256000000E+005,  0.76459292651E+007,  0.16500000000E+002,  0.00000000000E+000,  0.10000000000E+001
  0.38556000000E+005,  0.76511290653E+007,  0.16500000000E+002,  0.00000000000E+000,  0.10000000000E+001
  0.38856000000E+005,  0.76549652262E+007,  0.16500000000E+002,  0.00000000000E+000,  0.10000000000E+001
  0.39156000000E+005,  0.76579764096E+007,  0.16500000000E+002,  0.00000000000E+000,  0.10000000000E+001
  0.39456000000E+005,  0.76604069303E+007,  0.16500000000E+002,  0.00000000000E+000,  0.10000000000E+001
  0.39756000000E+005,  0.76623990759E+007,  0.16500000000E+002,  0.00000000000E+000,  0.10000000000E+001
  0.40056000000E+005,  0.76640483111E+007,  0.16500000000E+002,  0.00000000000E+000,  0.10000000000E+001
  0.40356000000E+005,  0.76654243879E+007,  0.16500000000E+002,  0.00000000000E+000,  0.10000000000E+001
  0.40656000000E+005,  0.76665807466E+007,  0.16500000000E+002,  0.00000000000E+000,  0.10000000000E+001
  0.40956000000E+005,  0.76675592738E+007,  0.16500000000E+002,  0.00000000000E+000,  0.10000000000E+001
  0.41256000000E+005,  0.76683933538E+007,  0.16500000000E+002,  0.00000000000E+000,  0.10000000000E+001
  0.41556000000E+005,  0.76691097290E+007,  0.16500000000E+002,  0.00000000000E+000,  0.10000000000E+001
  0.41856000000E+005,  0.76697299385E+007,  0.16500000000E+002,  0.00000000000E+000,  0.10000000000E+001
  0.42156000000E+005,  0.76327163501E+007,  0.16500000000E+002,  0.00000000000E+000,  0.10000000000E+001
  0.42456000000E+005,  0.75959825450E+007,  0.16500000000E+002,  0.00000000000E+000,  0.10000000000E+001
  0.42756000000E+005,  0.75930120875E+007,  0.16500000000E+002,  0.00000000000E+000,  0.10000000000E+001
  0.43056000000E+005,  0.75917324122E+007,  0.16500000000E+002,  0.00000000000E+000,  0.10000000000E+001
  0.43356000000E+005,  0.75909902009E+007,  0.16500000000E+002,  0.00000000000E+000,  0.10000000000E+001
  0.43656000000E+005,  0.75905147514E+007,  0.16500000000E+002,  0.00000000000E+000,  0.10000000000E+001
  0.43956000000E+005,  0.75902017329E+007,  0.16500000000E+002,  0.00000000000E+000,  0.10000000000E+001
  0.44256000000E+005,  0.75900008183E+007,  0.16500000000E+002,  0.00000000000E+000,  0.10000000000E+001
  0.44556000000E+005,  0.75898810538E+007,  0.16500000000E+002,  0.00000000000E+000,  0.10000000000E+001
  0.44856000000E+005,  0.75898223683E+007,  0.16500000000E+002,  0.00000000000E+000,  0.10000000000E+001
  0.45156000000E+005,  0.75898100963E+007,  0.16500000000E+002,  0.00000000000E+000,  0.10000000000E+001
  0.45456000000E+005,  0.75898327420E+007,  0.16500000000E+002,  0.00000000000E+000,  0.10000000000E+001
  0.45756000000E+005,  0.75898825721E+007,  0.16500000000E+002,  0.00000000000E+000,  0.10000000000E+001
  0.46056000000E+005,  0.75899531293E+007,  0.16500000000E+002,  0.00000000000E+000,  0.10000000000E+001
  0.46356000000E+005,  0.75900394102E+007,  0.16500000000E+002,  0.00000000000E+000,  0.10000000000E+001
  0.46656000000E+005,  0.75901375577E+007,  0.16500000000E+002,  0.00000000000E+000,  0.10000000000E+001
  0.46956000000E+005,  0.75902443646E+007,  0.16500000000E+002,  0.00000000000E+000,  0.10000000000E+001
  0.47256000000E+005,  0.75903572624E+007,  0.16500000000E+002,  0.00000000000E+000,  0.10000000000E+001
  0.47556000000E+005,  0.75904745677E+007,  0.16500000000E+002,  0.00000000000E+000,  0.10000000000E+001
  0.47856000000E+005,  0.16179888387E+007,  0.16500000000E+002,  0.00000000000E+000,  0.10000000000E+001
  0.48156000000E+005,  0.99645941635E+006,  0.16500000000E+002,  0.00000000000E+000,  0.10000000000E+001
  0.48456000000E+005,  0.85686177781E+006,  0.16500000000E+002,  0.00000000000E+000,  0.10000000000E+001
  0.48756000000E+005,  0.79702789044E+006,  0.16500000000E+002,  0.00000000000E+000,  0.10000000000E+001
  0.49056000000E+005,  0.76905230760E+006,  0.16500000000E+002,  0.00000000000E+000,  0.10000000000E+001
  0.49356000000E+005,  0.75560580132E+006,  0.16500000000E+002,  0.00000000000E+000,  0.10000000000E+001
  0.49656000000E+005,  0.74901618129E+006,  0.16500000000E+002,  0.00000000000E+000,  0.10000000000E+001
  0.49956000000E+005,  0.74569985648E+006,  0.16500000000E+002,  0.00000000000E+000,  0.10000000000E+001
  0.50256000000E+005,  0.74395552709E+006,  0.16500000000E+002,  0.00000000000E+000,  0.10000000000E+001
  0.50556000000E+005,  0.74297099275E+006,  0.16500000000E+002,  0.00000000000E+000,  0.10000000000E+001
  0.50856000000E+005,  0.74235745693E+006,  0.16500000000E+002,  0.00000000000E+000,  0.10000000000E+001
  0.51156000000E+005,  0.74192833585E+006,  0.16500000000E+002,  0.00000000000E+000,  0.10000000000E+001
  0.51456000000E+005,  0.74159375780E+006,  0.16500000000E+002,  0.00000000000E+000,  0.10000000000E+001
  0.51756000000E+005,  0.74131016506E+006,  0.16500000000E+002,  0.00000000000E+000,  0.10000000000E+001
  0.52056000000E+005,  0.74105621897E+006,  0.16500000000E+002,  0.00000000000E+000,  0.10000000000E+001
  0.52356000000E+005,  0.74082127133E+006,  0.16500000000E+002,  0.00000000000E+000,  0.10000000000E+001
  0.52656000000E+005,  0.74059984269E+006,  0.16500000000E+002,  0.00000000000E+000,  0.10000000000E+001
  0.52956000000E+005,  0.74038897325E+006,  0.16500000000E+002,  0.00000000000E+000,  0.10000000000E+001
  0.53256000000E+005,  0.74018694862E+006,  0.16500000000E+002,  0.00000000000E+000,  0.10000000000E+001
  0.53556000000E+005,  0.73999269219E+006,  0.16500000000E+002,  0.00000000000E+000,  0.10000000000E+001
  0.53856000000E+005,  0.73980543280E+006,  0.16500000000E+002,  0.00000000000E+000,  0.10000000000E+001
  0.54156000000E+005,  0.74003167874E+006,  0.16500000000E+002,  0.00000000000E+000,  0.10000000000E+001
  0.54456000000E+005,  0.74025762239E+006,  0.16500000000E+002,  0.00000000000E+000,  0.10000000000E+001
  0.54756000000E+005,  0.74011993112E+006,  0.16500000000E+002,  0.00000000000E+000,  0.10000000000E+001
  0.55056000000E+005,  0.73996745172E+006,  0.16500000000E+002,  0.00000000000E+000,  0.10000000000E+001
  0.55356000000E+005,  0.73981353358E+006,  0.16500000000E+002,  0.00000000000E+000,  0.10000000000E+001
  0.55656000000E+005,  0.73966152675E+006,  0.16500000000E+002,  0.00000000000E+000,  0.10000000000E+001
