"           TIME(S)","              PRES","              TEMP","             SAT_G","             SAT_L"
  0.10000000000E+001,  0.59490716697E+006,  0.16500000000E+002,  0.00000000000E+000,  0.10000000000E+001
  0.60000000000E+001,  0.59671244587E+006,  0.16500000000E+002,  0.00000000000E+000,  0.10000000000E+001
  0.31000000000E+002,  0.60325015207E+006,  0.16500000000E+002,  0.00000000000E+000,  0.10000000000E+001
  0.15600000000E+003,  0.62690455590E+006,  0.16500000000E+002,  0.00000000000E+000,  0.10000000000E+001
  0.45600000000E+003,  0.66246977527E+006,  0.16500000000E+002,  0.00000000000E+000,  0.10000000000E+001
  0.75600000000E+003,  0.68600540498E+006,  0.16500000000E+002,  0.00000000000E+000,  0.10000000000E+001
  0.10560000000E+004,  0.70224014383E+006,  0.16500000000E+002,  0.00000000000E+000,  0.10000000000E+001
  0.13560000000E+004,  0.71384245243E+006,  0.16500000000E+002,  0.00000000000E+000,  0.10000000000E+001
  0.16560000000E+004,  0.72239725539E+006,  0.16500000000E+002,  0.00000000000E+000,  0.10000000000E+001
  0.19560000000E+004,  0.72888299832E+006,  0.16500000000E+002,  0.00000000000E+000,  0.10000000000E+001
  0.22560000000E+004,  0.73392394064E+006,  0.16500000000E+002,  0.00000000000E+000,  0.10000000000E+001
  0.25560000000E+004,  0.73793020414E+006,  0.16500000000E+002,  0.00000000000E+000,  0.10000000000E+001
  0.28560000000E+004,  0.74117821732E+006,  0.16500000000E+002,  0.00000000000E+000,  0.10000000000E+001
  0.31560000000E+004,  0.74385937043E+006,  0.16500000000E+002,  0.00000000000E+000,  0.10000000000E+001
  0.34560000000E+004,  0.74610660492E+006,  0.16500000000E+002,  0.00000000000E+000,  0.10000000000E+001
  0.37560000000E+004,  0.74801736383E+006,  0.16500000000E+002,  0.00000000000E+000,  0.10000000000E+001
  0.40560000000E+004,  0.74966257441E+006,  0.16500000000E+002,  0.00000000000E+000,  0.10000000000E+001
  0.43560000000E+004,  0.75109474573E+006,  0.16500000000E+002,  0.00000000000E+000,  0.10000000000E+001
  0.46560000000E+004,  0.75235400516E+006,  0.16500000000E+002,  0.00000000000E+000,  0.10000000000E+001
  0.49560000000E+004,  0.75347056691E+006,  0.16500000000E+002,  0.00000000000E+000,  0.10000000000E+001
  0.52560000000E+004,  0.75446837370E+006,  0.16500000000E+002,  0.00000000000E+000,  0.10000000000E+001
  0.55560000000E+004,  0.75536631465E+006,  0.16500000000E+002,  0.00000000000E+000,  0.10000000000E+001
  0.58560000000E+004,  0.75617942179E+006,  0.16500000000E+002,  0.00000000000E+000,  0.10000000000E+001
  0.61560000000E+004,  0.75693184748E+006,  0.16500000000E+002,  0.00000000000E+000,  0.10000000000E+001
  0.64560000000E+004,  0.75762810316E+006,  0.16500000000E+002,  0.00000000000E+000,  0.10000000000E+001
  0.67560000000E+004,  0.75826313691E+006,  0.16500000000E+002,  0.00000000000E+000,  0.10000000000E+001
  0.70560000000E+004,  0.75884616204E+006,  0.16500000000E+002,  0.00000000000E+000,  0.10000000000E+001
  0.73560000000E+004,  0.75938496142E+006,  0.16500000000E+002,  0.00000000000E+000,  0.10000000000E+001
  0.76560000000E+004,  0.75988473898E+006,  0.16500000000E+002,  0.00000000000E+000,  0.10000000000E+001
  0.79560000000E+004,  0.76034993117E+006,  0.16500000000E+002,  0.00000000000E+000,  0.10000000000E+001
  0.82560000000E+004,  0.76078458259E+006,  0.16500000000E+002,  0.00000000000E+000,  0.10000000000E+001
  0.85560000000E+004,  0.76119193834E+006,  0.16500000000E+002,  0.00000000000E+000,  0.10000000000E+001
  0.88560000000E+004,  0.76157477832E+006,  0.16500000000E+002,  0.00000000000E+000,  0.10000000000E+001
  0.91560000000E+004,  0.76193531635E+006,  0.16500000000E+002,  0.00000000000E+000,  0.10000000000E+001
  0.94560000000E+004,  0.76227566003E+006,  0.16500000000E+002,  0.00000000000E+000,  0.10000000000E+001
  0.97560000000E+004,  0.76259754173E+006,  0.16500000000E+002,  0.00000000000E+000,  0.10000000000E+001
  0.10056000000E+005,  0.76290278366E+006,  0.16500000000E+002,  0.00000000000E+000,  0.10000000000E+001
  0.10356000000E+005,  0.76319251194E+006,  0.16500000000E+002,  0.00000000000E+000,  0.10000000000E+001
  0.10656000000E+005,  0.76346823915E+006,  0.16500000000E+002,  0.00000000000E+000,  0.10000000000E+001
  0.10956000000E+005,  0.76373084941E+006,  0.16500000000E+002,  0.00000000000E+000,  0.10000000000E+001
  0.11256000000E+005,  0.76398138160E+006,  0.16500000000E+002,  0.00000000000E+000,  0.10000000000E+001
  0.11556000000E+005,  0.76422075685E+006,  0.16500000000E+002,  0.00000000000E+000,  0.10000000000E+001
  0.11856000000E+005,  0.76444974786E+006,  0.16500000000E+002,  0.00000000000E+000,  0.10000000000E+001
  0.12156000000E+005,  0.76461314811E+006,  0.16500000000E+002,  0.00000000000E+000,  0.10000000000E+001
  0.12456000000E+005,  0.76473695743E+006,  0.16500000000E+002,  0.00000000000E+000,  0.10000000000E+001
  0.12756000000E+005,  0.76488325035E+006,  0.16500000000E+002,  0.00000000000E+000,  0.10000000000E+001
  0.13056000000E+005,  0.76503935255E+006,  0.16500000000E+002,  0.00000000000E+000,  0.10000000000E+001
  0.13356000000E+005,  0.76519912990E+006,  0.16500000000E+002,  0.00000000000E+000,  0.10000000000E+001
  0.13656000000E+005,  0.76535919666E+006,  0.16500000000E+002,  0.00000000000E+000,  0.10000000000E+001
  0.13956000000E+005,  0.76551754551E+006,  0.16500000000E+002,  0.00000000000E+000,  0.10000000000E+001
  0.14256000000E+005,  0.76567317373E+006,  0.16500000000E+002,  0.00000000000E+000,  0.10000000000E+001
  0.14556000000E+005,  0.76582544013E+006,  0.16500000000E+002,  0.00000000000E+000,  0.10000000000E+001
  0.14856000000E+005,  0.76597397861E+006,  0.16500000000E+002,  0.00000000000E+000,  0.10000000000E+001
  0.15156000000E+005,  0.76611865670E+006,  0.16500000000E+002,  0.00000000000E+000,  0.10000000000E+001
  0.15456000000E+005,  0.76625939673E+006,  0.16500000000E+002,  0.00000000000E+000,  0.10000000000E+001
  0.15756000000E+005,  0.76639632940E+006,  0.16500000000E+002,  0.00000000000E+000,  0.10000000000E+001
  0.16056000000E+005,  0.76652946757E+006,  0.16500000000E+002,  0.00000000000E+000,  0.10000000000E+001
  0.16356000000E+005,  0.76665890932E+006,  0.16500000000E+002,  0.00000000000E+000,  0.10000000000E+001
  0.16656000000E+005,  0.76678474874E+006,  0.16500000000E+002,  0.00000000000E+000,  0.10000000000E+001
  0.16956000000E+005,  0.76690718856E+006,  0.16500000000E+002,  0.00000000000E+000,  0.10000000000E+001
  0.17256000000E+005,  0.76702629570E+006,  0.16500000000E+002,  0.00000000000E+000,  0.10000000000E+001
  0.17556000000E+005,  0.76714219811E+006,  0.16500000000E+002,  0.00000000000E+000,  0.10000000000E+001
  0.17856000000E+005,  0.76725501992E+006,  0.16500000000E+002,  0.00000000000E+000,  0.10000000000E+001
  0.18156000000E+005,  0.76742247369E+006,  0.16500000000E+002,  0.00000000000E+000,  0.10000000000E+001
  0.18456000000E+005,  0.76761863256E+006,  0.16500000000E+002,  0.00000000000E+000,  0.10000000000E+001
  0.18756000000E+005,  0.76778020518E+006,  0.16500000000E+002,  0.00000000000E+000,  0.10000000000E+001
  0.19056000000E+005,  0.76792093985E+006,  0.16500000000E+002,  0.00000000000E+000,  0.10000000000E+001
  0.19356000000E+005,  0.76804774734E+006,  0.16500000000E+002,  0.00000000000E+000,  0.10000000000E+001
  0.19656000000E+005,  0.76816472889E+006,  0.16500000000E+002,  0.00000000000E+000,  0.10000000000E+001
  0.19956000000E+005,  0.76827437362E+006,  0.16500000000E+002,  0.00000000000E+000,  0.10000000000E+001
  0.20256000000E+005,  0.76837832618E+006,  0.16500000000E+002,  0.00000000000E+000,  0.10000000000E+001
  0.20556000000E+005,  0.76847764641E+006,  0.16500000000E+002,  0.00000000000E+000,  0.10000000000E+001
  0.20856000000E+005,  0.76857307706E+006,  0.16500000000E+002,  0.00000000000E+000,  0.10000000000E+001
  0.21156000000E+005,  0.76866517056E+006,  0.16500000000E+002,  0.00000000000E+000,  0.10000000000E+001
  0.21456000000E+005,  0.76875433663E+006,  0.16500000000E+002,  0.00000000000E+000,  0.10000000000E+001
  0.21756000000E+005,  0.76884084848E+006,  0.16500000000E+002,  0.00000000000E+000,  0.10000000000E+001
  0.22056000000E+005,  0.76892494889E+006,  0.16500000000E+002,  0.00000000000E+000,  0.10000000000E+001
  0.22356000000E+005,  0.76900680514E+006,  0.16500000000E+002,  0.00000000000E+000,  0.10000000000E+001
  0.22656000000E+005,  0.76908661093E+006,  0.16500000000E+002,  0.00000000000E+000,  0.10000000000E+001
  0.22956000000E+005,  0.76916447696E+006,  0.16500000000E+002,  0.00000000000E+000,  0.10000000000E+001
  0.23256000000E+005,  0.76924050885E+006,  0.16500000000E+002,  0.00000000000E+000,  0.10000000000E+001
  0.23556000000E+005,  0.76931480454E+006,  0.16500000000E+002,  0.00000000000E+000,  0.10000000000E+001
  0.23856000000E+005,  0.76938745003E+006,  0.16500000000E+002,  0.00000000000E+000,  0.10000000000E+001
  0.24156000000E+005,  0.76947641412E+006,  0.16500000000E+002,  0.00000000000E+000,  0.10000000000E+001
  0.24456000000E+005,  0.76957367174E+006,  0.16500000000E+002,  0.00000000000E+000,  0.10000000000E+001
  0.24756000000E+005,  0.76965959784E+006,  0.16500000000E+002,  0.00000000000E+000,  0.10000000000E+001
  0.25056000000E+005,  0.76973847486E+006,  0.16500000000E+002,  0.00000000000E+000,  0.10000000000E+001
  0.25356000000E+005,  0.76981248484E+006,  0.16500000000E+002,  0.00000000000E+000,  0.10000000000E+001
  0.25656000000E+005,  0.76988291298E+006,  0.16500000000E+002,  0.00000000000E+000,  0.10000000000E+001
  0.25956000000E+005,  0.76995055243E+006,  0.16500000000E+002,  0.00000000000E+000,  0.10000000000E+001
  0.26256000000E+005,  0.77001592970E+006,  0.16500000000E+002,  0.00000000000E+000,  0.10000000000E+001
  0.26556000000E+005,  0.77007939396E+006,  0.16500000000E+002,  0.00000000000E+000,  0.10000000000E+001
  0.26856000000E+005,  0.77014118554E+006,  0.16500000000E+002,  0.00000000000E+000,  0.10000000000E+001
  0.27156000000E+005,  0.77020148841E+006,  0.16500000000E+002,  0.00000000000E+000,  0.10000000000E+001
  0.27456000000E+005,  0.77026043218E+006,  0.16500000000E+002,  0.00000000000E+000,  0.10000000000E+001
  0.27756000000E+005,  0.77031812222E+006,  0.16500000000E+002,  0.00000000000E+000,  0.10000000000E+001
  0.28056000000E+005,  0.77037464470E+006,  0.16500000000E+002,  0.00000000000E+000,  0.10000000000E+001
  0.28356000000E+005,  0.77043006537E+006,  0.16500000000E+002,  0.00000000000E+000,  0.10000000000E+001
  0.28656000000E+005,  0.77048443878E+006,  0.16500000000E+002,  0.00000000000E+000,  0.10000000000E+001
  0.28956000000E+005,  0.77053782053E+006,  0.16500000000E+002,  0.00000000000E+000,  0.10000000000E+001
  0.29256000000E+005,  0.77059025006E+006,  0.16500000000E+002,  0.00000000000E+000,  0.10000000000E+001
  0.29556000000E+005,  0.77064175667E+006,  0.16500000000E+002,  0.00000000000E+000,  0.10000000000E+001
  0.29856000000E+005,  0.77069239697E+006,  0.16500000000E+002,  0.00000000000E+000,  0.10000000000E+001
  0.30156000000E+005,  0.77076596248E+006,  0.16500000000E+002,  0.00000000000E+000,  0.10000000000E+001
  0.30456000000E+005,  0.77085172300E+006,  0.16500000000E+002,  0.00000000000E+000,  0.10000000000E+001
  0.30756000000E+005,  0.77092355300E+006,  0.16500000000E+002,  0.00000000000E+000,  0.10000000000E+001
  0.31056000000E+005,  0.77098708634E+006,  0.16500000000E+002,  0.00000000000E+000,  0.10000000000E+001
  0.31356000000E+005,  0.77104517817E+006,  0.16500000000E+002,  0.00000000000E+000,  0.10000000000E+001
  0.31656000000E+005,  0.77109949169E+006,  0.16500000000E+002,  0.00000000000E+000,  0.10000000000E+001
  0.31956000000E+005,  0.77115104520E+006,  0.16500000000E+002,  0.00000000000E+000,  0.10000000000E+001
  0.32256000000E+005,  0.77120048983E+006,  0.16500000000E+002,  0.00000000000E+000,  0.10000000000E+001
  0.32556000000E+005,  0.10761845045E+007,  0.16500000000E+002,  0.00000000000E+000,  0.10000000000E+001
  0.32856000000E+005,  0.34509363131E+007,  0.16500000000E+002,  0.00000000000E+000,  0.10000000000E+001
  0.33156000000E+005,  0.49295581174E+007,  0.16500000000E+002,  0.00000000000E+000,  0.10000000000E+001
  0.33456000000E+005,  0.59212168004E+007,  0.16500000000E+002,  0.00000000000E+000,  0.10000000000E+001
  0.33756000000E+005,  0.66143646539E+007,  0.16500000000E+002,  0.00000000000E+000,  0.10000000000E+001
  0.34056000000E+005,  0.71159334484E+007,  0.16500000000E+002,  0.00000000000E+000,  0.10000000000E+001
  0.34356000000E+005,  0.74899930900E+007,  0.16500000000E+002,  0.00000000000E+000,  0.10000000000E+001
  0.34656000000E+005,  0.77764897908E+007,  0.16500000000E+002,  0.00000000000E+000,  0.10000000000E+001
  0.34956000000E+005,  0.80011745913E+007,  0.16500000000E+002,  0.00000000000E+000,  0.10000000000E+001
  0.35256000000E+005,  0.81811314017E+007,  0.16500000000E+002,  0.00000000000E+000,  0.10000000000E+001
  0.35556000000E+005,  0.83279903677E+007,  0.16500000000E+002,  0.00000000000E+000,  0.10000000000E+001
  0.35856000000E+005,  0.84498506728E+007,  0.16500000000E+002,  0.00000000000E+000,  0.10000000000E+001
  0.36156000000E+005,  0.85255007356E+007,  0.16500000000E+002,  0.00000000000E+000,  0.10000000000E+001
  0.36456000000E+005,  0.85713243691E+007,  0.16500000000E+002,  0.00000000000E+000,  0.10000000000E+001
  0.36756000000E+005,  0.86200737793E+007,  0.16500000000E+002,  0.00000000000E+000,  0.10000000000E+001
  0.37056000000E+005,  0.86676997855E+007,  0.16500000000E+002,  0.00000000000E+000,  0.10000000000E+001
  0.37356000000E+005,  0.87127613900E+007,  0.16500000000E+002,  0.00000000000E+000,  0.10000000000E+001
  0.37656000000E+005,  0.87822544271E+007,  0.16500000000E+002,  0.00000000000E+000,  0.10000000000E+001
  0.37956000000E+005,  0.88622730142E+007,  0.16500000000E+002,  0.00000000000E+000,  0.10000000000E+001
  0.38256000000E+005,  0.89246236694E+007,  0.16500000000E+002,  0.00000000000E+000,  0.10000000000E+001
  0.38556000000E+005,  0.89757740505E+007,  0.16500000000E+002,  0.00000000000E+000,  0.10000000000E+001
  0.38856000000E+005,  0.90191192772E+007,  0.16500000000E+002,  0.00000000000E+000,  0.10000000000E+001
  0.39156000000E+005,  0.90567326003E+007,  0.16500000000E+002,  0.00000000000E+000,  0.10000000000E+001
  0.39456000000E+005,  0.90899579530E+007,  0.16500000000E+002,  0.00000000000E+000,  0.10000000000E+001
  0.39756000000E+005,  0.91197076081E+007,  0.16500000000E+002,  0.00000000000E+000,  0.10000000000E+001
  0.40056000000E+005,  0.91466269277E+007,  0.16500000000E+002,  0.00000000000E+000,  0.10000000000E+001
  0.40356000000E+005,  0.91711896967E+007,  0.16500000000E+002,  0.00000000000E+000,  0.10000000000E+001
  0.40656000000E+005,  0.91937530559E+007,  0.16500000000E+002,  0.00000000000E+000,  0.10000000000E+001
  0.40956000000E+005,  0.92145951368E+007,  0.16500000000E+002,  0.00000000000E+000,  0.10000000000E+001
  0.41256000000E+005,  0.92339369900E+007,  0.16500000000E+002,  0.00000000000E+000,  0.10000000000E+001
  0.41556000000E+005,  0.92519579792E+007,  0.16500000000E+002,  0.00000000000E+000,  0.10000000000E+001
  0.41856000000E+005,  0.92688068412E+007,  0.16500000000E+002,  0.00000000000E+000,  0.10000000000E+001
  0.42156000000E+005,  0.92690975679E+007,  0.16500000000E+002,  0.00000000000E+000,  0.10000000000E+001
  0.42456000000E+005,  0.92599588786E+007,  0.16500000000E+002,  0.00000000000E+000,  0.10000000000E+001
  0.42756000000E+005,  0.92585459817E+007,  0.16500000000E+002,  0.00000000000E+000,  0.10000000000E+001
  0.43056000000E+005,  0.92612704913E+007,  0.16500000000E+002,  0.00000000000E+000,  0.10000000000E+001
  0.43356000000E+005,  0.92663553444E+007,  0.16500000000E+002,  0.00000000000E+000,  0.10000000000E+001
  0.43656000000E+005,  0.92727884711E+007,  0.16500000000E+002,  0.00000000000E+000,  0.10000000000E+001
  0.43956000000E+005,  0.92799701446E+007,  0.16500000000E+002,  0.00000000000E+000,  0.10000000000E+001
  0.44256000000E+005,  0.92875352189E+007,  0.16500000000E+002,  0.00000000000E+000,  0.10000000000E+001
  0.44556000000E+005,  0.92952572182E+007,  0.16500000000E+002,  0.00000000000E+000,  0.10000000000E+001
  0.44856000000E+005,  0.93029940698E+007,  0.16500000000E+002,  0.00000000000E+000,  0.10000000000E+001
  0.45156000000E+005,  0.93106563409E+007,  0.16500000000E+002,  0.00000000000E+000,  0.10000000000E+001
  0.45456000000E+005,  0.93181880994E+007,  0.16500000000E+002,  0.00000000000E+000,  0.10000000000E+001
  0.45756000000E+005,  0.93255550761E+007,  0.16500000000E+002,  0.00000000000E+000,  0.10000000000E+001
  0.46056000000E+005,  0.93327371968E+007,  0.16500000000E+002,  0.00000000000E+000,  0.10000000000E+001
  0.46356000000E+005,  0.93397237555E+007,  0.16500000000E+002,  0.00000000000E+000,  0.10000000000E+001
  0.46656000000E+005,  0.93465102179E+007,  0.16500000000E+002,  0.00000000000E+000,  0.10000000000E+001
  0.46956000000E+005,  0.93530963862E+007,  0.16500000000E+002,  0.00000000000E+000,  0.10000000000E+001
  0.47256000000E+005,  0.93594846132E+007,  0.16500000000E+002,  0.00000000000E+000,  0.10000000000E+001
  0.47556000000E+005,  0.93656792258E+007,  0.16500000000E+002,  0.00000000000E+000,  0.10000000000E+001
  0.47856000000E+005,  0.70631098345E+007,  0.16500000000E+002,  0.00000000000E+000,  0.10000000000E+001
  0.48156000000E+005,  0.55203026965E+007,  0.16500000000E+002,  0.00000000000E+000,  0.10000000000E+001
  0.48456000000E+005,  0.44840584990E+007,  0.16500000000E+002,  0.00000000000E+000,  0.10000000000E+001
  0.48756000000E+005,  0.37599219626E+007,  0.16500000000E+002,  0.00000000000E+000,  0.10000000000E+001
  0.49056000000E+005,  0.32387416082E+007,  0.16500000000E+002,  0.00000000000E+000,  0.10000000000E+001
  0.49356000000E+005,  0.28536251945E+007,  0.16500000000E+002,  0.00000000000E+000,  0.10000000000E+001
  0.49656000000E+005,  0.25622076795E+007,  0.16500000000E+002,  0.00000000000E+000,  0.10000000000E+001
  0.49956000000E+005,  0.23366778684E+007,  0.16500000000E+002,  0.00000000000E+000,  0.10000000000E+001
  0.50256000000E+005,  0.21584442264E+007,  0.16500000000E+002,  0.00000000000E+000,  0.10000000000E+001
  0.50556000000E+005,  0.20148666423E+007,  0.16500000000E+002,  0.00000000000E+000,  0.10000000000E+001
  0.50856000000E+005,  0.18971755720E+007,  0.16500000000E+002,  0.00000000000E+000,  0.10000000000E+001
  0.51156000000E+005,  0.17991783809E+007,  0.16500000000E+002,  0.00000000000E+000,  0.10000000000E+001
  0.51456000000E+005,  0.17164260290E+007,  0.16500000000E+002,  0.00000000000E+000,  0.10000000000E+001
  0.51756000000E+005,  0.16456681549E+007,  0.16500000000E+002,  0.00000000000E+000,  0.10000000000E+001
  0.52056000000E+005,  0.15844890361E+007,  0.16500000000E+002,  0.00000000000E+000,  0.10000000000E+001
  0.52356000000E+005,  0.15310700277E+007,  0.16500000000E+002,  0.00000000000E+000,  0.10000000000E+001
  0.52656000000E+005,  0.14840168929E+007,  0.16500000000E+002,  0.00000000000E+000,  0.10000000000E+001
  0.52956000000E+005,  0.14422492616E+007,  0.16500000000E+002,  0.00000000000E+000,  0.10000000000E+001
  0.53256000000E+005,  0.14049182040E+007,  0.16500000000E+002,  0.00000000000E+000,  0.10000000000E+001
  0.53556000000E+005,  0.13713474173E+007,  0.16500000000E+002,  0.00000000000E+000,  0.10000000000E+001
  0.53856000000E+005,  0.13409920141E+007,  0.16500000000E+002,  0.00000000000E+000,  0.10000000000E+001
  0.54156000000E+005,  0.13135745498E+007,  0.16500000000E+002,  0.00000000000E+000,  0.10000000000E+001
  0.54456000000E+005,  0.12886556454E+007,  0.16500000000E+002,  0.00000000000E+000,  0.10000000000E+001
  0.54756000000E+005,  0.12657469186E+007,  0.16500000000E+002,  0.00000000000E+000,  0.10000000000E+001
  0.55056000000E+005,  0.12446336511E+007,  0.16500000000E+002,  0.00000000000E+000,  0.10000000000E+001
  0.55356000000E+005,  0.12251176826E+007,  0.16500000000E+002,  0.00000000000E+000,  0.10000000000E+001
  0.55656000000E+005,  0.12070308983E+007,  0.16500000000E+002,  0.00000000000E+000,  0.10000000000E+001
