"           TIME(S)","              PRES","              TEMP","             SAT_G","             SAT_L"
  0.10000000000E+001,  0.58796189735E+006,  0.16500000000E+002,  0.00000000000E+000,  0.10000000000E+001
  0.60000000000E+001,  0.58796267022E+006,  0.16500000000E+002,  0.00000000000E+000,  0.10000000000E+001
  0.31000000000E+002,  0.58837427340E+006,  0.16500000000E+002,  0.00000000000E+000,  0.10000000000E+001
  0.91000000000E+002,  0.59143604674E+006,  0.16500000000E+002,  0.00000000000E+000,  0.10000000000E+001
  0.15100000000E+003,  0.59513594795E+006,  0.16500000000E+002,  0.00000000000E+000,  0.10000000000E+001
  0.21100000000E+003,  0.59865571817E+006,  0.16500000000E+002,  0.00000000000E+000,  0.10000000000E+001
  0.27100000000E+003,  0.60171599820E+006,  0.16500000000E+002,  0.00000000000E+000,  0.10000000000E+001
  0.33100000000E+003,  0.60428869341E+006,  0.16500000000E+002,  0.00000000000E+000,  0.10000000000E+001
  0.39100000000E+003,  0.60643184748E+006,  0.16500000000E+002,  0.00000000000E+000,  0.10000000000E+001
  0.45100000000E+003,  0.60822078743E+006,  0.16500000000E+002,  0.00000000000E+000,  0.10000000000E+001
  0.51100000000E+003,  0.60972476410E+006,  0.16500000000E+002,  0.00000000000E+000,  0.10000000000E+001
  0.57100000000E+003,  0.61100107756E+006,  0.16500000000E+002,  0.00000000000E+000,  0.10000000000E+001
  0.63100000000E+003,  0.61209506084E+006,  0.16500000000E+002,  0.00000000000E+000,  0.10000000000E+001
  0.69100000000E+003,  0.61304198754E+006,  0.16500000000E+002,  0.00000000000E+000,  0.10000000000E+001
  0.75100000000E+003,  0.61386934365E+006,  0.16500000000E+002,  0.00000000000E+000,  0.10000000000E+001
  0.81100000000E+003,  0.61459862392E+006,  0.16500000000E+002,  0.00000000000E+000,  0.10000000000E+001
  0.87100000000E+003,  0.61524662848E+006,  0.16500000000E+002,  0.00000000000E+000,  0.10000000000E+001
  0.93100000000E+003,  0.61582667395E+006,  0.16500000000E+002,  0.00000000000E+000,  0.10000000000E+001
  0.99100000000E+003,  0.61634938242E+006,  0.16500000000E+002,  0.00000000000E+000,  0.10000000000E+001
  0.10510000000E+004,  0.61682333045E+006,  0.16500000000E+002,  0.00000000000E+000,  0.10000000000E+001
  0.11110000000E+004,  0.61725545732E+006,  0.16500000000E+002,  0.00000000000E+000,  0.10000000000E+001
  0.11710000000E+004,  0.61765148014E+006,  0.16500000000E+002,  0.00000000000E+000,  0.10000000000E+001
  0.12310000000E+004,  0.61801608829E+006,  0.16500000000E+002,  0.00000000000E+000,  0.10000000000E+001
  0.12910000000E+004,  0.61835321463E+006,  0.16500000000E+002,  0.00000000000E+000,  0.10000000000E+001
  0.13510000000E+004,  0.61866615850E+006,  0.16500000000E+002,  0.00000000000E+000,  0.10000000000E+001
  0.14110000000E+004,  0.61895770599E+006,  0.16500000000E+002,  0.00000000000E+000,  0.10000000000E+001
  0.14710000000E+004,  0.61923022584E+006,  0.16500000000E+002,  0.00000000000E+000,  0.10000000000E+001
  0.15310000000E+004,  0.61948574735E+006,  0.16500000000E+002,  0.00000000000E+000,  0.10000000000E+001
  0.15910000000E+004,  0.61972600412E+006,  0.16500000000E+002,  0.00000000000E+000,  0.10000000000E+001
  0.16510000000E+004,  0.61995250131E+006,  0.16500000000E+002,  0.00000000000E+000,  0.10000000000E+001
  0.17110000000E+004,  0.62016655102E+006,  0.16500000000E+002,  0.00000000000E+000,  0.10000000000E+001
  0.17710000000E+004,  0.62036930126E+006,  0.16500000000E+002,  0.00000000000E+000,  0.10000000000E+001
  0.18310000000E+004,  0.62056175803E+006,  0.16500000000E+002,  0.00000000000E+000,  0.10000000000E+001
  0.18910000000E+004,  0.62074481873E+006,  0.16500000000E+002,  0.00000000000E+000,  0.10000000000E+001
  0.19510000000E+004,  0.62091926043E+006,  0.16500000000E+002,  0.00000000000E+000,  0.10000000000E+001
  0.20110000000E+004,  0.62108578669E+006,  0.16500000000E+002,  0.00000000000E+000,  0.10000000000E+001
  0.20710000000E+004,  0.62124502169E+006,  0.16500000000E+002,  0.00000000000E+000,  0.10000000000E+001
  0.21310000000E+004,  0.62139752943E+006,  0.16500000000E+002,  0.00000000000E+000,  0.10000000000E+001
  0.21910000000E+004,  0.62154381649E+006,  0.16500000000E+002,  0.00000000000E+000,  0.10000000000E+001
  0.22510000000E+004,  0.62168433576E+006,  0.16500000000E+002,  0.00000000000E+000,  0.10000000000E+001
  0.23110000000E+004,  0.62181949819E+006,  0.16500000000E+002,  0.00000000000E+000,  0.10000000000E+001
  0.23710000000E+004,  0.62194966876E+006,  0.16500000000E+002,  0.00000000000E+000,  0.10000000000E+001
  0.24310000000E+004,  0.62207518268E+006,  0.16500000000E+002,  0.00000000000E+000,  0.10000000000E+001
  0.24910000000E+004,  0.62219633760E+006,  0.16500000000E+002,  0.00000000000E+000,  0.10000000000E+001
  0.25510000000E+004,  0.62231341137E+006,  0.16500000000E+002,  0.00000000000E+000,  0.10000000000E+001
  0.26110000000E+004,  0.62242665619E+006,  0.16500000000E+002,  0.00000000000E+000,  0.10000000000E+001
  0.26710000000E+004,  0.62253629916E+006,  0.16500000000E+002,  0.00000000000E+000,  0.10000000000E+001
  0.27310000000E+004,  0.62264255398E+006,  0.16500000000E+002,  0.00000000000E+000,  0.10000000000E+001
  0.27910000000E+004,  0.62274561506E+006,  0.16500000000E+002,  0.00000000000E+000,  0.10000000000E+001
  0.28510000000E+004,  0.62284566237E+006,  0.16500000000E+002,  0.00000000000E+000,  0.10000000000E+001
  0.29110000000E+004,  0.62294286184E+006,  0.16500000000E+002,  0.00000000000E+000,  0.10000000000E+001
  0.29710000000E+004,  0.62303736795E+006,  0.16500000000E+002,  0.00000000000E+000,  0.10000000000E+001
  0.30310000000E+004,  0.62312932101E+006,  0.16500000000E+002,  0.00000000000E+000,  0.10000000000E+001
  0.30910000000E+004,  0.62321885420E+006,  0.16500000000E+002,  0.00000000000E+000,  0.10000000000E+001
  0.31510000000E+004,  0.62330608795E+006,  0.16500000000E+002,  0.00000000000E+000,  0.10000000000E+001
  0.32110000000E+004,  0.62339113471E+006,  0.16500000000E+002,  0.00000000000E+000,  0.10000000000E+001
  0.32710000000E+004,  0.62347410010E+006,  0.16500000000E+002,  0.00000000000E+000,  0.10000000000E+001
  0.33310000000E+004,  0.62355508061E+006,  0.16500000000E+002,  0.00000000000E+000,  0.10000000000E+001
  0.33910000000E+004,  0.62363416702E+006,  0.16500000000E+002,  0.00000000000E+000,  0.10000000000E+001
  0.34510000000E+004,  0.62371144265E+006,  0.16500000000E+002,  0.00000000000E+000,  0.10000000000E+001
  0.35110000000E+004,  0.62378698670E+006,  0.16500000000E+002,  0.00000000000E+000,  0.10000000000E+001
  0.35710000000E+004,  0.62386087254E+006,  0.16500000000E+002,  0.00000000000E+000,  0.10000000000E+001
  0.36310000000E+004,  0.62393316881E+006,  0.16500000000E+002,  0.00000000000E+000,  0.10000000000E+001
  0.36910000000E+004,  0.62400394084E+006,  0.16500000000E+002,  0.00000000000E+000,  0.10000000000E+001
  0.37510000000E+004,  0.62407324936E+006,  0.16500000000E+002,  0.00000000000E+000,  0.10000000000E+001
  0.38110000000E+004,  0.62414115332E+006,  0.16500000000E+002,  0.00000000000E+000,  0.10000000000E+001
  0.38710000000E+004,  0.62420770459E+006,  0.16500000000E+002,  0.00000000000E+000,  0.10000000000E+001
  0.39310000000E+004,  0.62427295642E+006,  0.16500000000E+002,  0.00000000000E+000,  0.10000000000E+001
  0.39910000000E+004,  0.62433695738E+006,  0.16500000000E+002,  0.00000000000E+000,  0.10000000000E+001
  0.40510000000E+004,  0.62439975504E+006,  0.16500000000E+002,  0.00000000000E+000,  0.10000000000E+001
  0.41110000000E+004,  0.62446139340E+006,  0.16500000000E+002,  0.00000000000E+000,  0.10000000000E+001
  0.41710000000E+004,  0.62452191522E+006,  0.16500000000E+002,  0.00000000000E+000,  0.10000000000E+001
  0.42310000000E+004,  0.62458135922E+006,  0.16500000000E+002,  0.00000000000E+000,  0.10000000000E+001
  0.42910000000E+004,  0.62463976253E+006,  0.16500000000E+002,  0.00000000000E+000,  0.10000000000E+001
  0.43510000000E+004,  0.62469716087E+006,  0.16500000000E+002,  0.00000000000E+000,  0.10000000000E+001
  0.44110000000E+004,  0.62475358740E+006,  0.16500000000E+002,  0.00000000000E+000,  0.10000000000E+001
  0.44710000000E+004,  0.62480907339E+006,  0.16500000000E+002,  0.00000000000E+000,  0.10000000000E+001
  0.45310000000E+004,  0.62486364958E+006,  0.16500000000E+002,  0.00000000000E+000,  0.10000000000E+001
  0.45910000000E+004,  0.62491734349E+006,  0.16500000000E+002,  0.00000000000E+000,  0.10000000000E+001
  0.46510000000E+004,  0.62497018013E+006,  0.16500000000E+002,  0.00000000000E+000,  0.10000000000E+001
  0.47110000000E+004,  0.62502218680E+006,  0.16500000000E+002,  0.00000000000E+000,  0.10000000000E+001
  0.47710000000E+004,  0.62507338755E+006,  0.16500000000E+002,  0.00000000000E+000,  0.10000000000E+001
  0.48310000000E+004,  0.62512380720E+006,  0.16500000000E+002,  0.00000000000E+000,  0.10000000000E+001
  0.48910000000E+004,  0.62517346964E+006,  0.16500000000E+002,  0.00000000000E+000,  0.10000000000E+001
  0.49510000000E+004,  0.62522239688E+006,  0.16500000000E+002,  0.00000000000E+000,  0.10000000000E+001
  0.50110000000E+004,  0.62527061156E+006,  0.16500000000E+002,  0.00000000000E+000,  0.10000000000E+001
  0.50710000000E+004,  0.62531813323E+006,  0.16500000000E+002,  0.00000000000E+000,  0.10000000000E+001
  0.51310000000E+004,  0.62536498085E+006,  0.16500000000E+002,  0.00000000000E+000,  0.10000000000E+001
  0.51910000000E+004,  0.62541117383E+006,  0.16500000000E+002,  0.00000000000E+000,  0.10000000000E+001
  0.52510000000E+004,  0.62545672836E+006,  0.16500000000E+002,  0.00000000000E+000,  0.10000000000E+001
  0.53110000000E+004,  0.62550166226E+006,  0.16500000000E+002,  0.00000000000E+000,  0.10000000000E+001
  0.53710000000E+004,  0.62554599102E+006,  0.16500000000E+002,  0.00000000000E+000,  0.10000000000E+001
  0.54310000000E+004,  0.62558973042E+006,  0.16500000000E+002,  0.00000000000E+000,  0.10000000000E+001
  0.54910000000E+004,  0.62563289485E+006,  0.16500000000E+002,  0.00000000000E+000,  0.10000000000E+001
  0.55510000000E+004,  0.62567549954E+006,  0.16500000000E+002,  0.00000000000E+000,  0.10000000000E+001
  0.56110000000E+004,  0.62571755815E+006,  0.16500000000E+002,  0.00000000000E+000,  0.10000000000E+001
  0.56710000000E+004,  0.62575908405E+006,  0.16500000000E+002,  0.00000000000E+000,  0.10000000000E+001
  0.57310000000E+004,  0.62580009020E+006,  0.16500000000E+002,  0.00000000000E+000,  0.10000000000E+001
  0.57910000000E+004,  0.62584058878E+006,  0.16500000000E+002,  0.00000000000E+000,  0.10000000000E+001
  0.58510000000E+004,  0.62588059184E+006,  0.16500000000E+002,  0.00000000000E+000,  0.10000000000E+001
  0.59110000000E+004,  0.62592011054E+006,  0.16500000000E+002,  0.00000000000E+000,  0.10000000000E+001
  0.59710000000E+004,  0.62595915583E+006,  0.16500000000E+002,  0.00000000000E+000,  0.10000000000E+001
  0.60310000000E+004,  0.62599822826E+006,  0.16500000000E+002,  0.00000000000E+000,  0.10000000000E+001
  0.60910000000E+004,  0.62603763349E+006,  0.16500000000E+002,  0.00000000000E+000,  0.10000000000E+001
  0.61510000000E+004,  0.62607696695E+006,  0.16500000000E+002,  0.00000000000E+000,  0.10000000000E+001
  0.62110000000E+004,  0.62611585494E+006,  0.16500000000E+002,  0.00000000000E+000,  0.10000000000E+001
  0.62710000000E+004,  0.62615413594E+006,  0.16500000000E+002,  0.00000000000E+000,  0.10000000000E+001
  0.63310000000E+004,  0.62619178200E+006,  0.16500000000E+002,  0.00000000000E+000,  0.10000000000E+001
  0.63910000000E+004,  0.62622881978E+006,  0.16500000000E+002,  0.00000000000E+000,  0.10000000000E+001
  0.64510000000E+004,  0.62626529045E+006,  0.16500000000E+002,  0.00000000000E+000,  0.10000000000E+001
  0.65110000000E+004,  0.62630123496E+006,  0.16500000000E+002,  0.00000000000E+000,  0.10000000000E+001
  0.65710000000E+004,  0.62633668857E+006,  0.16500000000E+002,  0.00000000000E+000,  0.10000000000E+001
  0.66310000000E+004,  0.62637168106E+006,  0.16500000000E+002,  0.00000000000E+000,  0.10000000000E+001
  0.66910000000E+004,  0.62640623715E+006,  0.16500000000E+002,  0.00000000000E+000,  0.10000000000E+001
  0.67510000000E+004,  0.62644037748E+006,  0.16500000000E+002,  0.00000000000E+000,  0.10000000000E+001
  0.68110000000E+004,  0.62647411953E+006,  0.16500000000E+002,  0.00000000000E+000,  0.10000000000E+001
  0.68710000000E+004,  0.62650747828E+006,  0.16500000000E+002,  0.00000000000E+000,  0.10000000000E+001
  0.69310000000E+004,  0.62654046680E+006,  0.16500000000E+002,  0.00000000000E+000,  0.10000000000E+001
  0.69910000000E+004,  0.62657309666E+006,  0.16500000000E+002,  0.00000000000E+000,  0.10000000000E+001
  0.70510000000E+004,  0.62660537826E+006,  0.16500000000E+002,  0.00000000000E+000,  0.10000000000E+001
  0.71110000000E+004,  0.62663732084E+006,  0.16500000000E+002,  0.00000000000E+000,  0.10000000000E+001
  0.71710000000E+004,  0.62666893321E+006,  0.16500000000E+002,  0.00000000000E+000,  0.10000000000E+001
  0.72310000000E+004,  0.62670022327E+006,  0.16500000000E+002,  0.00000000000E+000,  0.10000000000E+001
  0.72910000000E+004,  0.62673119860E+006,  0.16500000000E+002,  0.00000000000E+000,  0.10000000000E+001
  0.73510000000E+004,  0.62676186634E+006,  0.16500000000E+002,  0.00000000000E+000,  0.10000000000E+001
  0.74110000000E+004,  0.62679223321E+006,  0.16500000000E+002,  0.00000000000E+000,  0.10000000000E+001
  0.74710000000E+004,  0.62682230557E+006,  0.16500000000E+002,  0.00000000000E+000,  0.10000000000E+001
  0.75310000000E+004,  0.62685208945E+006,  0.16500000000E+002,  0.00000000000E+000,  0.10000000000E+001
  0.75910000000E+004,  0.62688159063E+006,  0.16500000000E+002,  0.00000000000E+000,  0.10000000000E+001
  0.76510000000E+004,  0.62691081467E+006,  0.16500000000E+002,  0.00000000000E+000,  0.10000000000E+001
  0.77110000000E+004,  0.62693976685E+006,  0.16500000000E+002,  0.00000000000E+000,  0.10000000000E+001
  0.77710000000E+004,  0.62696845211E+006,  0.16500000000E+002,  0.00000000000E+000,  0.10000000000E+001
  0.78310000000E+004,  0.62699687557E+006,  0.16500000000E+002,  0.00000000000E+000,  0.10000000000E+001
  0.78910000000E+004,  0.62702504159E+006,  0.16500000000E+002,  0.00000000000E+000,  0.10000000000E+001
  0.79510000000E+004,  0.62705295472E+006,  0.16500000000E+002,  0.00000000000E+000,  0.10000000000E+001
  0.80110000000E+004,  0.62708061947E+006,  0.16500000000E+002,  0.00000000000E+000,  0.10000000000E+001
  0.80710000000E+004,  0.62710804004E+006,  0.16500000000E+002,  0.00000000000E+000,  0.10000000000E+001
  0.81310000000E+004,  0.62713522092E+006,  0.16500000000E+002,  0.00000000000E+000,  0.10000000000E+001
  0.81910000000E+004,  0.62716216615E+006,  0.16500000000E+002,  0.00000000000E+000,  0.10000000000E+001
  0.82510000000E+004,  0.62718887966E+006,  0.16500000000E+002,  0.00000000000E+000,  0.10000000000E+001
  0.83110000000E+004,  0.62721536542E+006,  0.16500000000E+002,  0.00000000000E+000,  0.10000000000E+001
  0.83710000000E+004,  0.62724162702E+006,  0.16500000000E+002,  0.00000000000E+000,  0.10000000000E+001
  0.84310000000E+004,  0.62726766822E+006,  0.16500000000E+002,  0.00000000000E+000,  0.10000000000E+001
  0.84910000000E+004,  0.62729349275E+006,  0.16500000000E+002,  0.00000000000E+000,  0.10000000000E+001
  0.85510000000E+004,  0.62731910424E+006,  0.16500000000E+002,  0.00000000000E+000,  0.10000000000E+001
  0.86110000000E+004,  0.62734450598E+006,  0.16500000000E+002,  0.00000000000E+000,  0.10000000000E+001
  0.86710000000E+004,  0.62736970178E+006,  0.16500000000E+002,  0.00000000000E+000,  0.10000000000E+001
  0.87310000000E+004,  0.62739469451E+006,  0.16500000000E+002,  0.00000000000E+000,  0.10000000000E+001
  0.87910000000E+004,  0.62741948738E+006,  0.16500000000E+002,  0.00000000000E+000,  0.10000000000E+001
  0.88510000000E+004,  0.62744408353E+006,  0.16500000000E+002,  0.00000000000E+000,  0.10000000000E+001
  0.89110000000E+004,  0.62746848596E+006,  0.16500000000E+002,  0.00000000000E+000,  0.10000000000E+001
  0.89710000000E+004,  0.62749269770E+006,  0.16500000000E+002,  0.00000000000E+000,  0.10000000000E+001
  0.90310000000E+004,  0.62751672156E+006,  0.16500000000E+002,  0.00000000000E+000,  0.10000000000E+001
  0.90910000000E+004,  0.62754056030E+006,  0.16500000000E+002,  0.00000000000E+000,  0.10000000000E+001
  0.91510000000E+004,  0.62756421663E+006,  0.16500000000E+002,  0.00000000000E+000,  0.10000000000E+001
  0.92110000000E+004,  0.62758769322E+006,  0.16500000000E+002,  0.00000000000E+000,  0.10000000000E+001
  0.92710000000E+004,  0.62761099272E+006,  0.16500000000E+002,  0.00000000000E+000,  0.10000000000E+001
  0.93310000000E+004,  0.62763411769E+006,  0.16500000000E+002,  0.00000000000E+000,  0.10000000000E+001
  0.93910000000E+004,  0.62765707067E+006,  0.16500000000E+002,  0.00000000000E+000,  0.10000000000E+001
  0.94510000000E+004,  0.62767985413E+006,  0.16500000000E+002,  0.00000000000E+000,  0.10000000000E+001
  0.95110000000E+004,  0.62770247047E+006,  0.16500000000E+002,  0.00000000000E+000,  0.10000000000E+001
  0.95710000000E+004,  0.62772492207E+006,  0.16500000000E+002,  0.00000000000E+000,  0.10000000000E+001
  0.96310000000E+004,  0.62774721122E+006,  0.16500000000E+002,  0.00000000000E+000,  0.10000000000E+001
  0.96910000000E+004,  0.62776934017E+006,  0.16500000000E+002,  0.00000000000E+000,  0.10000000000E+001
  0.97510000000E+004,  0.62779131113E+006,  0.16500000000E+002,  0.00000000000E+000,  0.10000000000E+001
  0.98110000000E+004,  0.62781312622E+006,  0.16500000000E+002,  0.00000000000E+000,  0.10000000000E+001
  0.98710000000E+004,  0.62783478754E+006,  0.16500000000E+002,  0.00000000000E+000,  0.10000000000E+001
  0.99310000000E+004,  0.62785629712E+006,  0.16500000000E+002,  0.00000000000E+000,  0.10000000000E+001
  0.99910000000E+004,  0.62787765690E+006,  0.16500000000E+002,  0.00000000000E+000,  0.10000000000E+001
  0.10051000000E+005,  0.62789886881E+006,  0.16500000000E+002,  0.00000000000E+000,  0.10000000000E+001
  0.10111000000E+005,  0.62791993473E+006,  0.16500000000E+002,  0.00000000000E+000,  0.10000000000E+001
  0.10171000000E+005,  0.62794085656E+006,  0.16500000000E+002,  0.00000000000E+000,  0.10000000000E+001
  0.10231000000E+005,  0.62796163613E+006,  0.16500000000E+002,  0.00000000000E+000,  0.10000000000E+001
  0.10291000000E+005,  0.62798227525E+006,  0.16500000000E+002,  0.00000000000E+000,  0.10000000000E+001
  0.10351000000E+005,  0.62800277574E+006,  0.16500000000E+002,  0.00000000000E+000,  0.10000000000E+001
  0.10411000000E+005,  0.62802313924E+006,  0.16500000000E+002,  0.00000000000E+000,  0.10000000000E+001
  0.10471000000E+005,  0.62804336723E+006,  0.16500000000E+002,  0.00000000000E+000,  0.10000000000E+001
  0.10531000000E+005,  0.62806346163E+006,  0.16500000000E+002,  0.00000000000E+000,  0.10000000000E+001
  0.10591000000E+005,  0.62808342423E+006,  0.16500000000E+002,  0.00000000000E+000,  0.10000000000E+001
  0.10651000000E+005,  0.62810325695E+006,  0.16500000000E+002,  0.00000000000E+000,  0.10000000000E+001
  0.10711000000E+005,  0.62812296164E+006,  0.16500000000E+002,  0.00000000000E+000,  0.10000000000E+001
  0.10771000000E+005,  0.62814254007E+006,  0.16500000000E+002,  0.00000000000E+000,  0.10000000000E+001
  0.10831000000E+005,  0.62816199389E+006,  0.16500000000E+002,  0.00000000000E+000,  0.10000000000E+001
  0.10891000000E+005,  0.62818132470E+006,  0.16500000000E+002,  0.00000000000E+000,  0.10000000000E+001
  0.10951000000E+005,  0.62820053399E+006,  0.16500000000E+002,  0.00000000000E+000,  0.10000000000E+001
  0.11011000000E+005,  0.62821962322E+006,  0.16500000000E+002,  0.00000000000E+000,  0.10000000000E+001
  0.11071000000E+005,  0.62823859378E+006,  0.16500000000E+002,  0.00000000000E+000,  0.10000000000E+001
  0.11131000000E+005,  0.62825744706E+006,  0.16500000000E+002,  0.00000000000E+000,  0.10000000000E+001
  0.11191000000E+005,  0.62827618446E+006,  0.16500000000E+002,  0.00000000000E+000,  0.10000000000E+001
