"           TIME(S)","              PRES","              TEMP","             SAT_G","             SAT_L"
  0.47568000000E+005,  0.85474995774E+007,  0.16500000000E+002,  0.00000000000E+000,  0.10000000000E+001
  0.47573000000E+005,  0.68056182634E+007,  0.16500000000E+002,  0.00000000000E+000,  0.10000000000E+001
  0.47598000000E+005,  0.51633662277E+007,  0.16500000000E+002,  0.00000000000E+000,  0.10000000000E+001
  0.47658000000E+005,  0.43992092103E+007,  0.16500000000E+002,  0.00000000000E+000,  0.10000000000E+001
  0.47718000000E+005,  0.40800235869E+007,  0.16500000000E+002,  0.00000000000E+000,  0.10000000000E+001
  0.47778000000E+005,  0.38861149246E+007,  0.16500000000E+002,  0.00000000000E+000,  0.10000000000E+001
  0.47838000000E+005,  0.37460583861E+007,  0.16500000000E+002,  0.00000000000E+000,  0.10000000000E+001
  0.47898000000E+005,  0.36357618823E+007,  0.16500000000E+002,  0.00000000000E+000,  0.10000000000E+001
  0.47958000000E+005,  0.35445102364E+007,  0.16500000000E+002,  0.00000000000E+000,  0.10000000000E+001
  0.48018000000E+005,  0.34660706772E+007,  0.16500000000E+002,  0.00000000000E+000,  0.10000000000E+001
  0.48078000000E+005,  0.33966978913E+007,  0.16500000000E+002,  0.00000000000E+000,  0.10000000000E+001
  0.48138000000E+005,  0.33358964801E+007,  0.16500000000E+002,  0.00000000000E+000,  0.10000000000E+001
  0.48198000000E+005,  0.32813281539E+007,  0.16500000000E+002,  0.00000000000E+000,  0.10000000000E+001
  0.48258000000E+005,  0.32317643375E+007,  0.16500000000E+002,  0.00000000000E+000,  0.10000000000E+001
  0.48318000000E+005,  0.31863407190E+007,  0.16500000000E+002,  0.00000000000E+000,  0.10000000000E+001
  0.48378000000E+005,  0.31444076489E+007,  0.16500000000E+002,  0.00000000000E+000,  0.10000000000E+001
  0.48438000000E+005,  0.31054601897E+007,  0.16500000000E+002,  0.00000000000E+000,  0.10000000000E+001
  0.48498000000E+005,  0.30690972723E+007,  0.16500000000E+002,  0.00000000000E+000,  0.10000000000E+001
  0.48558000000E+005,  0.30349948167E+007,  0.16500000000E+002,  0.00000000000E+000,  0.10000000000E+001
  0.48618000000E+005,  0.30028867227E+007,  0.16500000000E+002,  0.00000000000E+000,  0.10000000000E+001
  0.48678000000E+005,  0.29725520407E+007,  0.16500000000E+002,  0.00000000000E+000,  0.10000000000E+001
  0.48738000000E+005,  0.29438048180E+007,  0.16500000000E+002,  0.00000000000E+000,  0.10000000000E+001
  0.48798000000E+005,  0.29164872748E+007,  0.16500000000E+002,  0.00000000000E+000,  0.10000000000E+001
  0.48858000000E+005,  0.28904642850E+007,  0.16500000000E+002,  0.00000000000E+000,  0.10000000000E+001
  0.48918000000E+005,  0.28656190793E+007,  0.16500000000E+002,  0.00000000000E+000,  0.10000000000E+001
  0.48978000000E+005,  0.28418501260E+007,  0.16500000000E+002,  0.00000000000E+000,  0.10000000000E+001
  0.49038000000E+005,  0.28190685307E+007,  0.16500000000E+002,  0.00000000000E+000,  0.10000000000E+001
  0.49098000000E+005,  0.27971960147E+007,  0.16500000000E+002,  0.00000000000E+000,  0.10000000000E+001
  0.49158000000E+005,  0.27761632963E+007,  0.16500000000E+002,  0.00000000000E+000,  0.10000000000E+001
  0.49218000000E+005,  0.27559087324E+007,  0.16500000000E+002,  0.00000000000E+000,  0.10000000000E+001
  0.49278000000E+005,  0.27363772432E+007,  0.16500000000E+002,  0.00000000000E+000,  0.10000000000E+001
  0.49338000000E+005,  0.27175194159E+007,  0.16500000000E+002,  0.00000000000E+000,  0.10000000000E+001
  0.49398000000E+005,  0.26992907068E+007,  0.16500000000E+002,  0.00000000000E+000,  0.10000000000E+001
  0.49458000000E+005,  0.26816508707E+007,  0.16500000000E+002,  0.00000000000E+000,  0.10000000000E+001
  0.49518000000E+005,  0.26645634168E+007,  0.16500000000E+002,  0.00000000000E+000,  0.10000000000E+001
  0.49578000000E+005,  0.26479951220E+007,  0.16500000000E+002,  0.00000000000E+000,  0.10000000000E+001
  0.49638000000E+005,  0.26319156858E+007,  0.16500000000E+002,  0.00000000000E+000,  0.10000000000E+001
  0.49698000000E+005,  0.26162973856E+007,  0.16500000000E+002,  0.00000000000E+000,  0.10000000000E+001
  0.49758000000E+005,  0.26011147896E+007,  0.16500000000E+002,  0.00000000000E+000,  0.10000000000E+001
  0.49818000000E+005,  0.25863445112E+007,  0.16500000000E+002,  0.00000000000E+000,  0.10000000000E+001
  0.49878000000E+005,  0.25719650073E+007,  0.16500000000E+002,  0.00000000000E+000,  0.10000000000E+001
  0.49938000000E+005,  0.25579563460E+007,  0.16500000000E+002,  0.00000000000E+000,  0.10000000000E+001
  0.49998000000E+005,  0.25443001357E+007,  0.16500000000E+002,  0.00000000000E+000,  0.10000000000E+001
  0.50058000000E+005,  0.25309792889E+007,  0.16500000000E+002,  0.00000000000E+000,  0.10000000000E+001
  0.50118000000E+005,  0.25179779324E+007,  0.16500000000E+002,  0.00000000000E+000,  0.10000000000E+001
  0.50178000000E+005,  0.25052813015E+007,  0.16500000000E+002,  0.00000000000E+000,  0.10000000000E+001
  0.50238000000E+005,  0.24928756277E+007,  0.16500000000E+002,  0.00000000000E+000,  0.10000000000E+001
  0.50298000000E+005,  0.24807480634E+007,  0.16500000000E+002,  0.00000000000E+000,  0.10000000000E+001
  0.50358000000E+005,  0.24688865556E+007,  0.16500000000E+002,  0.00000000000E+000,  0.10000000000E+001
  0.50418000000E+005,  0.24572798748E+007,  0.16500000000E+002,  0.00000000000E+000,  0.10000000000E+001
  0.50478000000E+005,  0.24459174637E+007,  0.16500000000E+002,  0.00000000000E+000,  0.10000000000E+001
  0.50538000000E+005,  0.24347893847E+007,  0.16500000000E+002,  0.00000000000E+000,  0.10000000000E+001
  0.50598000000E+005,  0.24238863345E+007,  0.16500000000E+002,  0.00000000000E+000,  0.10000000000E+001
  0.50658000000E+005,  0.24131995196E+007,  0.16500000000E+002,  0.00000000000E+000,  0.10000000000E+001
  0.50718000000E+005,  0.24027206797E+007,  0.16500000000E+002,  0.00000000000E+000,  0.10000000000E+001
  0.50778000000E+005,  0.23924419943E+007,  0.16500000000E+002,  0.00000000000E+000,  0.10000000000E+001
  0.50838000000E+005,  0.23823560975E+007,  0.16500000000E+002,  0.00000000000E+000,  0.10000000000E+001
  0.50898000000E+005,  0.23724559974E+007,  0.16500000000E+002,  0.00000000000E+000,  0.10000000000E+001
  0.50958000000E+005,  0.23627351066E+007,  0.16500000000E+002,  0.00000000000E+000,  0.10000000000E+001
  0.51018000000E+005,  0.23531871521E+007,  0.16500000000E+002,  0.00000000000E+000,  0.10000000000E+001
  0.51078000000E+005,  0.23438062085E+007,  0.16500000000E+002,  0.00000000000E+000,  0.10000000000E+001
  0.51138000000E+005,  0.23345866358E+007,  0.16500000000E+002,  0.00000000000E+000,  0.10000000000E+001
  0.51198000000E+005,  0.23255230682E+007,  0.16500000000E+002,  0.00000000000E+000,  0.10000000000E+001
  0.51258000000E+005,  0.23166104312E+007,  0.16500000000E+002,  0.00000000000E+000,  0.10000000000E+001
  0.51318000000E+005,  0.23078438656E+007,  0.16500000000E+002,  0.00000000000E+000,  0.10000000000E+001
  0.51378000000E+005,  0.22992187503E+007,  0.16500000000E+002,  0.00000000000E+000,  0.10000000000E+001
  0.51438000000E+005,  0.22907306902E+007,  0.16500000000E+002,  0.00000000000E+000,  0.10000000000E+001
  0.51498000000E+005,  0.22823754780E+007,  0.16500000000E+002,  0.00000000000E+000,  0.10000000000E+001
  0.51558000000E+005,  0.22741490955E+007,  0.16500000000E+002,  0.00000000000E+000,  0.10000000000E+001
  0.51618000000E+005,  0.22660477234E+007,  0.16500000000E+002,  0.00000000000E+000,  0.10000000000E+001
  0.51678000000E+005,  0.22580676891E+007,  0.16500000000E+002,  0.00000000000E+000,  0.10000000000E+001
  0.51738000000E+005,  0.22502054878E+007,  0.16500000000E+002,  0.00000000000E+000,  0.10000000000E+001
  0.51798000000E+005,  0.22424577620E+007,  0.16500000000E+002,  0.00000000000E+000,  0.10000000000E+001
  0.51858000000E+005,  0.22348213007E+007,  0.16500000000E+002,  0.00000000000E+000,  0.10000000000E+001
  0.51918000000E+005,  0.22272930176E+007,  0.16500000000E+002,  0.00000000000E+000,  0.10000000000E+001
  0.51978000000E+005,  0.22198699473E+007,  0.16500000000E+002,  0.00000000000E+000,  0.10000000000E+001
  0.52038000000E+005,  0.22125492598E+007,  0.16500000000E+002,  0.00000000000E+000,  0.10000000000E+001
  0.52098000000E+005,  0.22053282332E+007,  0.16500000000E+002,  0.00000000000E+000,  0.10000000000E+001
  0.52158000000E+005,  0.21982042446E+007,  0.16500000000E+002,  0.00000000000E+000,  0.10000000000E+001
  0.52218000000E+005,  0.21911747799E+007,  0.16500000000E+002,  0.00000000000E+000,  0.10000000000E+001
  0.52278000000E+005,  0.21842374206E+007,  0.16500000000E+002,  0.00000000000E+000,  0.10000000000E+001
  0.52338000000E+005,  0.21773898308E+007,  0.16500000000E+002,  0.00000000000E+000,  0.10000000000E+001
  0.52398000000E+005,  0.21706297727E+007,  0.16500000000E+002,  0.00000000000E+000,  0.10000000000E+001
  0.52458000000E+005,  0.21639550901E+007,  0.16500000000E+002,  0.00000000000E+000,  0.10000000000E+001
  0.52518000000E+005,  0.21573637011E+007,  0.16500000000E+002,  0.00000000000E+000,  0.10000000000E+001
  0.52578000000E+005,  0.21508535952E+007,  0.16500000000E+002,  0.00000000000E+000,  0.10000000000E+001
  0.52638000000E+005,  0.21444228441E+007,  0.16500000000E+002,  0.00000000000E+000,  0.10000000000E+001
  0.52698000000E+005,  0.21380695804E+007,  0.16500000000E+002,  0.00000000000E+000,  0.10000000000E+001
  0.52758000000E+005,  0.21317920011E+007,  0.16500000000E+002,  0.00000000000E+000,  0.10000000000E+001
  0.52818000000E+005,  0.21255883684E+007,  0.16500000000E+002,  0.00000000000E+000,  0.10000000000E+001
  0.52878000000E+005,  0.21194570026E+007,  0.16500000000E+002,  0.00000000000E+000,  0.10000000000E+001
  0.52938000000E+005,  0.21133962825E+007,  0.16500000000E+002,  0.00000000000E+000,  0.10000000000E+001
  0.52998000000E+005,  0.21074046308E+007,  0.16500000000E+002,  0.00000000000E+000,  0.10000000000E+001
  0.53058000000E+005,  0.21014805383E+007,  0.16500000000E+002,  0.00000000000E+000,  0.10000000000E+001
  0.53118000000E+005,  0.20956225335E+007,  0.16500000000E+002,  0.00000000000E+000,  0.10000000000E+001
  0.53178000000E+005,  0.20898291904E+007,  0.16500000000E+002,  0.00000000000E+000,  0.10000000000E+001
  0.53238000000E+005,  0.20840991406E+007,  0.16500000000E+002,  0.00000000000E+000,  0.10000000000E+001
  0.53298000000E+005,  0.20784310500E+007,  0.16500000000E+002,  0.00000000000E+000,  0.10000000000E+001
  0.53358000000E+005,  0.20728236288E+007,  0.16500000000E+002,  0.00000000000E+000,  0.10000000000E+001
  0.53418000000E+005,  0.20672756240E+007,  0.16500000000E+002,  0.00000000000E+000,  0.10000000000E+001
  0.53478000000E+005,  0.20617858237E+007,  0.16500000000E+002,  0.00000000000E+000,  0.10000000000E+001
  0.53538000000E+005,  0.20563530538E+007,  0.16500000000E+002,  0.00000000000E+000,  0.10000000000E+001
  0.53598000000E+005,  0.20509761711E+007,  0.16500000000E+002,  0.00000000000E+000,  0.10000000000E+001
  0.53658000000E+005,  0.20456540767E+007,  0.16500000000E+002,  0.00000000000E+000,  0.10000000000E+001
  0.53718000000E+005,  0.20403856892E+007,  0.16500000000E+002,  0.00000000000E+000,  0.10000000000E+001
  0.53778000000E+005,  0.20351699720E+007,  0.16500000000E+002,  0.00000000000E+000,  0.10000000000E+001
  0.53838000000E+005,  0.20300059148E+007,  0.16500000000E+002,  0.00000000000E+000,  0.10000000000E+001
  0.53898000000E+005,  0.20248925294E+007,  0.16500000000E+002,  0.00000000000E+000,  0.10000000000E+001
  0.53958000000E+005,  0.20198288623E+007,  0.16500000000E+002,  0.00000000000E+000,  0.10000000000E+001
  0.54018000000E+005,  0.20153398130E+007,  0.16500000000E+002,  0.00000000000E+000,  0.10000000000E+001
  0.54078000000E+005,  0.20117317912E+007,  0.16500000000E+002,  0.00000000000E+000,  0.10000000000E+001
  0.54138000000E+005,  0.20071868241E+007,  0.16500000000E+002,  0.00000000000E+000,  0.10000000000E+001
  0.54198000000E+005,  0.20025141626E+007,  0.16500000000E+002,  0.00000000000E+000,  0.10000000000E+001
  0.54258000000E+005,  0.19978248731E+007,  0.16500000000E+002,  0.00000000000E+000,  0.10000000000E+001
  0.54318000000E+005,  0.19931486144E+007,  0.16500000000E+002,  0.00000000000E+000,  0.10000000000E+001
  0.54378000000E+005,  0.19884967390E+007,  0.16500000000E+002,  0.00000000000E+000,  0.10000000000E+001
  0.54438000000E+005,  0.19838745787E+007,  0.16500000000E+002,  0.00000000000E+000,  0.10000000000E+001
  0.54498000000E+005,  0.19792849447E+007,  0.16500000000E+002,  0.00000000000E+000,  0.10000000000E+001
  0.54558000000E+005,  0.19747293837E+007,  0.16500000000E+002,  0.00000000000E+000,  0.10000000000E+001
  0.54618000000E+005,  0.19702087394E+007,  0.16500000000E+002,  0.00000000000E+000,  0.10000000000E+001
  0.54678000000E+005,  0.19657234317E+007,  0.16500000000E+002,  0.00000000000E+000,  0.10000000000E+001
  0.54738000000E+005,  0.19612736082E+007,  0.16500000000E+002,  0.00000000000E+000,  0.10000000000E+001
  0.54798000000E+005,  0.19568592373E+007,  0.16500000000E+002,  0.00000000000E+000,  0.10000000000E+001
  0.54858000000E+005,  0.19524801697E+007,  0.16500000000E+002,  0.00000000000E+000,  0.10000000000E+001
  0.54918000000E+005,  0.19481361674E+007,  0.16500000000E+002,  0.00000000000E+000,  0.10000000000E+001
  0.54978000000E+005,  0.19438269412E+007,  0.16500000000E+002,  0.00000000000E+000,  0.10000000000E+001
  0.55038000000E+005,  0.19395521541E+007,  0.16500000000E+002,  0.00000000000E+000,  0.10000000000E+001
  0.55098000000E+005,  0.19353114436E+007,  0.16500000000E+002,  0.00000000000E+000,  0.10000000000E+001
  0.55158000000E+005,  0.19311044252E+007,  0.16500000000E+002,  0.00000000000E+000,  0.10000000000E+001
  0.55218000000E+005,  0.19269307030E+007,  0.16500000000E+002,  0.00000000000E+000,  0.10000000000E+001
  0.55278000000E+005,  0.19227898711E+007,  0.16500000000E+002,  0.00000000000E+000,  0.10000000000E+001
  0.55338000000E+005,  0.19186815203E+007,  0.16500000000E+002,  0.00000000000E+000,  0.10000000000E+001
  0.55398000000E+005,  0.19146052383E+007,  0.16500000000E+002,  0.00000000000E+000,  0.10000000000E+001
  0.55458000000E+005,  0.19105606085E+007,  0.16500000000E+002,  0.00000000000E+000,  0.10000000000E+001
  0.55518000000E+005,  0.19065472230E+007,  0.16500000000E+002,  0.00000000000E+000,  0.10000000000E+001
  0.55578000000E+005,  0.19025646738E+007,  0.16500000000E+002,  0.00000000000E+000,  0.10000000000E+001
  0.55638000000E+005,  0.18986125536E+007,  0.16500000000E+002,  0.00000000000E+000,  0.10000000000E+001
  0.55698000000E+005,  0.18946904626E+007,  0.16500000000E+002,  0.00000000000E+000,  0.10000000000E+001
  0.55758000000E+005,  0.18907980058E+007,  0.16500000000E+002,  0.00000000000E+000,  0.10000000000E+001
  0.55818000000E+005,  0.18869347918E+007,  0.16500000000E+002,  0.00000000000E+000,  0.10000000000E+001
  0.55878000000E+005,  0.18831004350E+007,  0.16500000000E+002,  0.00000000000E+000,  0.10000000000E+001
  0.55938000000E+005,  0.18792945582E+007,  0.16500000000E+002,  0.00000000000E+000,  0.10000000000E+001
  0.55998000000E+005,  0.18755167856E+007,  0.16500000000E+002,  0.00000000000E+000,  0.10000000000E+001
  0.56058000000E+005,  0.18717667533E+007,  0.16500000000E+002,  0.00000000000E+000,  0.10000000000E+001
  0.56118000000E+005,  0.18680440981E+007,  0.16500000000E+002,  0.00000000000E+000,  0.10000000000E+001
  0.56178000000E+005,  0.18643484658E+007,  0.16500000000E+002,  0.00000000000E+000,  0.10000000000E+001
  0.56238000000E+005,  0.18606795084E+007,  0.16500000000E+002,  0.00000000000E+000,  0.10000000000E+001
  0.56298000000E+005,  0.18570368819E+007,  0.16500000000E+002,  0.00000000000E+000,  0.10000000000E+001
  0.56358000000E+005,  0.18534202535E+007,  0.16500000000E+002,  0.00000000000E+000,  0.10000000000E+001
  0.56418000000E+005,  0.18498292892E+007,  0.16500000000E+002,  0.00000000000E+000,  0.10000000000E+001
  0.56478000000E+005,  0.18462636681E+007,  0.16500000000E+002,  0.00000000000E+000,  0.10000000000E+001
  0.56538000000E+005,  0.18427230693E+007,  0.16500000000E+002,  0.00000000000E+000,  0.10000000000E+001
  0.56598000000E+005,  0.18392071825E+007,  0.16500000000E+002,  0.00000000000E+000,  0.10000000000E+001
  0.56658000000E+005,  0.18357156999E+007,  0.16500000000E+002,  0.00000000000E+000,  0.10000000000E+001
  0.56718000000E+005,  0.18322483207E+007,  0.16500000000E+002,  0.00000000000E+000,  0.10000000000E+001
  0.56778000000E+005,  0.18288047505E+007,  0.16500000000E+002,  0.00000000000E+000,  0.10000000000E+001
  0.56838000000E+005,  0.18253846980E+007,  0.16500000000E+002,  0.00000000000E+000,  0.10000000000E+001
  0.56898000000E+005,  0.18219878786E+007,  0.16500000000E+002,  0.00000000000E+000,  0.10000000000E+001
  0.56958000000E+005,  0.18186140121E+007,  0.16500000000E+002,  0.00000000000E+000,  0.10000000000E+001
  0.57018000000E+005,  0.18152628269E+007,  0.16500000000E+002,  0.00000000000E+000,  0.10000000000E+001
  0.57078000000E+005,  0.18119340509E+007,  0.16500000000E+002,  0.00000000000E+000,  0.10000000000E+001
  0.57138000000E+005,  0.18086274220E+007,  0.16500000000E+002,  0.00000000000E+000,  0.10000000000E+001
  0.57198000000E+005,  0.18053426786E+007,  0.16500000000E+002,  0.00000000000E+000,  0.10000000000E+001
  0.57258000000E+005,  0.18020795679E+007,  0.16500000000E+002,  0.00000000000E+000,  0.10000000000E+001
  0.57318000000E+005,  0.17988378392E+007,  0.16500000000E+002,  0.00000000000E+000,  0.10000000000E+001
  0.57378000000E+005,  0.17956172456E+007,  0.16500000000E+002,  0.00000000000E+000,  0.10000000000E+001
  0.57438000000E+005,  0.17924175479E+007,  0.16500000000E+002,  0.00000000000E+000,  0.10000000000E+001
  0.57498000000E+005,  0.17892385077E+007,  0.16500000000E+002,  0.00000000000E+000,  0.10000000000E+001
  0.57558000000E+005,  0.17860798927E+007,  0.16500000000E+002,  0.00000000000E+000,  0.10000000000E+001
  0.57618000000E+005,  0.17829414748E+007,  0.16500000000E+002,  0.00000000000E+000,  0.10000000000E+001
  0.57678000000E+005,  0.17798230294E+007,  0.16500000000E+002,  0.00000000000E+000,  0.10000000000E+001
  0.57738000000E+005,  0.17767243353E+007,  0.16500000000E+002,  0.00000000000E+000,  0.10000000000E+001
  0.57798000000E+005,  0.17736451769E+007,  0.16500000000E+002,  0.00000000000E+000,  0.10000000000E+001
  0.57858000000E+005,  0.17705853402E+007,  0.16500000000E+002,  0.00000000000E+000,  0.10000000000E+001
  0.57918000000E+005,  0.17675446178E+007,  0.16500000000E+002,  0.00000000000E+000,  0.10000000000E+001
  0.57978000000E+005,  0.17645228026E+007,  0.16500000000E+002,  0.00000000000E+000,  0.10000000000E+001
  0.58038000000E+005,  0.17615196933E+007,  0.16500000000E+002,  0.00000000000E+000,  0.10000000000E+001
  0.58098000000E+005,  0.17585350905E+007,  0.16500000000E+002,  0.00000000000E+000,  0.10000000000E+001
  0.58158000000E+005,  0.17555687999E+007,  0.16500000000E+002,  0.00000000000E+000,  0.10000000000E+001
  0.58218000000E+005,  0.17526206294E+007,  0.16500000000E+002,  0.00000000000E+000,  0.10000000000E+001
  0.58278000000E+005,  0.17496903911E+007,  0.16500000000E+002,  0.00000000000E+000,  0.10000000000E+001
  0.58338000000E+005,  0.17467778982E+007,  0.16500000000E+002,  0.00000000000E+000,  0.10000000000E+001
  0.58398000000E+005,  0.17438829690E+007,  0.16500000000E+002,  0.00000000000E+000,  0.10000000000E+001
  0.58458000000E+005,  0.17410054238E+007,  0.16500000000E+002,  0.00000000000E+000,  0.10000000000E+001
  0.58518000000E+005,  0.17381450863E+007,  0.16500000000E+002,  0.00000000000E+000,  0.10000000000E+001
  0.58578000000E+005,  0.17353017832E+007,  0.16500000000E+002,  0.00000000000E+000,  0.10000000000E+001
  0.58638000000E+005,  0.17324753438E+007,  0.16500000000E+002,  0.00000000000E+000,  0.10000000000E+001
  0.58698000000E+005,  0.17296656001E+007,  0.16500000000E+002,  0.00000000000E+000,  0.10000000000E+001
  0.58758000000E+005,  0.17268723868E+007,  0.16500000000E+002,  0.00000000000E+000,  0.10000000000E+001
