"           TIME(S)","              PRES","              TEMP","             SAT_G","             SAT_L"
  0.23301000000E+005,  0.41157011985E+006,  0.16500000000E+002,  0.00000000000E+000,  0.10000000000E+001
  0.23306000000E+005,  0.41157011985E+006,  0.16500000000E+002,  0.00000000000E+000,  0.10000000000E+001
  0.23331000000E+005,  0.41157011985E+006,  0.16500000000E+002,  0.00000000000E+000,  0.10000000000E+001
  0.23391000000E+005,  0.41157011986E+006,  0.16500000000E+002,  0.00000000000E+000,  0.10000000000E+001
  0.23451000000E+005,  0.41157011983E+006,  0.16500000000E+002,  0.00000000000E+000,  0.10000000000E+001
  0.23511000000E+005,  0.41157011978E+006,  0.16500000000E+002,  0.00000000000E+000,  0.10000000000E+001
  0.23571000000E+005,  0.41157011971E+006,  0.16500000000E+002,  0.00000000000E+000,  0.10000000000E+001
  0.23631000000E+005,  0.41157011961E+006,  0.16500000000E+002,  0.00000000000E+000,  0.10000000000E+001
  0.23691000000E+005,  0.41157011949E+006,  0.16500000000E+002,  0.00000000000E+000,  0.10000000000E+001
  0.23751000000E+005,  0.41157011934E+006,  0.16500000000E+002,  0.00000000000E+000,  0.10000000000E+001
  0.23811000000E+005,  0.41157011918E+006,  0.16500000000E+002,  0.00000000000E+000,  0.10000000000E+001
  0.23871000000E+005,  0.41157011900E+006,  0.16500000000E+002,  0.00000000000E+000,  0.10000000000E+001
  0.23931000000E+005,  0.41157011881E+006,  0.16500000000E+002,  0.00000000000E+000,  0.10000000000E+001
  0.23991000000E+005,  0.41157011859E+006,  0.16500000000E+002,  0.00000000000E+000,  0.10000000000E+001
  0.24051000000E+005,  0.41157011837E+006,  0.16500000000E+002,  0.00000000000E+000,  0.10000000000E+001
  0.24111000000E+005,  0.41157011813E+006,  0.16500000000E+002,  0.00000000000E+000,  0.10000000000E+001
  0.24171000000E+005,  0.41157011788E+006,  0.16500000000E+002,  0.00000000000E+000,  0.10000000000E+001
  0.24231000000E+005,  0.41157011762E+006,  0.16500000000E+002,  0.00000000000E+000,  0.10000000000E+001
  0.24291000000E+005,  0.41157011735E+006,  0.16500000000E+002,  0.00000000000E+000,  0.10000000000E+001
  0.24351000000E+005,  0.41157011707E+006,  0.16500000000E+002,  0.00000000000E+000,  0.10000000000E+001
  0.24411000000E+005,  0.41157011678E+006,  0.16500000000E+002,  0.00000000000E+000,  0.10000000000E+001
  0.24471000000E+005,  0.41157011648E+006,  0.16500000000E+002,  0.00000000000E+000,  0.10000000000E+001
  0.24531000000E+005,  0.41157011618E+006,  0.16500000000E+002,  0.00000000000E+000,  0.10000000000E+001
  0.24591000000E+005,  0.41157011587E+006,  0.16500000000E+002,  0.00000000000E+000,  0.10000000000E+001
  0.24651000000E+005,  0.41157011556E+006,  0.16500000000E+002,  0.00000000000E+000,  0.10000000000E+001
  0.24711000000E+005,  0.41157011524E+006,  0.16500000000E+002,  0.00000000000E+000,  0.10000000000E+001
  0.24771000000E+005,  0.41157011491E+006,  0.16500000000E+002,  0.00000000000E+000,  0.10000000000E+001
  0.24831000000E+005,  0.41157011458E+006,  0.16500000000E+002,  0.00000000000E+000,  0.10000000000E+001
  0.24891000000E+005,  0.41157011425E+006,  0.16500000000E+002,  0.00000000000E+000,  0.10000000000E+001
  0.24951000000E+005,  0.41157011391E+006,  0.16500000000E+002,  0.00000000000E+000,  0.10000000000E+001
  0.25011000000E+005,  0.41157011357E+006,  0.16500000000E+002,  0.00000000000E+000,  0.10000000000E+001
  0.25071000000E+005,  0.41157011323E+006,  0.16500000000E+002,  0.00000000000E+000,  0.10000000000E+001
  0.25131000000E+005,  0.41157011289E+006,  0.16500000000E+002,  0.00000000000E+000,  0.10000000000E+001
  0.25191000000E+005,  0.41157011254E+006,  0.16500000000E+002,  0.00000000000E+000,  0.10000000000E+001
  0.25251000000E+005,  0.41157011219E+006,  0.16500000000E+002,  0.00000000000E+000,  0.10000000000E+001
  0.25311000000E+005,  0.41157011185E+006,  0.16500000000E+002,  0.00000000000E+000,  0.10000000000E+001
  0.25371000000E+005,  0.41157011150E+006,  0.16500000000E+002,  0.00000000000E+000,  0.10000000000E+001
  0.25431000000E+005,  0.41157011115E+006,  0.16500000000E+002,  0.00000000000E+000,  0.10000000000E+001
  0.25491000000E+005,  0.41157011079E+006,  0.16500000000E+002,  0.00000000000E+000,  0.10000000000E+001
  0.25551000000E+005,  0.41157011044E+006,  0.16500000000E+002,  0.00000000000E+000,  0.10000000000E+001
  0.25611000000E+005,  0.41157011009E+006,  0.16500000000E+002,  0.00000000000E+000,  0.10000000000E+001
  0.25671000000E+005,  0.41157010974E+006,  0.16500000000E+002,  0.00000000000E+000,  0.10000000000E+001
  0.25731000000E+005,  0.41157010939E+006,  0.16500000000E+002,  0.00000000000E+000,  0.10000000000E+001
  0.25791000000E+005,  0.41157010904E+006,  0.16500000000E+002,  0.00000000000E+000,  0.10000000000E+001
  0.25851000000E+005,  0.41157010869E+006,  0.16500000000E+002,  0.00000000000E+000,  0.10000000000E+001
  0.25911000000E+005,  0.41157010834E+006,  0.16500000000E+002,  0.00000000000E+000,  0.10000000000E+001
  0.25971000000E+005,  0.41157010799E+006,  0.16500000000E+002,  0.00000000000E+000,  0.10000000000E+001
  0.26031000000E+005,  0.41157010764E+006,  0.16500000000E+002,  0.00000000000E+000,  0.10000000000E+001
  0.26091000000E+005,  0.41157010729E+006,  0.16500000000E+002,  0.00000000000E+000,  0.10000000000E+001
  0.26151000000E+005,  0.41157010695E+006,  0.16500000000E+002,  0.00000000000E+000,  0.10000000000E+001
  0.26211000000E+005,  0.41157010660E+006,  0.16500000000E+002,  0.00000000000E+000,  0.10000000000E+001
  0.26271000000E+005,  0.41157010626E+006,  0.16500000000E+002,  0.00000000000E+000,  0.10000000000E+001
  0.26331000000E+005,  0.41157010592E+006,  0.16500000000E+002,  0.00000000000E+000,  0.10000000000E+001
  0.26391000000E+005,  0.41157010558E+006,  0.16500000000E+002,  0.00000000000E+000,  0.10000000000E+001
  0.26451000000E+005,  0.41157010524E+006,  0.16500000000E+002,  0.00000000000E+000,  0.10000000000E+001
  0.26511000000E+005,  0.41157010490E+006,  0.16500000000E+002,  0.00000000000E+000,  0.10000000000E+001
  0.26571000000E+005,  0.41157010456E+006,  0.16500000000E+002,  0.00000000000E+000,  0.10000000000E+001
  0.26631000000E+005,  0.41157010423E+006,  0.16500000000E+002,  0.00000000000E+000,  0.10000000000E+001
  0.26691000000E+005,  0.41157010390E+006,  0.16500000000E+002,  0.00000000000E+000,  0.10000000000E+001
  0.26751000000E+005,  0.41157010357E+006,  0.16500000000E+002,  0.00000000000E+000,  0.10000000000E+001
  0.26811000000E+005,  0.41157010324E+006,  0.16500000000E+002,  0.00000000000E+000,  0.10000000000E+001
  0.26871000000E+005,  0.41157010291E+006,  0.16500000000E+002,  0.00000000000E+000,  0.10000000000E+001
  0.26931000000E+005,  0.41157010258E+006,  0.16500000000E+002,  0.00000000000E+000,  0.10000000000E+001
  0.26991000000E+005,  0.41157010226E+006,  0.16500000000E+002,  0.00000000000E+000,  0.10000000000E+001
  0.27051000000E+005,  0.41157010194E+006,  0.16500000000E+002,  0.00000000000E+000,  0.10000000000E+001
  0.27111000000E+005,  0.41157010162E+006,  0.16500000000E+002,  0.00000000000E+000,  0.10000000000E+001
  0.27171000000E+005,  0.41157010130E+006,  0.16500000000E+002,  0.00000000000E+000,  0.10000000000E+001
  0.27231000000E+005,  0.41157010098E+006,  0.16500000000E+002,  0.00000000000E+000,  0.10000000000E+001
  0.27291000000E+005,  0.41157010067E+006,  0.16500000000E+002,  0.00000000000E+000,  0.10000000000E+001
  0.27351000000E+005,  0.41157010036E+006,  0.16500000000E+002,  0.00000000000E+000,  0.10000000000E+001
  0.27411000000E+005,  0.41157010005E+006,  0.16500000000E+002,  0.00000000000E+000,  0.10000000000E+001
  0.27471000000E+005,  0.41157009974E+006,  0.16500000000E+002,  0.00000000000E+000,  0.10000000000E+001
  0.27531000000E+005,  0.41157009943E+006,  0.16500000000E+002,  0.00000000000E+000,  0.10000000000E+001
  0.27591000000E+005,  0.41157009913E+006,  0.16500000000E+002,  0.00000000000E+000,  0.10000000000E+001
  0.27651000000E+005,  0.41157009883E+006,  0.16500000000E+002,  0.00000000000E+000,  0.10000000000E+001
  0.27711000000E+005,  0.41157009853E+006,  0.16500000000E+002,  0.00000000000E+000,  0.10000000000E+001
  0.27771000000E+005,  0.41157009823E+006,  0.16500000000E+002,  0.00000000000E+000,  0.10000000000E+001
  0.27831000000E+005,  0.41157009793E+006,  0.16500000000E+002,  0.00000000000E+000,  0.10000000000E+001
  0.27891000000E+005,  0.41157009764E+006,  0.16500000000E+002,  0.00000000000E+000,  0.10000000000E+001
  0.27951000000E+005,  0.41157009735E+006,  0.16500000000E+002,  0.00000000000E+000,  0.10000000000E+001
  0.28011000000E+005,  0.41157009706E+006,  0.16500000000E+002,  0.00000000000E+000,  0.10000000000E+001
  0.28071000000E+005,  0.41157009677E+006,  0.16500000000E+002,  0.00000000000E+000,  0.10000000000E+001
  0.28131000000E+005,  0.41157009648E+006,  0.16500000000E+002,  0.00000000000E+000,  0.10000000000E+001
  0.28191000000E+005,  0.41157009620E+006,  0.16500000000E+002,  0.00000000000E+000,  0.10000000000E+001
  0.28251000000E+005,  0.41157009592E+006,  0.16500000000E+002,  0.00000000000E+000,  0.10000000000E+001
  0.28311000000E+005,  0.41157009563E+006,  0.16500000000E+002,  0.00000000000E+000,  0.10000000000E+001
  0.28371000000E+005,  0.41157009536E+006,  0.16500000000E+002,  0.00000000000E+000,  0.10000000000E+001
  0.28431000000E+005,  0.41157009508E+006,  0.16500000000E+002,  0.00000000000E+000,  0.10000000000E+001
  0.28491000000E+005,  0.41157009481E+006,  0.16500000000E+002,  0.00000000000E+000,  0.10000000000E+001
  0.28551000000E+005,  0.41157009453E+006,  0.16500000000E+002,  0.00000000000E+000,  0.10000000000E+001
  0.28611000000E+005,  0.41157009426E+006,  0.16500000000E+002,  0.00000000000E+000,  0.10000000000E+001
  0.28671000000E+005,  0.41157009399E+006,  0.16500000000E+002,  0.00000000000E+000,  0.10000000000E+001
  0.28731000000E+005,  0.41157009373E+006,  0.16500000000E+002,  0.00000000000E+000,  0.10000000000E+001
  0.28791000000E+005,  0.41157009346E+006,  0.16500000000E+002,  0.00000000000E+000,  0.10000000000E+001
  0.28851000000E+005,  0.41157009320E+006,  0.16500000000E+002,  0.00000000000E+000,  0.10000000000E+001
  0.28911000000E+005,  0.41157009294E+006,  0.16500000000E+002,  0.00000000000E+000,  0.10000000000E+001
  0.28971000000E+005,  0.41157009268E+006,  0.16500000000E+002,  0.00000000000E+000,  0.10000000000E+001
  0.29031000000E+005,  0.41157009242E+006,  0.16500000000E+002,  0.00000000000E+000,  0.10000000000E+001
  0.29091000000E+005,  0.41157009217E+006,  0.16500000000E+002,  0.00000000000E+000,  0.10000000000E+001
  0.29151000000E+005,  0.41157009191E+006,  0.16500000000E+002,  0.00000000000E+000,  0.10000000000E+001
  0.29211000000E+005,  0.41157009166E+006,  0.16500000000E+002,  0.00000000000E+000,  0.10000000000E+001
  0.29271000000E+005,  0.41157009141E+006,  0.16500000000E+002,  0.00000000000E+000,  0.10000000000E+001
  0.29331000000E+005,  0.41157009116E+006,  0.16500000000E+002,  0.00000000000E+000,  0.10000000000E+001
  0.29353750000E+005,  0.41157009107E+006,  0.16500000000E+002,  0.00000000000E+000,  0.10000000000E+001
