"           TIME(S)","              PRES","              TEMP","             SAT_G","             SAT_L"
  0.10000000000E+001,  0.12219880206E+006,  0.16500000000E+002,  0.00000000000E+000,  0.10000000000E+001
  0.60000000000E+001,  0.12219880251E+006,  0.16500000000E+002,  0.00000000000E+000,  0.10000000000E+001
  0.31000000000E+002,  0.12219880426E+006,  0.16500000000E+002,  0.00000000000E+000,  0.10000000000E+001
  0.91000000000E+002,  0.12219880278E+006,  0.16500000000E+002,  0.00000000000E+000,  0.10000000000E+001
  0.15100000000E+003,  0.12219879882E+006,  0.16500000000E+002,  0.00000000000E+000,  0.10000000000E+001
  0.21100000000E+003,  0.12219879459E+006,  0.16500000000E+002,  0.00000000000E+000,  0.10000000000E+001
  0.27100000000E+003,  0.12219879112E+006,  0.16500000000E+002,  0.00000000000E+000,  0.10000000000E+001
  0.33100000000E+003,  0.12219878874E+006,  0.16500000000E+002,  0.00000000000E+000,  0.10000000000E+001
  0.39100000000E+003,  0.12219878751E+006,  0.16500000000E+002,  0.00000000000E+000,  0.10000000000E+001
  0.45100000000E+003,  0.12219878748E+006,  0.16500000000E+002,  0.00000000000E+000,  0.10000000000E+001
  0.51100000000E+003,  0.12219878879E+006,  0.16500000000E+002,  0.00000000000E+000,  0.10000000000E+001
  0.57100000000E+003,  0.12219879182E+006,  0.16500000000E+002,  0.00000000000E+000,  0.10000000000E+001
  0.63100000000E+003,  0.12219879724E+006,  0.16500000000E+002,  0.00000000000E+000,  0.10000000000E+001
  0.69100000000E+003,  0.12219880606E+006,  0.16500000000E+002,  0.00000000000E+000,  0.10000000000E+001
  0.75100000000E+003,  0.12219881977E+006,  0.16500000000E+002,  0.00000000000E+000,  0.10000000000E+001
  0.81100000000E+003,  0.12219884044E+006,  0.16500000000E+002,  0.00000000000E+000,  0.10000000000E+001
  0.87100000000E+003,  0.12219887063E+006,  0.16500000000E+002,  0.00000000000E+000,  0.10000000000E+001
  0.93100000000E+003,  0.12219891342E+006,  0.16500000000E+002,  0.00000000000E+000,  0.10000000000E+001
  0.99100000000E+003,  0.12219897243E+006,  0.16500000000E+002,  0.00000000000E+000,  0.10000000000E+001
  0.10510000000E+004,  0.12219905170E+006,  0.16500000000E+002,  0.00000000000E+000,  0.10000000000E+001
  0.11110000000E+004,  0.12219915644E+006,  0.16500000000E+002,  0.00000000000E+000,  0.10000000000E+001
  0.11710000000E+004,  0.12219929232E+006,  0.16500000000E+002,  0.00000000000E+000,  0.10000000000E+001
  0.12310000000E+004,  0.12219946567E+006,  0.16500000000E+002,  0.00000000000E+000,  0.10000000000E+001
  0.12910000000E+004,  0.12219968349E+006,  0.16500000000E+002,  0.00000000000E+000,  0.10000000000E+001
  0.13510000000E+004,  0.12219995420E+006,  0.16500000000E+002,  0.00000000000E+000,  0.10000000000E+001
  0.14110000000E+004,  0.12220028765E+006,  0.16500000000E+002,  0.00000000000E+000,  0.10000000000E+001
  0.14710000000E+004,  0.12220069414E+006,  0.16500000000E+002,  0.00000000000E+000,  0.10000000000E+001
  0.15310000000E+004,  0.12220118459E+006,  0.16500000000E+002,  0.00000000000E+000,  0.10000000000E+001
  0.15910000000E+004,  0.12220177154E+006,  0.16500000000E+002,  0.00000000000E+000,  0.10000000000E+001
  0.16510000000E+004,  0.12220246867E+006,  0.16500000000E+002,  0.00000000000E+000,  0.10000000000E+001
  0.17110000000E+004,  0.12220329045E+006,  0.16500000000E+002,  0.00000000000E+000,  0.10000000000E+001
  0.17710000000E+004,  0.12220425195E+006,  0.16500000000E+002,  0.00000000000E+000,  0.10000000000E+001
  0.18310000000E+004,  0.12220536882E+006,  0.16500000000E+002,  0.00000000000E+000,  0.10000000000E+001
  0.18910000000E+004,  0.12220665713E+006,  0.16500000000E+002,  0.00000000000E+000,  0.10000000000E+001
  0.19510000000E+004,  0.12220813346E+006,  0.16500000000E+002,  0.00000000000E+000,  0.10000000000E+001
  0.20110000000E+004,  0.12220981485E+006,  0.16500000000E+002,  0.00000000000E+000,  0.10000000000E+001
  0.20710000000E+004,  0.12221171879E+006,  0.16500000000E+002,  0.00000000000E+000,  0.10000000000E+001
  0.21310000000E+004,  0.12221386314E+006,  0.16500000000E+002,  0.00000000000E+000,  0.10000000000E+001
  0.21910000000E+004,  0.12221626610E+006,  0.16500000000E+002,  0.00000000000E+000,  0.10000000000E+001
  0.22510000000E+004,  0.12221894612E+006,  0.16500000000E+002,  0.00000000000E+000,  0.10000000000E+001
  0.23110000000E+004,  0.12222192183E+006,  0.16500000000E+002,  0.00000000000E+000,  0.10000000000E+001
  0.23710000000E+004,  0.12222521201E+006,  0.16500000000E+002,  0.00000000000E+000,  0.10000000000E+001
  0.24310000000E+004,  0.12222883548E+006,  0.16500000000E+002,  0.00000000000E+000,  0.10000000000E+001
  0.24910000000E+004,  0.12223281107E+006,  0.16500000000E+002,  0.00000000000E+000,  0.10000000000E+001
  0.25510000000E+004,  0.12223715757E+006,  0.16500000000E+002,  0.00000000000E+000,  0.10000000000E+001
  0.26110000000E+004,  0.12224189367E+006,  0.16500000000E+002,  0.00000000000E+000,  0.10000000000E+001
  0.26710000000E+004,  0.12224703790E+006,  0.16500000000E+002,  0.00000000000E+000,  0.10000000000E+001
  0.27310000000E+004,  0.12225260861E+006,  0.16500000000E+002,  0.00000000000E+000,  0.10000000000E+001
  0.27910000000E+004,  0.12225862391E+006,  0.16500000000E+002,  0.00000000000E+000,  0.10000000000E+001
  0.28510000000E+004,  0.12226510163E+006,  0.16500000000E+002,  0.00000000000E+000,  0.10000000000E+001
  0.29110000000E+004,  0.12227205929E+006,  0.16500000000E+002,  0.00000000000E+000,  0.10000000000E+001
  0.29710000000E+004,  0.12227951406E+006,  0.16500000000E+002,  0.00000000000E+000,  0.10000000000E+001
  0.30310000000E+004,  0.12228748272E+006,  0.16500000000E+002,  0.00000000000E+000,  0.10000000000E+001
  0.30910000000E+004,  0.12229598168E+006,  0.16500000000E+002,  0.00000000000E+000,  0.10000000000E+001
  0.31510000000E+004,  0.12230502687E+006,  0.16500000000E+002,  0.00000000000E+000,  0.10000000000E+001
  0.32110000000E+004,  0.12231463380E+006,  0.16500000000E+002,  0.00000000000E+000,  0.10000000000E+001
  0.32710000000E+004,  0.12232481749E+006,  0.16500000000E+002,  0.00000000000E+000,  0.10000000000E+001
  0.33310000000E+004,  0.12233559247E+006,  0.16500000000E+002,  0.00000000000E+000,  0.10000000000E+001
  0.33910000000E+004,  0.12234697277E+006,  0.16500000000E+002,  0.00000000000E+000,  0.10000000000E+001
  0.34510000000E+004,  0.12235897189E+006,  0.16500000000E+002,  0.00000000000E+000,  0.10000000000E+001
  0.35110000000E+004,  0.12237160280E+006,  0.16500000000E+002,  0.00000000000E+000,  0.10000000000E+001
  0.35710000000E+004,  0.12238487793E+006,  0.16500000000E+002,  0.00000000000E+000,  0.10000000000E+001
  0.36310000000E+004,  0.12239880916E+006,  0.16500000000E+002,  0.00000000000E+000,  0.10000000000E+001
  0.36910000000E+004,  0.12241340783E+006,  0.16500000000E+002,  0.00000000000E+000,  0.10000000000E+001
  0.37510000000E+004,  0.12242868472E+006,  0.16500000000E+002,  0.00000000000E+000,  0.10000000000E+001
  0.38110000000E+004,  0.12244465004E+006,  0.16500000000E+002,  0.00000000000E+000,  0.10000000000E+001
  0.38710000000E+004,  0.12246131347E+006,  0.16500000000E+002,  0.00000000000E+000,  0.10000000000E+001
  0.39310000000E+004,  0.12247868412E+006,  0.16500000000E+002,  0.00000000000E+000,  0.10000000000E+001
  0.39910000000E+004,  0.12249677054E+006,  0.16500000000E+002,  0.00000000000E+000,  0.10000000000E+001
  0.40510000000E+004,  0.12251558076E+006,  0.16500000000E+002,  0.00000000000E+000,  0.10000000000E+001
  0.41110000000E+004,  0.12253512224E+006,  0.16500000000E+002,  0.00000000000E+000,  0.10000000000E+001
  0.41710000000E+004,  0.12255540193E+006,  0.16500000000E+002,  0.00000000000E+000,  0.10000000000E+001
  0.42310000000E+004,  0.12257642624E+006,  0.16500000000E+002,  0.00000000000E+000,  0.10000000000E+001
  0.42910000000E+004,  0.12259820105E+006,  0.16500000000E+002,  0.00000000000E+000,  0.10000000000E+001
  0.43510000000E+004,  0.12262073175E+006,  0.16500000000E+002,  0.00000000000E+000,  0.10000000000E+001
  0.44110000000E+004,  0.12264402321E+006,  0.16500000000E+002,  0.00000000000E+000,  0.10000000000E+001
  0.44710000000E+004,  0.12266807982E+006,  0.16500000000E+002,  0.00000000000E+000,  0.10000000000E+001
  0.45310000000E+004,  0.12269290547E+006,  0.16500000000E+002,  0.00000000000E+000,  0.10000000000E+001
  0.45910000000E+004,  0.12271850361E+006,  0.16500000000E+002,  0.00000000000E+000,  0.10000000000E+001
  0.46510000000E+004,  0.12274487720E+006,  0.16500000000E+002,  0.00000000000E+000,  0.10000000000E+001
  0.47110000000E+004,  0.12277202876E+006,  0.16500000000E+002,  0.00000000000E+000,  0.10000000000E+001
  0.47710000000E+004,  0.12279996040E+006,  0.16500000000E+002,  0.00000000000E+000,  0.10000000000E+001
  0.48310000000E+004,  0.12282867377E+006,  0.16500000000E+002,  0.00000000000E+000,  0.10000000000E+001
  0.48910000000E+004,  0.12285817013E+006,  0.16500000000E+002,  0.00000000000E+000,  0.10000000000E+001
  0.49510000000E+004,  0.12288845033E+006,  0.16500000000E+002,  0.00000000000E+000,  0.10000000000E+001
  0.50110000000E+004,  0.12291951484E+006,  0.16500000000E+002,  0.00000000000E+000,  0.10000000000E+001
  0.50710000000E+004,  0.12295136375E+006,  0.16500000000E+002,  0.00000000000E+000,  0.10000000000E+001
  0.51310000000E+004,  0.12298399680E+006,  0.16500000000E+002,  0.00000000000E+000,  0.10000000000E+001
  0.51910000000E+004,  0.12301741337E+006,  0.16500000000E+002,  0.00000000000E+000,  0.10000000000E+001
  0.52510000000E+004,  0.12305161249E+006,  0.16500000000E+002,  0.00000000000E+000,  0.10000000000E+001
  0.53110000000E+004,  0.12308659291E+006,  0.16500000000E+002,  0.00000000000E+000,  0.10000000000E+001
  0.53710000000E+004,  0.12312235301E+006,  0.16500000000E+002,  0.00000000000E+000,  0.10000000000E+001
  0.54310000000E+004,  0.12315889091E+006,  0.16500000000E+002,  0.00000000000E+000,  0.10000000000E+001
  0.54910000000E+004,  0.12319620442E+006,  0.16500000000E+002,  0.00000000000E+000,  0.10000000000E+001
  0.55510000000E+004,  0.12323429109E+006,  0.16500000000E+002,  0.00000000000E+000,  0.10000000000E+001
  0.56110000000E+004,  0.12327314820E+006,  0.16500000000E+002,  0.00000000000E+000,  0.10000000000E+001
  0.56710000000E+004,  0.12331277276E+006,  0.16500000000E+002,  0.00000000000E+000,  0.10000000000E+001
  0.57310000000E+004,  0.12335316155E+006,  0.16500000000E+002,  0.00000000000E+000,  0.10000000000E+001
  0.57910000000E+004,  0.12339431113E+006,  0.16500000000E+002,  0.00000000000E+000,  0.10000000000E+001
  0.58510000000E+004,  0.12343621781E+006,  0.16500000000E+002,  0.00000000000E+000,  0.10000000000E+001
  0.59110000000E+004,  0.12347887771E+006,  0.16500000000E+002,  0.00000000000E+000,  0.10000000000E+001
  0.59710000000E+004,  0.12352228674E+006,  0.16500000000E+002,  0.00000000000E+000,  0.10000000000E+001
  0.60310000000E+004,  0.12356644062E+006,  0.16500000000E+002,  0.00000000000E+000,  0.10000000000E+001
  0.60910000000E+004,  0.12361133491E+006,  0.16500000000E+002,  0.00000000000E+000,  0.10000000000E+001
  0.61510000000E+004,  0.12365696496E+006,  0.16500000000E+002,  0.00000000000E+000,  0.10000000000E+001
  0.62110000000E+004,  0.12370332598E+006,  0.16500000000E+002,  0.00000000000E+000,  0.10000000000E+001
  0.62710000000E+004,  0.12375041303E+006,  0.16500000000E+002,  0.00000000000E+000,  0.10000000000E+001
  0.63310000000E+004,  0.12379822101E+006,  0.16500000000E+002,  0.00000000000E+000,  0.10000000000E+001
  0.63910000000E+004,  0.12384674470E+006,  0.16500000000E+002,  0.00000000000E+000,  0.10000000000E+001
  0.64510000000E+004,  0.12389597874E+006,  0.16500000000E+002,  0.00000000000E+000,  0.10000000000E+001
  0.65110000000E+004,  0.12394591765E+006,  0.16500000000E+002,  0.00000000000E+000,  0.10000000000E+001
  0.65710000000E+004,  0.12399655585E+006,  0.16500000000E+002,  0.00000000000E+000,  0.10000000000E+001
  0.66310000000E+004,  0.12404788763E+006,  0.16500000000E+002,  0.00000000000E+000,  0.10000000000E+001
  0.66910000000E+004,  0.12409990721E+006,  0.16500000000E+002,  0.00000000000E+000,  0.10000000000E+001
  0.67510000000E+004,  0.12415260871E+006,  0.16500000000E+002,  0.00000000000E+000,  0.10000000000E+001
  0.68110000000E+004,  0.12420598615E+006,  0.16500000000E+002,  0.00000000000E+000,  0.10000000000E+001
  0.68710000000E+004,  0.12426003348E+006,  0.16500000000E+002,  0.00000000000E+000,  0.10000000000E+001
  0.69310000000E+004,  0.12431474460E+006,  0.16500000000E+002,  0.00000000000E+000,  0.10000000000E+001
  0.69910000000E+004,  0.12437011332E+006,  0.16500000000E+002,  0.00000000000E+000,  0.10000000000E+001
  0.70510000000E+004,  0.12442613338E+006,  0.16500000000E+002,  0.00000000000E+000,  0.10000000000E+001
  0.71110000000E+004,  0.12448279851E+006,  0.16500000000E+002,  0.00000000000E+000,  0.10000000000E+001
  0.71710000000E+004,  0.12454010234E+006,  0.16500000000E+002,  0.00000000000E+000,  0.10000000000E+001
  0.72310000000E+004,  0.12459803849E+006,  0.16500000000E+002,  0.00000000000E+000,  0.10000000000E+001
  0.72910000000E+004,  0.12465660054E+006,  0.16500000000E+002,  0.00000000000E+000,  0.10000000000E+001
  0.73510000000E+004,  0.12471578201E+006,  0.16500000000E+002,  0.00000000000E+000,  0.10000000000E+001
  0.74110000000E+004,  0.12477557642E+006,  0.16500000000E+002,  0.00000000000E+000,  0.10000000000E+001
  0.74710000000E+004,  0.12483597725E+006,  0.16500000000E+002,  0.00000000000E+000,  0.10000000000E+001
  0.75310000000E+004,  0.12489697797E+006,  0.16500000000E+002,  0.00000000000E+000,  0.10000000000E+001
  0.75910000000E+004,  0.12495857200E+006,  0.16500000000E+002,  0.00000000000E+000,  0.10000000000E+001
  0.76510000000E+004,  0.12502075280E+006,  0.16500000000E+002,  0.00000000000E+000,  0.10000000000E+001
  0.77110000000E+004,  0.12508351377E+006,  0.16500000000E+002,  0.00000000000E+000,  0.10000000000E+001
  0.77710000000E+004,  0.12514684834E+006,  0.16500000000E+002,  0.00000000000E+000,  0.10000000000E+001
  0.78310000000E+004,  0.12521074993E+006,  0.16500000000E+002,  0.00000000000E+000,  0.10000000000E+001
  0.78910000000E+004,  0.12527521193E+006,  0.16500000000E+002,  0.00000000000E+000,  0.10000000000E+001
  0.79510000000E+004,  0.12534022778E+006,  0.16500000000E+002,  0.00000000000E+000,  0.10000000000E+001
  0.80110000000E+004,  0.12540579089E+006,  0.16500000000E+002,  0.00000000000E+000,  0.10000000000E+001
  0.80710000000E+004,  0.12547189470E+006,  0.16500000000E+002,  0.00000000000E+000,  0.10000000000E+001
  0.81310000000E+004,  0.12553853266E+006,  0.16500000000E+002,  0.00000000000E+000,  0.10000000000E+001
  0.81910000000E+004,  0.12560569822E+006,  0.16500000000E+002,  0.00000000000E+000,  0.10000000000E+001
  0.82510000000E+004,  0.12567338485E+006,  0.16500000000E+002,  0.00000000000E+000,  0.10000000000E+001
  0.83110000000E+004,  0.12574158606E+006,  0.16500000000E+002,  0.00000000000E+000,  0.10000000000E+001
  0.83710000000E+004,  0.12581029536E+006,  0.16500000000E+002,  0.00000000000E+000,  0.10000000000E+001
  0.84310000000E+004,  0.12587950628E+006,  0.16500000000E+002,  0.00000000000E+000,  0.10000000000E+001
  0.84910000000E+004,  0.12594921239E+006,  0.16500000000E+002,  0.00000000000E+000,  0.10000000000E+001
  0.85510000000E+004,  0.12601940728E+006,  0.16500000000E+002,  0.00000000000E+000,  0.10000000000E+001
  0.86110000000E+004,  0.12609008457E+006,  0.16500000000E+002,  0.00000000000E+000,  0.10000000000E+001
  0.86710000000E+004,  0.12616123790E+006,  0.16500000000E+002,  0.00000000000E+000,  0.10000000000E+001
  0.87310000000E+004,  0.12623286095E+006,  0.16500000000E+002,  0.00000000000E+000,  0.10000000000E+001
  0.87910000000E+004,  0.12630494744E+006,  0.16500000000E+002,  0.00000000000E+000,  0.10000000000E+001
  0.88510000000E+004,  0.12637749112E+006,  0.16500000000E+002,  0.00000000000E+000,  0.10000000000E+001
  0.89110000000E+004,  0.12645048576E+006,  0.16500000000E+002,  0.00000000000E+000,  0.10000000000E+001
  0.89710000000E+004,  0.12652392518E+006,  0.16500000000E+002,  0.00000000000E+000,  0.10000000000E+001
  0.90310000000E+004,  0.12659780324E+006,  0.16500000000E+002,  0.00000000000E+000,  0.10000000000E+001
  0.90910000000E+004,  0.12667211384E+006,  0.16500000000E+002,  0.00000000000E+000,  0.10000000000E+001
  0.91510000000E+004,  0.12674685090E+006,  0.16500000000E+002,  0.00000000000E+000,  0.10000000000E+001
  0.92110000000E+004,  0.12682200841E+006,  0.16500000000E+002,  0.00000000000E+000,  0.10000000000E+001
  0.92710000000E+004,  0.12689758038E+006,  0.16500000000E+002,  0.00000000000E+000,  0.10000000000E+001
  0.93310000000E+004,  0.12697356088E+006,  0.16500000000E+002,  0.00000000000E+000,  0.10000000000E+001
  0.93910000000E+004,  0.12704994400E+006,  0.16500000000E+002,  0.00000000000E+000,  0.10000000000E+001
  0.94510000000E+004,  0.12712672389E+006,  0.16500000000E+002,  0.00000000000E+000,  0.10000000000E+001
  0.95110000000E+004,  0.12720389474E+006,  0.16500000000E+002,  0.00000000000E+000,  0.10000000000E+001
  0.95710000000E+004,  0.12728145079E+006,  0.16500000000E+002,  0.00000000000E+000,  0.10000000000E+001
  0.96310000000E+004,  0.12735938631E+006,  0.16500000000E+002,  0.00000000000E+000,  0.10000000000E+001
  0.96910000000E+004,  0.12743769564E+006,  0.16500000000E+002,  0.00000000000E+000,  0.10000000000E+001
  0.97510000000E+004,  0.12751637315E+006,  0.16500000000E+002,  0.00000000000E+000,  0.10000000000E+001
  0.98110000000E+004,  0.12759541325E+006,  0.16500000000E+002,  0.00000000000E+000,  0.10000000000E+001
  0.98710000000E+004,  0.12767481042E+006,  0.16500000000E+002,  0.00000000000E+000,  0.10000000000E+001
  0.99310000000E+004,  0.12775455916E+006,  0.16500000000E+002,  0.00000000000E+000,  0.10000000000E+001
  0.99910000000E+004,  0.12783465404E+006,  0.16500000000E+002,  0.00000000000E+000,  0.10000000000E+001
  0.10051000000E+005,  0.12791508967E+006,  0.16500000000E+002,  0.00000000000E+000,  0.10000000000E+001
  0.10111000000E+005,  0.12799586071E+006,  0.16500000000E+002,  0.00000000000E+000,  0.10000000000E+001
  0.10171000000E+005,  0.12807696185E+006,  0.16500000000E+002,  0.00000000000E+000,  0.10000000000E+001
  0.10231000000E+005,  0.12815838786E+006,  0.16500000000E+002,  0.00000000000E+000,  0.10000000000E+001
  0.10291000000E+005,  0.12824013353E+006,  0.16500000000E+002,  0.00000000000E+000,  0.10000000000E+001
  0.10351000000E+005,  0.12832219372E+006,  0.16500000000E+002,  0.00000000000E+000,  0.10000000000E+001
  0.10411000000E+005,  0.12840456332E+006,  0.16500000000E+002,  0.00000000000E+000,  0.10000000000E+001
  0.10471000000E+005,  0.12848723728E+006,  0.16500000000E+002,  0.00000000000E+000,  0.10000000000E+001
  0.10531000000E+005,  0.12857021061E+006,  0.16500000000E+002,  0.00000000000E+000,  0.10000000000E+001
  0.10591000000E+005,  0.12865347833E+006,  0.16500000000E+002,  0.00000000000E+000,  0.10000000000E+001
  0.10651000000E+005,  0.12873703555E+006,  0.16500000000E+002,  0.00000000000E+000,  0.10000000000E+001
  0.10711000000E+005,  0.12882087740E+006,  0.16500000000E+002,  0.00000000000E+000,  0.10000000000E+001
  0.10771000000E+005,  0.12890499908E+006,  0.16500000000E+002,  0.00000000000E+000,  0.10000000000E+001
  0.10831000000E+005,  0.12898939583E+006,  0.16500000000E+002,  0.00000000000E+000,  0.10000000000E+001
  0.10891000000E+005,  0.12907406292E+006,  0.16500000000E+002,  0.00000000000E+000,  0.10000000000E+001
  0.10951000000E+005,  0.12915899569E+006,  0.16500000000E+002,  0.00000000000E+000,  0.10000000000E+001
  0.11011000000E+005,  0.12924418952E+006,  0.16500000000E+002,  0.00000000000E+000,  0.10000000000E+001
  0.11071000000E+005,  0.12932963984E+006,  0.16500000000E+002,  0.00000000000E+000,  0.10000000000E+001
  0.11131000000E+005,  0.12941534213E+006,  0.16500000000E+002,  0.00000000000E+000,  0.10000000000E+001
  0.11191000000E+005,  0.12950129191E+006,  0.16500000000E+002,  0.00000000000E+000,  0.10000000000E+001
