"           TIME(S)","              PRES","              TEMP","             SAT_G","             SAT_L"
  0.94860000000E+005,  0.99606484261E+006,  0.16500000000E+002,  0.00000000000E+000,  0.10000000000E+001
  0.94870000000E+005,  0.99606484270E+006,  0.16500000000E+002,  0.00000000000E+000,  0.10000000000E+001
  0.94872000000E+005,  0.99606484276E+006,  0.16500000000E+002,  0.00000000000E+000,  0.10000000000E+001
  0.94874500000E+005,  0.99606484278E+006,  0.16500000000E+002,  0.00000000000E+000,  0.10000000000E+001
  0.94877000000E+005,  0.99606484279E+006,  0.16500000000E+002,  0.00000000000E+000,  0.10000000000E+001
  0.94879500000E+005,  0.99606484279E+006,  0.16500000000E+002,  0.00000000000E+000,  0.10000000000E+001
  0.94882000000E+005,  0.12701528974E+007,  0.16500000000E+002,  0.00000000000E+000,  0.10000000000E+001
  0.94884500000E+005,  0.28243043815E+007,  0.16500000000E+002,  0.00000000000E+000,  0.10000000000E+001
  0.94887000000E+005,  0.43645018002E+007,  0.16500000000E+002,  0.00000000000E+000,  0.10000000000E+001
  0.94889500000E+005,  0.58912502714E+007,  0.16500000000E+002,  0.00000000000E+000,  0.10000000000E+001
  0.94892000000E+005,  0.74049579092E+007,  0.16500000000E+002,  0.00000000000E+000,  0.10000000000E+001
  0.94894500000E+005,  0.89059667898E+007,  0.16500000000E+002,  0.00000000000E+000,  0.10000000000E+001
  0.94897000000E+005,  0.10394573506E+008,  0.16500000000E+002,  0.00000000000E+000,  0.10000000000E+001
  0.94899500000E+005,  0.11871042772E+008,  0.16500000000E+002,  0.00000000000E+000,  0.10000000000E+001
  0.94902000000E+005,  0.13335616446E+008,  0.16500000000E+002,  0.00000000000E+000,  0.10000000000E+001
  0.94904500000E+005,  0.14788519531E+008,  0.16500000000E+002,  0.00000000000E+000,  0.10000000000E+001
  0.94907000000E+005,  0.16229964182E+008,  0.16500000000E+002,  0.00000000000E+000,  0.10000000000E+001
  0.94909500000E+005,  0.17660152411E+008,  0.16500000000E+002,  0.00000000000E+000,  0.10000000000E+001
  0.94912000000E+005,  0.19079277914E+008,  0.16500000000E+002,  0.00000000000E+000,  0.10000000000E+001
  0.94914500000E+005,  0.20492576164E+008,  0.16500000000E+002,  0.00000000000E+000,  0.10000000000E+001
  0.94917000000E+005,  0.22547894832E+008,  0.16500000000E+002,  0.00000000000E+000,  0.10000000000E+001
  0.94919500000E+005,  0.24105321894E+008,  0.16500000000E+002,  0.00000000000E+000,  0.10000000000E+001
  0.94922000000E+005,  0.25533787249E+008,  0.16500000000E+002,  0.00000000000E+000,  0.10000000000E+001
  0.94924500000E+005,  0.27202317854E+008,  0.16500000000E+002,  0.00000000000E+000,  0.10000000000E+001
  0.94927000000E+005,  0.29281163602E+008,  0.16500000000E+002,  0.00000000000E+000,  0.10000000000E+001
  0.94929500000E+005,  0.32089939059E+008,  0.16500000000E+002,  0.00000000000E+000,  0.10000000000E+001
  0.94932000000E+005,  0.36547449545E+008,  0.16500000000E+002,  0.00000000000E+000,  0.10000000000E+001
  0.94934500000E+005,  0.42798612217E+008,  0.16500000000E+002,  0.00000000000E+000,  0.10000000000E+001
  0.94937000000E+005,  0.49162076240E+008,  0.16500000000E+002,  0.00000000000E+000,  0.10000000000E+001
  0.94939500000E+005,  0.55450895893E+008,  0.16500000000E+002,  0.00000000000E+000,  0.10000000000E+001
  0.94942000000E+005,  0.61667123166E+008,  0.16500000000E+002,  0.00000000000E+000,  0.10000000000E+001
  0.94944500000E+005,  0.67812627995E+008,  0.16500000000E+002,  0.00000000000E+000,  0.10000000000E+001
  0.94947000000E+005,  0.74743309046E+008,  0.16500000000E+002,  0.00000000000E+000,  0.10000000000E+001
  0.94949500000E+005,  0.82030941677E+008,  0.16500000000E+002,  0.00000000000E+000,  0.10000000000E+001
  0.94952000000E+005,  0.88927895227E+008,  0.16500000000E+002,  0.00000000000E+000,  0.10000000000E+001
  0.94954500000E+005,  0.95797800295E+008,  0.16500000000E+002,  0.00000000000E+000,  0.10000000000E+001
  0.94954812500E+005,  0.96622503063E+008,  0.16500000000E+002,  0.00000000000E+000,  0.10000000000E+001
  0.94955007812E+005,  0.97132371368E+008,  0.16500000000E+002,  0.00000000000E+000,  0.10000000000E+001
  0.94955984375E+005,  0.99672339770E+008,  0.16500000000E+002,  0.00000000000E+000,  0.10000000000E+001
  0.94956023438E+005,  0.99773836217E+008,  0.16500000000E+002,  0.00000000000E+000,  0.10000000000E+001
  0.94956047852E+005,  0.99837262914E+008,  0.16500000000E+002,  0.00000000000E+000,  0.10000000000E+001
  0.94956063110E+005,  0.99876901048E+008,  0.16500000000E+002,  0.00000000000E+000,  0.10000000000E+001
  0.94956072647E+005,  0.99901673656E+008,  0.16500000000E+002,  0.00000000000E+000,  0.10000000000E+001
  0.94956078608E+005,  0.99917156018E+008,  0.16500000000E+002,  0.00000000000E+000,  0.10000000000E+001
  0.94956082333E+005,  0.99926832290E+008,  0.16500000000E+002,  0.00000000000E+000,  0.10000000000E+001
  0.94956100959E+005,  0.99975210886E+008,  0.16500000000E+002,  0.00000000000E+000,  0.10000000000E+001
  0.94956102414E+005,  0.99978990317E+008,  0.16500000000E+002,  0.00000000000E+000,  0.10000000000E+001
  0.94956103324E+005,  0.99981352448E+008,  0.16500000000E+002,  0.00000000000E+000,  0.10000000000E+001
  0.94956103892E+005,  0.99982828774E+008,  0.16500000000E+002,  0.00000000000E+000,  0.10000000000E+001
  0.94956106735E+005,  0.99990210334E+008,  0.16500000000E+002,  0.00000000000E+000,  0.10000000000E+001
  0.94956106957E+005,  0.99990787017E+008,  0.16500000000E+002,  0.00000000000E+000,  0.10000000000E+001
  0.94956107095E+005,  0.99991147444E+008,  0.16500000000E+002,  0.00000000000E+000,  0.10000000000E+001
  0.94956107182E+005,  0.99991372710E+008,  0.16500000000E+002,  0.00000000000E+000,  0.10000000000E+001
  0.94956107236E+005,  0.99991513502E+008,  0.16500000000E+002,  0.00000000000E+000,  0.10000000000E+001
  0.94956107270E+005,  0.99991601497E+008,  0.16500000000E+002,  0.00000000000E+000,  0.10000000000E+001
  0.94956107291E+005,  0.99991656494E+008,  0.16500000000E+002,  0.00000000000E+000,  0.10000000000E+001
  0.94956107305E+005,  0.99991690867E+008,  0.16500000000E+002,  0.00000000000E+000,  0.10000000000E+001
  0.94956107371E+005,  0.99991862732E+008,  0.16500000000E+002,  0.00000000000E+000,  0.10000000000E+001
  0.94956107376E+005,  0.99991862732E+008,  0.16500000000E+002,  0.00000000000E+000,  0.10000000000E+001
  0.94956107379E+005,  0.99991862732E+008,  0.16500000000E+002,  0.00000000000E+000,  0.10000000000E+001
  0.94956107381E+005,  0.99991862732E+008,  0.16500000000E+002,  0.00000000000E+000,  0.10000000000E+001
