"           TIME(S)","              PRES","              TEMP","             SAT_G","             SAT_L"
  0.10000000000E+001,  0.58898636260E+006,  0.16500000000E+002,  0.00000000000E+000,  0.10000000000E+001
  0.60000000000E+001,  0.58898847436E+006,  0.16500000000E+002,  0.00000000000E+000,  0.10000000000E+001
  0.31000000000E+002,  0.58953641002E+006,  0.16500000000E+002,  0.00000000000E+000,  0.10000000000E+001
  0.91000000000E+002,  0.59294494008E+006,  0.16500000000E+002,  0.00000000000E+000,  0.10000000000E+001
  0.15100000000E+003,  0.59682191610E+006,  0.16500000000E+002,  0.00000000000E+000,  0.10000000000E+001
  0.21100000000E+003,  0.60040217280E+006,  0.16500000000E+002,  0.00000000000E+000,  0.10000000000E+001
  0.27100000000E+003,  0.60346782488E+006,  0.16500000000E+002,  0.00000000000E+000,  0.10000000000E+001
  0.33100000000E+003,  0.60602440322E+006,  0.16500000000E+002,  0.00000000000E+000,  0.10000000000E+001
  0.39100000000E+003,  0.60814484488E+006,  0.16500000000E+002,  0.00000000000E+000,  0.10000000000E+001
  0.45100000000E+003,  0.60991049755E+006,  0.16500000000E+002,  0.00000000000E+000,  0.10000000000E+001
  0.51100000000E+003,  0.61139279913E+006,  0.16500000000E+002,  0.00000000000E+000,  0.10000000000E+001
  0.57100000000E+003,  0.61264970711E+006,  0.16500000000E+002,  0.00000000000E+000,  0.10000000000E+001
  0.63100000000E+003,  0.61372652776E+006,  0.16500000000E+002,  0.00000000000E+000,  0.10000000000E+001
  0.69100000000E+003,  0.61465832570E+006,  0.16500000000E+002,  0.00000000000E+000,  0.10000000000E+001
  0.75100000000E+003,  0.61547233260E+006,  0.16500000000E+002,  0.00000000000E+000,  0.10000000000E+001
  0.81100000000E+003,  0.61618978461E+006,  0.16500000000E+002,  0.00000000000E+000,  0.10000000000E+001
  0.87100000000E+003,  0.61682724878E+006,  0.16500000000E+002,  0.00000000000E+000,  0.10000000000E+001
  0.93100000000E+003,  0.61739784517E+006,  0.16500000000E+002,  0.00000000000E+000,  0.10000000000E+001
  0.99100000000E+003,  0.61791203226E+006,  0.16500000000E+002,  0.00000000000E+000,  0.10000000000E+001
  0.10510000000E+004,  0.61837825279E+006,  0.16500000000E+002,  0.00000000000E+000,  0.10000000000E+001
  0.11110000000E+004,  0.61880333412E+006,  0.16500000000E+002,  0.00000000000E+000,  0.10000000000E+001
  0.11710000000E+004,  0.61919289541E+006,  0.16500000000E+002,  0.00000000000E+000,  0.10000000000E+001
  0.12310000000E+004,  0.61955155058E+006,  0.16500000000E+002,  0.00000000000E+000,  0.10000000000E+001
  0.12910000000E+004,  0.61988316795E+006,  0.16500000000E+002,  0.00000000000E+000,  0.10000000000E+001
  0.13510000000E+004,  0.62019099346E+006,  0.16500000000E+002,  0.00000000000E+000,  0.10000000000E+001
  0.14110000000E+004,  0.62047776950E+006,  0.16500000000E+002,  0.00000000000E+000,  0.10000000000E+001
  0.14710000000E+004,  0.62074582635E+006,  0.16500000000E+002,  0.00000000000E+000,  0.10000000000E+001
  0.15310000000E+004,  0.62099716055E+006,  0.16500000000E+002,  0.00000000000E+000,  0.10000000000E+001
  0.15910000000E+004,  0.62123347781E+006,  0.16500000000E+002,  0.00000000000E+000,  0.10000000000E+001
  0.16510000000E+004,  0.62145625919E+006,  0.16500000000E+002,  0.00000000000E+000,  0.10000000000E+001
  0.17110000000E+004,  0.62166679623E+006,  0.16500000000E+002,  0.00000000000E+000,  0.10000000000E+001
  0.17710000000E+004,  0.62186621973E+006,  0.16500000000E+002,  0.00000000000E+000,  0.10000000000E+001
  0.18310000000E+004,  0.62205552027E+006,  0.16500000000E+002,  0.00000000000E+000,  0.10000000000E+001
  0.18910000000E+004,  0.62223558109E+006,  0.16500000000E+002,  0.00000000000E+000,  0.10000000000E+001
  0.19510000000E+004,  0.62240716602E+006,  0.16500000000E+002,  0.00000000000E+000,  0.10000000000E+001
  0.20110000000E+004,  0.62257096742E+006,  0.16500000000E+002,  0.00000000000E+000,  0.10000000000E+001
  0.20710000000E+004,  0.62272760122E+006,  0.16500000000E+002,  0.00000000000E+000,  0.10000000000E+001
  0.21310000000E+004,  0.62287762212E+006,  0.16500000000E+002,  0.00000000000E+000,  0.10000000000E+001
  0.21910000000E+004,  0.62302152875E+006,  0.16500000000E+002,  0.00000000000E+000,  0.10000000000E+001
  0.22510000000E+004,  0.62315976749E+006,  0.16500000000E+002,  0.00000000000E+000,  0.10000000000E+001
  0.23110000000E+004,  0.62329274227E+006,  0.16500000000E+002,  0.00000000000E+000,  0.10000000000E+001
  0.23710000000E+004,  0.62342081170E+006,  0.16500000000E+002,  0.00000000000E+000,  0.10000000000E+001
  0.24310000000E+004,  0.62354430545E+006,  0.16500000000E+002,  0.00000000000E+000,  0.10000000000E+001
  0.24910000000E+004,  0.62366351603E+006,  0.16500000000E+002,  0.00000000000E+000,  0.10000000000E+001
  0.25510000000E+004,  0.62377871669E+006,  0.16500000000E+002,  0.00000000000E+000,  0.10000000000E+001
  0.26110000000E+004,  0.62389015535E+006,  0.16500000000E+002,  0.00000000000E+000,  0.10000000000E+001
  0.26710000000E+004,  0.62399805554E+006,  0.16500000000E+002,  0.00000000000E+000,  0.10000000000E+001
  0.27310000000E+004,  0.62410262716E+006,  0.16500000000E+002,  0.00000000000E+000,  0.10000000000E+001
  0.27910000000E+004,  0.62420406152E+006,  0.16500000000E+002,  0.00000000000E+000,  0.10000000000E+001
  0.28510000000E+004,  0.62430253551E+006,  0.16500000000E+002,  0.00000000000E+000,  0.10000000000E+001
  0.29110000000E+004,  0.62439821200E+006,  0.16500000000E+002,  0.00000000000E+000,  0.10000000000E+001
  0.29710000000E+004,  0.62449124283E+006,  0.16500000000E+002,  0.00000000000E+000,  0.10000000000E+001
  0.30310000000E+004,  0.62458176613E+006,  0.16500000000E+002,  0.00000000000E+000,  0.10000000000E+001
  0.30910000000E+004,  0.62466991239E+006,  0.16500000000E+002,  0.00000000000E+000,  0.10000000000E+001
  0.31510000000E+004,  0.62475580025E+006,  0.16500000000E+002,  0.00000000000E+000,  0.10000000000E+001
  0.32110000000E+004,  0.62483954017E+006,  0.16500000000E+002,  0.00000000000E+000,  0.10000000000E+001
  0.32710000000E+004,  0.62492123586E+006,  0.16500000000E+002,  0.00000000000E+000,  0.10000000000E+001
  0.33310000000E+004,  0.62500098221E+006,  0.16500000000E+002,  0.00000000000E+000,  0.10000000000E+001
  0.33910000000E+004,  0.62507886842E+006,  0.16500000000E+002,  0.00000000000E+000,  0.10000000000E+001
  0.34510000000E+004,  0.62515497635E+006,  0.16500000000E+002,  0.00000000000E+000,  0.10000000000E+001
  0.35110000000E+004,  0.62522938365E+006,  0.16500000000E+002,  0.00000000000E+000,  0.10000000000E+001
  0.35710000000E+004,  0.62530216231E+006,  0.16500000000E+002,  0.00000000000E+000,  0.10000000000E+001
  0.36310000000E+004,  0.62537337987E+006,  0.16500000000E+002,  0.00000000000E+000,  0.10000000000E+001
  0.36910000000E+004,  0.62544310063E+006,  0.16500000000E+002,  0.00000000000E+000,  0.10000000000E+001
  0.37510000000E+004,  0.62551138421E+006,  0.16500000000E+002,  0.00000000000E+000,  0.10000000000E+001
  0.38110000000E+004,  0.62557828841E+006,  0.16500000000E+002,  0.00000000000E+000,  0.10000000000E+001
  0.38710000000E+004,  0.62564386402E+006,  0.16500000000E+002,  0.00000000000E+000,  0.10000000000E+001
  0.39310000000E+004,  0.62570816328E+006,  0.16500000000E+002,  0.00000000000E+000,  0.10000000000E+001
  0.39910000000E+004,  0.62577123421E+006,  0.16500000000E+002,  0.00000000000E+000,  0.10000000000E+001
  0.40510000000E+004,  0.62583312357E+006,  0.16500000000E+002,  0.00000000000E+000,  0.10000000000E+001
  0.41110000000E+004,  0.62589387450E+006,  0.16500000000E+002,  0.00000000000E+000,  0.10000000000E+001
  0.41710000000E+004,  0.62595352888E+006,  0.16500000000E+002,  0.00000000000E+000,  0.10000000000E+001
  0.42310000000E+004,  0.62601212471E+006,  0.16500000000E+002,  0.00000000000E+000,  0.10000000000E+001
  0.42910000000E+004,  0.62606969844E+006,  0.16500000000E+002,  0.00000000000E+000,  0.10000000000E+001
  0.43510000000E+004,  0.62612628505E+006,  0.16500000000E+002,  0.00000000000E+000,  0.10000000000E+001
  0.44110000000E+004,  0.62618191714E+006,  0.16500000000E+002,  0.00000000000E+000,  0.10000000000E+001
  0.44710000000E+004,  0.62623662538E+006,  0.16500000000E+002,  0.00000000000E+000,  0.10000000000E+001
  0.45310000000E+004,  0.62629043975E+006,  0.16500000000E+002,  0.00000000000E+000,  0.10000000000E+001
  0.45910000000E+004,  0.62634338738E+006,  0.16500000000E+002,  0.00000000000E+000,  0.10000000000E+001
  0.46510000000E+004,  0.62639549260E+006,  0.16500000000E+002,  0.00000000000E+000,  0.10000000000E+001
  0.47110000000E+004,  0.62644678213E+006,  0.16500000000E+002,  0.00000000000E+000,  0.10000000000E+001
  0.47710000000E+004,  0.62649727985E+006,  0.16500000000E+002,  0.00000000000E+000,  0.10000000000E+001
  0.48310000000E+004,  0.62654701020E+006,  0.16500000000E+002,  0.00000000000E+000,  0.10000000000E+001
  0.48910000000E+004,  0.62659599667E+006,  0.16500000000E+002,  0.00000000000E+000,  0.10000000000E+001
  0.49510000000E+004,  0.62664426087E+006,  0.16500000000E+002,  0.00000000000E+000,  0.10000000000E+001
  0.50110000000E+004,  0.62669182489E+006,  0.16500000000E+002,  0.00000000000E+000,  0.10000000000E+001
  0.50710000000E+004,  0.62673870799E+006,  0.16500000000E+002,  0.00000000000E+000,  0.10000000000E+001
  0.51310000000E+004,  0.62678492880E+006,  0.16500000000E+002,  0.00000000000E+000,  0.10000000000E+001
  0.51910000000E+004,  0.62683050617E+006,  0.16500000000E+002,  0.00000000000E+000,  0.10000000000E+001
  0.52510000000E+004,  0.62687545613E+006,  0.16500000000E+002,  0.00000000000E+000,  0.10000000000E+001
  0.53110000000E+004,  0.62691979594E+006,  0.16500000000E+002,  0.00000000000E+000,  0.10000000000E+001
  0.53710000000E+004,  0.62696354099E+006,  0.16500000000E+002,  0.00000000000E+000,  0.10000000000E+001
  0.54310000000E+004,  0.62700670675E+006,  0.16500000000E+002,  0.00000000000E+000,  0.10000000000E+001
  0.54910000000E+004,  0.62704930732E+006,  0.16500000000E+002,  0.00000000000E+000,  0.10000000000E+001
  0.55510000000E+004,  0.62709135754E+006,  0.16500000000E+002,  0.00000000000E+000,  0.10000000000E+001
  0.56110000000E+004,  0.62713287094E+006,  0.16500000000E+002,  0.00000000000E+000,  0.10000000000E+001
  0.56710000000E+004,  0.62717386067E+006,  0.16500000000E+002,  0.00000000000E+000,  0.10000000000E+001
  0.57310000000E+004,  0.62721433939E+006,  0.16500000000E+002,  0.00000000000E+000,  0.10000000000E+001
  0.57910000000E+004,  0.62725431908E+006,  0.16500000000E+002,  0.00000000000E+000,  0.10000000000E+001
  0.58510000000E+004,  0.62729381152E+006,  0.16500000000E+002,  0.00000000000E+000,  0.10000000000E+001
  0.59110000000E+004,  0.62733282766E+006,  0.16500000000E+002,  0.00000000000E+000,  0.10000000000E+001
  0.59710000000E+004,  0.62737137825E+006,  0.16500000000E+002,  0.00000000000E+000,  0.10000000000E+001
  0.60310000000E+004,  0.62741003945E+006,  0.16500000000E+002,  0.00000000000E+000,  0.10000000000E+001
  0.60910000000E+004,  0.62744909926E+006,  0.16500000000E+002,  0.00000000000E+000,  0.10000000000E+001
  0.61510000000E+004,  0.62748804982E+006,  0.16500000000E+002,  0.00000000000E+000,  0.10000000000E+001
  0.62110000000E+004,  0.62752650986E+006,  0.16500000000E+002,  0.00000000000E+000,  0.10000000000E+001
  0.62710000000E+004,  0.62756434011E+006,  0.16500000000E+002,  0.00000000000E+000,  0.10000000000E+001
  0.63310000000E+004,  0.62760152937E+006,  0.16500000000E+002,  0.00000000000E+000,  0.10000000000E+001
  0.63910000000E+004,  0.62763811261E+006,  0.16500000000E+002,  0.00000000000E+000,  0.10000000000E+001
  0.64510000000E+004,  0.62767413447E+006,  0.16500000000E+002,  0.00000000000E+000,  0.10000000000E+001
  0.65110000000E+004,  0.62770963706E+006,  0.16500000000E+002,  0.00000000000E+000,  0.10000000000E+001
  0.65710000000E+004,  0.62774465595E+006,  0.16500000000E+002,  0.00000000000E+000,  0.10000000000E+001
  0.66310000000E+004,  0.62777922082E+006,  0.16500000000E+002,  0.00000000000E+000,  0.10000000000E+001
  0.66910000000E+004,  0.62781335617E+006,  0.16500000000E+002,  0.00000000000E+000,  0.10000000000E+001
  0.67510000000E+004,  0.62784708239E+006,  0.16500000000E+002,  0.00000000000E+000,  0.10000000000E+001
  0.68110000000E+004,  0.62788041669E+006,  0.16500000000E+002,  0.00000000000E+000,  0.10000000000E+001
  0.68710000000E+004,  0.62791337382E+006,  0.16500000000E+002,  0.00000000000E+000,  0.10000000000E+001
  0.69310000000E+004,  0.62794596664E+006,  0.16500000000E+002,  0.00000000000E+000,  0.10000000000E+001
  0.69910000000E+004,  0.62797820651E+006,  0.16500000000E+002,  0.00000000000E+000,  0.10000000000E+001
  0.70510000000E+004,  0.62801010370E+006,  0.16500000000E+002,  0.00000000000E+000,  0.10000000000E+001
  0.71110000000E+004,  0.62804166723E+006,  0.16500000000E+002,  0.00000000000E+000,  0.10000000000E+001
  0.71710000000E+004,  0.62807290575E+006,  0.16500000000E+002,  0.00000000000E+000,  0.10000000000E+001
  0.72310000000E+004,  0.62810382707E+006,  0.16500000000E+002,  0.00000000000E+000,  0.10000000000E+001
  0.72910000000E+004,  0.62813443864E+006,  0.16500000000E+002,  0.00000000000E+000,  0.10000000000E+001
  0.73510000000E+004,  0.62816474748E+006,  0.16500000000E+002,  0.00000000000E+000,  0.10000000000E+001
  0.74110000000E+004,  0.62819476019E+006,  0.16500000000E+002,  0.00000000000E+000,  0.10000000000E+001
  0.74710000000E+004,  0.62822448301E+006,  0.16500000000E+002,  0.00000000000E+000,  0.10000000000E+001
  0.75310000000E+004,  0.62825392188E+006,  0.16500000000E+002,  0.00000000000E+000,  0.10000000000E+001
  0.75910000000E+004,  0.62828308248E+006,  0.16500000000E+002,  0.00000000000E+000,  0.10000000000E+001
  0.76510000000E+004,  0.62831197024E+006,  0.16500000000E+002,  0.00000000000E+000,  0.10000000000E+001
  0.77110000000E+004,  0.62834059040E+006,  0.16500000000E+002,  0.00000000000E+000,  0.10000000000E+001
  0.77710000000E+004,  0.62836894778E+006,  0.16500000000E+002,  0.00000000000E+000,  0.10000000000E+001
  0.78310000000E+004,  0.62839704735E+006,  0.16500000000E+002,  0.00000000000E+000,  0.10000000000E+001
  0.78910000000E+004,  0.62842489344E+006,  0.16500000000E+002,  0.00000000000E+000,  0.10000000000E+001
  0.79510000000E+004,  0.62845249050E+006,  0.16500000000E+002,  0.00000000000E+000,  0.10000000000E+001
  0.80110000000E+004,  0.62847984298E+006,  0.16500000000E+002,  0.00000000000E+000,  0.10000000000E+001
  0.80710000000E+004,  0.62850695500E+006,  0.16500000000E+002,  0.00000000000E+000,  0.10000000000E+001
  0.81310000000E+004,  0.62853383096E+006,  0.16500000000E+002,  0.00000000000E+000,  0.10000000000E+001
  0.81910000000E+004,  0.62856047484E+006,  0.16500000000E+002,  0.00000000000E+000,  0.10000000000E+001
  0.82510000000E+004,  0.62858689054E+006,  0.16500000000E+002,  0.00000000000E+000,  0.10000000000E+001
  0.83110000000E+004,  0.62861308188E+006,  0.16500000000E+002,  0.00000000000E+000,  0.10000000000E+001
  0.83710000000E+004,  0.62863905242E+006,  0.16500000000E+002,  0.00000000000E+000,  0.10000000000E+001
  0.84310000000E+004,  0.62866480586E+006,  0.16500000000E+002,  0.00000000000E+000,  0.10000000000E+001
  0.84910000000E+004,  0.62869034591E+006,  0.16500000000E+002,  0.00000000000E+000,  0.10000000000E+001
  0.85510000000E+004,  0.62871567612E+006,  0.16500000000E+002,  0.00000000000E+000,  0.10000000000E+001
  0.86110000000E+004,  0.62874079975E+006,  0.16500000000E+002,  0.00000000000E+000,  0.10000000000E+001
  0.86710000000E+004,  0.62876572047E+006,  0.16500000000E+002,  0.00000000000E+000,  0.10000000000E+001
  0.87310000000E+004,  0.62879044117E+006,  0.16500000000E+002,  0.00000000000E+000,  0.10000000000E+001
  0.87910000000E+004,  0.62881496498E+006,  0.16500000000E+002,  0.00000000000E+000,  0.10000000000E+001
  0.88510000000E+004,  0.62883929499E+006,  0.16500000000E+002,  0.00000000000E+000,  0.10000000000E+001
  0.89110000000E+004,  0.62886343416E+006,  0.16500000000E+002,  0.00000000000E+000,  0.10000000000E+001
  0.89710000000E+004,  0.62888738546E+006,  0.16500000000E+002,  0.00000000000E+000,  0.10000000000E+001
  0.90310000000E+004,  0.62891115166E+006,  0.16500000000E+002,  0.00000000000E+000,  0.10000000000E+001
  0.90910000000E+004,  0.62893473545E+006,  0.16500000000E+002,  0.00000000000E+000,  0.10000000000E+001
  0.91510000000E+004,  0.62895813951E+006,  0.16500000000E+002,  0.00000000000E+000,  0.10000000000E+001
  0.92110000000E+004,  0.62898136648E+006,  0.16500000000E+002,  0.00000000000E+000,  0.10000000000E+001
  0.92710000000E+004,  0.62900441893E+006,  0.16500000000E+002,  0.00000000000E+000,  0.10000000000E+001
  0.93310000000E+004,  0.62902729942E+006,  0.16500000000E+002,  0.00000000000E+000,  0.10000000000E+001
  0.93910000000E+004,  0.62905001043E+006,  0.16500000000E+002,  0.00000000000E+000,  0.10000000000E+001
  0.94510000000E+004,  0.62907255438E+006,  0.16500000000E+002,  0.00000000000E+000,  0.10000000000E+001
  0.95110000000E+004,  0.62909493366E+006,  0.16500000000E+002,  0.00000000000E+000,  0.10000000000E+001
  0.95710000000E+004,  0.62911715058E+006,  0.16500000000E+002,  0.00000000000E+000,  0.10000000000E+001
  0.96310000000E+004,  0.62913920740E+006,  0.16500000000E+002,  0.00000000000E+000,  0.10000000000E+001
  0.96910000000E+004,  0.62916110635E+006,  0.16500000000E+002,  0.00000000000E+000,  0.10000000000E+001
  0.97510000000E+004,  0.62918284957E+006,  0.16500000000E+002,  0.00000000000E+000,  0.10000000000E+001
  0.98110000000E+004,  0.62920443917E+006,  0.16500000000E+002,  0.00000000000E+000,  0.10000000000E+001
  0.98710000000E+004,  0.62922587720E+006,  0.16500000000E+002,  0.00000000000E+000,  0.10000000000E+001
  0.99310000000E+004,  0.62924716565E+006,  0.16500000000E+002,  0.00000000000E+000,  0.10000000000E+001
  0.99910000000E+004,  0.62926830643E+006,  0.16500000000E+002,  0.00000000000E+000,  0.10000000000E+001
  0.10051000000E+005,  0.62928930143E+006,  0.16500000000E+002,  0.00000000000E+000,  0.10000000000E+001
  0.10111000000E+005,  0.62931015248E+006,  0.16500000000E+002,  0.00000000000E+000,  0.10000000000E+001
  0.10171000000E+005,  0.62933086150E+006,  0.16500000000E+002,  0.00000000000E+000,  0.10000000000E+001
  0.10231000000E+005,  0.62935143026E+006,  0.16500000000E+002,  0.00000000000E+000,  0.10000000000E+001
  0.10291000000E+005,  0.62937186055E+006,  0.16500000000E+002,  0.00000000000E+000,  0.10000000000E+001
  0.10351000000E+005,  0.62939215411E+006,  0.16500000000E+002,  0.00000000000E+000,  0.10000000000E+001
  0.10411000000E+005,  0.62941231256E+006,  0.16500000000E+002,  0.00000000000E+000,  0.10000000000E+001
  0.10471000000E+005,  0.62943233739E+006,  0.16500000000E+002,  0.00000000000E+000,  0.10000000000E+001
  0.10531000000E+005,  0.62945223046E+006,  0.16500000000E+002,  0.00000000000E+000,  0.10000000000E+001
  0.10591000000E+005,  0.62947199358E+006,  0.16500000000E+002,  0.00000000000E+000,  0.10000000000E+001
  0.10651000000E+005,  0.62949162866E+006,  0.16500000000E+002,  0.00000000000E+000,  0.10000000000E+001
  0.10711000000E+005,  0.62951113752E+006,  0.16500000000E+002,  0.00000000000E+000,  0.10000000000E+001
  0.10771000000E+005,  0.62953052188E+006,  0.16500000000E+002,  0.00000000000E+000,  0.10000000000E+001
  0.10831000000E+005,  0.62954978339E+006,  0.16500000000E+002,  0.00000000000E+000,  0.10000000000E+001
  0.10891000000E+005,  0.62956892359E+006,  0.16500000000E+002,  0.00000000000E+000,  0.10000000000E+001
  0.10951000000E+005,  0.62958794396E+006,  0.16500000000E+002,  0.00000000000E+000,  0.10000000000E+001
  0.11011000000E+005,  0.62960684592E+006,  0.16500000000E+002,  0.00000000000E+000,  0.10000000000E+001
  0.11071000000E+005,  0.62962563083E+006,  0.16500000000E+002,  0.00000000000E+000,  0.10000000000E+001
  0.11131000000E+005,  0.62964430008E+006,  0.16500000000E+002,  0.00000000000E+000,  0.10000000000E+001
  0.11191000000E+005,  0.62966285502E+006,  0.16500000000E+002,  0.00000000000E+000,  0.10000000000E+001
