"           TIME(S)","              PRES","              TEMP","             SAT_G","             SAT_L"
  0.10000000000E+001,  0.61511829300E+006,  0.16500000000E+002,  0.00000000000E+000,  0.10000000000E+001
  0.60000000000E+001,  0.73975129239E+006,  0.16500000000E+002,  0.00000000000E+000,  0.10000000000E+001
  0.31000000000E+002,  0.13146877337E+007,  0.16500000000E+002,  0.00000000000E+000,  0.10000000000E+001
  0.15600000000E+003,  0.35500546638E+007,  0.16500000000E+002,  0.00000000000E+000,  0.10000000000E+001
  0.45600000000E+003,  0.71865609554E+007,  0.16500000000E+002,  0.00000000000E+000,  0.10000000000E+001
  0.75600000000E+003,  0.98571588305E+007,  0.16500000000E+002,  0.00000000000E+000,  0.10000000000E+001
  0.10560000000E+004,  0.11939769376E+008,  0.16500000000E+002,  0.00000000000E+000,  0.10000000000E+001
  0.13560000000E+004,  0.13639017703E+008,  0.16500000000E+002,  0.00000000000E+000,  0.10000000000E+001
  0.16560000000E+004,  0.15074292803E+008,  0.16500000000E+002,  0.00000000000E+000,  0.10000000000E+001
  0.19560000000E+004,  0.16318985395E+008,  0.16500000000E+002,  0.00000000000E+000,  0.10000000000E+001
  0.22560000000E+004,  0.17420353369E+008,  0.16500000000E+002,  0.00000000000E+000,  0.10000000000E+001
  0.25560000000E+004,  0.18410178412E+008,  0.16500000000E+002,  0.00000000000E+000,  0.10000000000E+001
  0.28560000000E+004,  0.19310558555E+008,  0.16500000000E+002,  0.00000000000E+000,  0.10000000000E+001
  0.31560000000E+004,  0.20137398388E+008,  0.16500000000E+002,  0.00000000000E+000,  0.10000000000E+001
  0.34560000000E+004,  0.20902530967E+008,  0.16500000000E+002,  0.00000000000E+000,  0.10000000000E+001
  0.37560000000E+004,  0.21614991627E+008,  0.16500000000E+002,  0.00000000000E+000,  0.10000000000E+001
  0.40560000000E+004,  0.22281832306E+008,  0.16500000000E+002,  0.00000000000E+000,  0.10000000000E+001
  0.43560000000E+004,  0.22908677623E+008,  0.16500000000E+002,  0.00000000000E+000,  0.10000000000E+001
  0.46560000000E+004,  0.23499697994E+008,  0.16500000000E+002,  0.00000000000E+000,  0.10000000000E+001
  0.49560000000E+004,  0.24057845634E+008,  0.16500000000E+002,  0.00000000000E+000,  0.10000000000E+001
  0.52560000000E+004,  0.24587050953E+008,  0.16500000000E+002,  0.00000000000E+000,  0.10000000000E+001
  0.55560000000E+004,  0.25090412088E+008,  0.16500000000E+002,  0.00000000000E+000,  0.10000000000E+001
  0.58560000000E+004,  0.25570390315E+008,  0.16500000000E+002,  0.00000000000E+000,  0.10000000000E+001
  0.61560000000E+004,  0.26030129692E+008,  0.16500000000E+002,  0.00000000000E+000,  0.10000000000E+001
  0.64560000000E+004,  0.26470965111E+008,  0.16500000000E+002,  0.00000000000E+000,  0.10000000000E+001
  0.67560000000E+004,  0.26893249073E+008,  0.16500000000E+002,  0.00000000000E+000,  0.10000000000E+001
  0.70560000000E+004,  0.27298528335E+008,  0.16500000000E+002,  0.00000000000E+000,  0.10000000000E+001
  0.73560000000E+004,  0.27688099144E+008,  0.16500000000E+002,  0.00000000000E+000,  0.10000000000E+001
  0.76560000000E+004,  0.28063081530E+008,  0.16500000000E+002,  0.00000000000E+000,  0.10000000000E+001
  0.79560000000E+004,  0.28424461476E+008,  0.16500000000E+002,  0.00000000000E+000,  0.10000000000E+001
  0.82560000000E+004,  0.28773120153E+008,  0.16500000000E+002,  0.00000000000E+000,  0.10000000000E+001
  0.85560000000E+004,  0.29109849874E+008,  0.16500000000E+002,  0.00000000000E+000,  0.10000000000E+001
  0.88560000000E+004,  0.29435361291E+008,  0.16500000000E+002,  0.00000000000E+000,  0.10000000000E+001
  0.91560000000E+004,  0.29750302258E+008,  0.16500000000E+002,  0.00000000000E+000,  0.10000000000E+001
  0.94560000000E+004,  0.30055265491E+008,  0.16500000000E+002,  0.00000000000E+000,  0.10000000000E+001
  0.97560000000E+004,  0.30350793252E+008,  0.16500000000E+002,  0.00000000000E+000,  0.10000000000E+001
  0.10056000000E+005,  0.30637385746E+008,  0.16500000000E+002,  0.00000000000E+000,  0.10000000000E+001
  0.10356000000E+005,  0.30915499688E+008,  0.16500000000E+002,  0.00000000000E+000,  0.10000000000E+001
  0.10656000000E+005,  0.31185370811E+008,  0.16500000000E+002,  0.00000000000E+000,  0.10000000000E+001
  0.10956000000E+005,  0.31447397507E+008,  0.16500000000E+002,  0.00000000000E+000,  0.10000000000E+001
  0.11256000000E+005,  0.31702101023E+008,  0.16500000000E+002,  0.00000000000E+000,  0.10000000000E+001
  0.11556000000E+005,  0.31949884159E+008,  0.16500000000E+002,  0.00000000000E+000,  0.10000000000E+001
  0.11856000000E+005,  0.32191083910E+008,  0.16500000000E+002,  0.00000000000E+000,  0.10000000000E+001
  0.12156000000E+005,  0.32420969517E+008,  0.16500000000E+002,  0.00000000000E+000,  0.10000000000E+001
  0.12456000000E+005,  0.32641745889E+008,  0.16500000000E+002,  0.00000000000E+000,  0.10000000000E+001
  0.12756000000E+005,  0.32859072007E+008,  0.16500000000E+002,  0.00000000000E+000,  0.10000000000E+001
  0.13056000000E+005,  0.33072250860E+008,  0.16500000000E+002,  0.00000000000E+000,  0.10000000000E+001
  0.13356000000E+005,  0.33281021918E+008,  0.16500000000E+002,  0.00000000000E+000,  0.10000000000E+001
  0.13656000000E+005,  0.33485320409E+008,  0.16500000000E+002,  0.00000000000E+000,  0.10000000000E+001
  0.13956000000E+005,  0.33684892381E+008,  0.16500000000E+002,  0.00000000000E+000,  0.10000000000E+001
  0.13960687500E+005,  0.33688008207E+008,  0.16500000000E+002,  0.00000000000E+000,  0.10000000000E+001
  0.13962152344E+005,  0.33688981774E+008,  0.16500000000E+002,  0.00000000000E+000,  0.10000000000E+001
  0.13962610107E+005,  0.33689286005E+008,  0.16500000000E+002,  0.00000000000E+000,  0.10000000000E+001
  0.13963182312E+005,  0.33689666277E+008,  0.16500000000E+002,  0.00000000000E+000,  0.10000000000E+001
  0.13963193488E+005,  0.33689673704E+008,  0.16500000000E+002,  0.00000000000E+000,  0.10000000000E+001
  0.13963207458E+005,  0.33689682988E+008,  0.16500000000E+002,  0.00000000000E+000,  0.10000000000E+001
  0.13963211823E+005,  0.33689685889E+008,  0.16500000000E+002,  0.00000000000E+000,  0.10000000000E+001
  0.13963217280E+005,  0.33689689516E+008,  0.16500000000E+002,  0.00000000000E+000,  0.10000000000E+001
  0.13963218986E+005,  0.33689690649E+008,  0.16500000000E+002,  0.00000000000E+000,  0.10000000000E+001
  0.13963221117E+005,  0.33689692066E+008,  0.16500000000E+002,  0.00000000000E+000,  0.10000000000E+001
  0.13963221284E+005,  0.33689692066E+008,  0.16500000000E+002,  0.00000000000E+000,  0.10000000000E+001
  0.13963221336E+005,  0.33689692066E+008,  0.16500000000E+002,  0.00000000000E+000,  0.10000000000E+001
  0.13963221401E+005,  0.33689692066E+008,  0.16500000000E+002,  0.00000000000E+000,  0.10000000000E+001
