"           TIME(S)","              PRES","              TEMP","             SAT_G","             SAT_L"
  0.10000000000E+001,  0.92472566743E+005,  0.16500000000E+002,  0.00000000000E+000,  0.10000000000E+001
  0.60000000000E+001,  0.24213124798E+006,  0.16500000000E+002,  0.00000000000E+000,  0.10000000000E+001
  0.31000000000E+002,  0.45541293387E+006,  0.16500000000E+002,  0.00000000000E+000,  0.10000000000E+001
  0.91000000000E+002,  0.64815315935E+006,  0.16500000000E+002,  0.00000000000E+000,  0.10000000000E+001
  0.15100000000E+003,  0.75678524322E+006,  0.16500000000E+002,  0.00000000000E+000,  0.10000000000E+001
  0.21100000000E+003,  0.83040246617E+006,  0.16500000000E+002,  0.00000000000E+000,  0.10000000000E+001
  0.27100000000E+003,  0.88550576095E+006,  0.16500000000E+002,  0.00000000000E+000,  0.10000000000E+001
  0.33100000000E+003,  0.92929173321E+006,  0.16500000000E+002,  0.00000000000E+000,  0.10000000000E+001
  0.39100000000E+003,  0.96546992557E+006,  0.16500000000E+002,  0.00000000000E+000,  0.10000000000E+001
  0.45100000000E+003,  0.99618889326E+006,  0.16500000000E+002,  0.00000000000E+000,  0.10000000000E+001
  0.51100000000E+003,  0.10228029452E+007,  0.16500000000E+002,  0.00000000000E+000,  0.10000000000E+001
  0.57100000000E+003,  0.10462212520E+007,  0.16500000000E+002,  0.00000000000E+000,  0.10000000000E+001
  0.63100000000E+003,  0.10670841558E+007,  0.16500000000E+002,  0.00000000000E+000,  0.10000000000E+001
  0.69100000000E+003,  0.10858598420E+007,  0.16500000000E+002,  0.00000000000E+000,  0.10000000000E+001
  0.75100000000E+003,  0.11029009829E+007,  0.16500000000E+002,  0.00000000000E+000,  0.10000000000E+001
  0.81100000000E+003,  0.11184797687E+007,  0.16500000000E+002,  0.00000000000E+000,  0.10000000000E+001
  0.87100000000E+003,  0.11328105562E+007,  0.16500000000E+002,  0.00000000000E+000,  0.10000000000E+001
  0.93100000000E+003,  0.11460650613E+007,  0.16500000000E+002,  0.00000000000E+000,  0.10000000000E+001
  0.99100000000E+003,  0.11583828696E+007,  0.16500000000E+002,  0.00000000000E+000,  0.10000000000E+001
  0.10510000000E+004,  0.11698788997E+007,  0.16500000000E+002,  0.00000000000E+000,  0.10000000000E+001
  0.11110000000E+004,  0.11806488245E+007,  0.16500000000E+002,  0.00000000000E+000,  0.10000000000E+001
  0.11710000000E+004,  0.11907730849E+007,  0.16500000000E+002,  0.00000000000E+000,  0.10000000000E+001
  0.12310000000E+004,  0.12003199144E+007,  0.16500000000E+002,  0.00000000000E+000,  0.10000000000E+001
  0.12910000000E+004,  0.12093476542E+007,  0.16500000000E+002,  0.00000000000E+000,  0.10000000000E+001
  0.13510000000E+004,  0.12179065447E+007,  0.16500000000E+002,  0.00000000000E+000,  0.10000000000E+001
  0.14110000000E+004,  0.12260401326E+007,  0.16500000000E+002,  0.00000000000E+000,  0.10000000000E+001
  0.14710000000E+004,  0.12337863900E+007,  0.16500000000E+002,  0.00000000000E+000,  0.10000000000E+001
  0.15310000000E+004,  0.12411786061E+007,  0.16500000000E+002,  0.00000000000E+000,  0.10000000000E+001
  0.15910000000E+004,  0.12482461145E+007,  0.16500000000E+002,  0.00000000000E+000,  0.10000000000E+001
  0.16510000000E+004,  0.12550148814E+007,  0.16500000000E+002,  0.00000000000E+000,  0.10000000000E+001
  0.17110000000E+004,  0.12615079916E+007,  0.16500000000E+002,  0.00000000000E+000,  0.10000000000E+001
  0.17710000000E+004,  0.12677460511E+007,  0.16500000000E+002,  0.00000000000E+000,  0.10000000000E+001
  0.18310000000E+004,  0.12737475207E+007,  0.16500000000E+002,  0.00000000000E+000,  0.10000000000E+001
  0.18910000000E+004,  0.12795289979E+007,  0.16500000000E+002,  0.00000000000E+000,  0.10000000000E+001
  0.19510000000E+004,  0.12851054532E+007,  0.16500000000E+002,  0.00000000000E+000,  0.10000000000E+001
  0.20110000000E+004,  0.12904904310E+007,  0.16500000000E+002,  0.00000000000E+000,  0.10000000000E+001
  0.20710000000E+004,  0.12956962213E+007,  0.16500000000E+002,  0.00000000000E+000,  0.10000000000E+001
  0.21310000000E+004,  0.13007340058E+007,  0.16500000000E+002,  0.00000000000E+000,  0.10000000000E+001
  0.21910000000E+004,  0.13056139840E+007,  0.16500000000E+002,  0.00000000000E+000,  0.10000000000E+001
  0.22510000000E+004,  0.13103454825E+007,  0.16500000000E+002,  0.00000000000E+000,  0.10000000000E+001
  0.23110000000E+004,  0.13149370489E+007,  0.16500000000E+002,  0.00000000000E+000,  0.10000000000E+001
  0.23710000000E+004,  0.13193965343E+007,  0.16500000000E+002,  0.00000000000E+000,  0.10000000000E+001
  0.24310000000E+004,  0.13237311658E+007,  0.16500000000E+002,  0.00000000000E+000,  0.10000000000E+001
  0.24910000000E+004,  0.13279476080E+007,  0.16500000000E+002,  0.00000000000E+000,  0.10000000000E+001
  0.25510000000E+004,  0.13320520196E+007,  0.16500000000E+002,  0.00000000000E+000,  0.10000000000E+001
  0.26110000000E+004,  0.13360501014E+007,  0.16500000000E+002,  0.00000000000E+000,  0.10000000000E+001
  0.26710000000E+004,  0.13399471398E+007,  0.16500000000E+002,  0.00000000000E+000,  0.10000000000E+001
  0.27310000000E+004,  0.13437480453E+007,  0.16500000000E+002,  0.00000000000E+000,  0.10000000000E+001
  0.27910000000E+004,  0.13474573858E+007,  0.16500000000E+002,  0.00000000000E+000,  0.10000000000E+001
  0.28510000000E+004,  0.13510794177E+007,  0.16500000000E+002,  0.00000000000E+000,  0.10000000000E+001
  0.29110000000E+004,  0.13546181130E+007,  0.16500000000E+002,  0.00000000000E+000,  0.10000000000E+001
  0.29710000000E+004,  0.13580771826E+007,  0.16500000000E+002,  0.00000000000E+000,  0.10000000000E+001
  0.30310000000E+004,  0.13614600993E+007,  0.16500000000E+002,  0.00000000000E+000,  0.10000000000E+001
  0.30910000000E+004,  0.13647701162E+007,  0.16500000000E+002,  0.00000000000E+000,  0.10000000000E+001
  0.31510000000E+004,  0.13680102860E+007,  0.16500000000E+002,  0.00000000000E+000,  0.10000000000E+001
  0.32110000000E+004,  0.13711834748E+007,  0.16500000000E+002,  0.00000000000E+000,  0.10000000000E+001
  0.32710000000E+004,  0.13742923788E+007,  0.16500000000E+002,  0.00000000000E+000,  0.10000000000E+001
  0.33310000000E+004,  0.13773395354E+007,  0.16500000000E+002,  0.00000000000E+000,  0.10000000000E+001
  0.33910000000E+004,  0.13803273364E+007,  0.16500000000E+002,  0.00000000000E+000,  0.10000000000E+001
  0.34510000000E+004,  0.13832580378E+007,  0.16500000000E+002,  0.00000000000E+000,  0.10000000000E+001
  0.35110000000E+004,  0.13861337707E+007,  0.16500000000E+002,  0.00000000000E+000,  0.10000000000E+001
  0.35710000000E+004,  0.13889565492E+007,  0.16500000000E+002,  0.00000000000E+000,  0.10000000000E+001
  0.36310000000E+004,  0.13917282794E+007,  0.16500000000E+002,  0.00000000000E+000,  0.10000000000E+001
  0.36910000000E+004,  0.13944507665E+007,  0.16500000000E+002,  0.00000000000E+000,  0.10000000000E+001
  0.37510000000E+004,  0.13971257216E+007,  0.16500000000E+002,  0.00000000000E+000,  0.10000000000E+001
  0.38110000000E+004,  0.13997547683E+007,  0.16500000000E+002,  0.00000000000E+000,  0.10000000000E+001
  0.38710000000E+004,  0.14023394484E+007,  0.16500000000E+002,  0.00000000000E+000,  0.10000000000E+001
  0.39310000000E+004,  0.14048812270E+007,  0.16500000000E+002,  0.00000000000E+000,  0.10000000000E+001
  0.39910000000E+004,  0.14073814976E+007,  0.16500000000E+002,  0.00000000000E+000,  0.10000000000E+001
  0.40510000000E+004,  0.14098415867E+007,  0.16500000000E+002,  0.00000000000E+000,  0.10000000000E+001
  0.41110000000E+004,  0.14122627576E+007,  0.16500000000E+002,  0.00000000000E+000,  0.10000000000E+001
  0.41710000000E+004,  0.14146462148E+007,  0.16500000000E+002,  0.00000000000E+000,  0.10000000000E+001
  0.42310000000E+004,  0.14169931074E+007,  0.16500000000E+002,  0.00000000000E+000,  0.10000000000E+001
  0.42910000000E+004,  0.14193045318E+007,  0.16500000000E+002,  0.00000000000E+000,  0.10000000000E+001
  0.43510000000E+004,  0.14215815358E+007,  0.16500000000E+002,  0.00000000000E+000,  0.10000000000E+001
  0.44110000000E+004,  0.14238251207E+007,  0.16500000000E+002,  0.00000000000E+000,  0.10000000000E+001
  0.44710000000E+004,  0.14260362442E+007,  0.16500000000E+002,  0.00000000000E+000,  0.10000000000E+001
  0.45310000000E+004,  0.14282158229E+007,  0.16500000000E+002,  0.00000000000E+000,  0.10000000000E+001
  0.45910000000E+004,  0.14303647345E+007,  0.16500000000E+002,  0.00000000000E+000,  0.10000000000E+001
  0.46510000000E+004,  0.14324838199E+007,  0.16500000000E+002,  0.00000000000E+000,  0.10000000000E+001
  0.47110000000E+004,  0.14345738856E+007,  0.16500000000E+002,  0.00000000000E+000,  0.10000000000E+001
  0.47710000000E+004,  0.14366357048E+007,  0.16500000000E+002,  0.00000000000E+000,  0.10000000000E+001
  0.48310000000E+004,  0.14386700199E+007,  0.16500000000E+002,  0.00000000000E+000,  0.10000000000E+001
  0.48910000000E+004,  0.14406775441E+007,  0.16500000000E+002,  0.00000000000E+000,  0.10000000000E+001
  0.49510000000E+004,  0.14426589615E+007,  0.16500000000E+002,  0.00000000000E+000,  0.10000000000E+001
  0.50110000000E+004,  0.14446149310E+007,  0.16500000000E+002,  0.00000000000E+000,  0.10000000000E+001
  0.50710000000E+004,  0.14465460852E+007,  0.16500000000E+002,  0.00000000000E+000,  0.10000000000E+001
  0.51310000000E+004,  0.14484530337E+007,  0.16500000000E+002,  0.00000000000E+000,  0.10000000000E+001
  0.51910000000E+004,  0.14503363627E+007,  0.16500000000E+002,  0.00000000000E+000,  0.10000000000E+001
  0.52510000000E+004,  0.14521966372E+007,  0.16500000000E+002,  0.00000000000E+000,  0.10000000000E+001
  0.53110000000E+004,  0.14540344013E+007,  0.16500000000E+002,  0.00000000000E+000,  0.10000000000E+001
  0.53710000000E+004,  0.14558501795E+007,  0.16500000000E+002,  0.00000000000E+000,  0.10000000000E+001
  0.54310000000E+004,  0.14576444777E+007,  0.16500000000E+002,  0.00000000000E+000,  0.10000000000E+001
  0.54910000000E+004,  0.14594177840E+007,  0.16500000000E+002,  0.00000000000E+000,  0.10000000000E+001
  0.55510000000E+004,  0.14611705694E+007,  0.16500000000E+002,  0.00000000000E+000,  0.10000000000E+001
  0.56110000000E+004,  0.14629032888E+007,  0.16500000000E+002,  0.00000000000E+000,  0.10000000000E+001
  0.56710000000E+004,  0.14646163814E+007,  0.16500000000E+002,  0.00000000000E+000,  0.10000000000E+001
  0.57310000000E+004,  0.14663102719E+007,  0.16500000000E+002,  0.00000000000E+000,  0.10000000000E+001
  0.57910000000E+004,  0.14679853705E+007,  0.16500000000E+002,  0.00000000000E+000,  0.10000000000E+001
  0.58510000000E+004,  0.14696420742E+007,  0.16500000000E+002,  0.00000000000E+000,  0.10000000000E+001
  0.59110000000E+004,  0.14712807670E+007,  0.16500000000E+002,  0.00000000000E+000,  0.10000000000E+001
  0.59710000000E+004,  0.14729018203E+007,  0.16500000000E+002,  0.00000000000E+000,  0.10000000000E+001
  0.60310000000E+004,  0.14746121725E+007,  0.16500000000E+002,  0.00000000000E+000,  0.10000000000E+001
  0.60910000000E+004,  0.14763375677E+007,  0.16500000000E+002,  0.00000000000E+000,  0.10000000000E+001
  0.61510000000E+004,  0.14779669685E+007,  0.16500000000E+002,  0.00000000000E+000,  0.10000000000E+001
  0.62110000000E+004,  0.14795582642E+007,  0.16500000000E+002,  0.00000000000E+000,  0.10000000000E+001
  0.62710000000E+004,  0.14811234781E+007,  0.16500000000E+002,  0.00000000000E+000,  0.10000000000E+001
  0.63310000000E+004,  0.14826671937E+007,  0.16500000000E+002,  0.00000000000E+000,  0.10000000000E+001
  0.63910000000E+004,  0.14841917405E+007,  0.16500000000E+002,  0.00000000000E+000,  0.10000000000E+001
  0.64510000000E+004,  0.14856985325E+007,  0.16500000000E+002,  0.00000000000E+000,  0.10000000000E+001
  0.65110000000E+004,  0.14871885405E+007,  0.16500000000E+002,  0.00000000000E+000,  0.10000000000E+001
  0.65710000000E+004,  0.14886624923E+007,  0.16500000000E+002,  0.00000000000E+000,  0.10000000000E+001
  0.66310000000E+004,  0.14901209696E+007,  0.16500000000E+002,  0.00000000000E+000,  0.10000000000E+001
  0.66910000000E+004,  0.14915644595E+007,  0.16500000000E+002,  0.00000000000E+000,  0.10000000000E+001
  0.67510000000E+004,  0.14929933841E+007,  0.16500000000E+002,  0.00000000000E+000,  0.10000000000E+001
  0.68110000000E+004,  0.14944081189E+007,  0.16500000000E+002,  0.00000000000E+000,  0.10000000000E+001
  0.68710000000E+004,  0.14958090040E+007,  0.16500000000E+002,  0.00000000000E+000,  0.10000000000E+001
  0.69310000000E+004,  0.14971963523E+007,  0.16500000000E+002,  0.00000000000E+000,  0.10000000000E+001
  0.69910000000E+004,  0.14985704545E+007,  0.16500000000E+002,  0.00000000000E+000,  0.10000000000E+001
  0.70510000000E+004,  0.14999315838E+007,  0.16500000000E+002,  0.00000000000E+000,  0.10000000000E+001
  0.71110000000E+004,  0.15012799977E+007,  0.16500000000E+002,  0.00000000000E+000,  0.10000000000E+001
  0.71710000000E+004,  0.15026159413E+007,  0.16500000000E+002,  0.00000000000E+000,  0.10000000000E+001
  0.72310000000E+004,  0.15039396479E+007,  0.16500000000E+002,  0.00000000000E+000,  0.10000000000E+001
  0.72910000000E+004,  0.15052513412E+007,  0.16500000000E+002,  0.00000000000E+000,  0.10000000000E+001
  0.73510000000E+004,  0.15065512358E+007,  0.16500000000E+002,  0.00000000000E+000,  0.10000000000E+001
  0.74110000000E+004,  0.15078395383E+007,  0.16500000000E+002,  0.00000000000E+000,  0.10000000000E+001
  0.74710000000E+004,  0.15091164479E+007,  0.16500000000E+002,  0.00000000000E+000,  0.10000000000E+001
  0.75310000000E+004,  0.15103821570E+007,  0.16500000000E+002,  0.00000000000E+000,  0.10000000000E+001
  0.75910000000E+004,  0.15116368518E+007,  0.16500000000E+002,  0.00000000000E+000,  0.10000000000E+001
  0.76510000000E+004,  0.15128807126E+007,  0.16500000000E+002,  0.00000000000E+000,  0.10000000000E+001
  0.77110000000E+004,  0.15141139144E+007,  0.16500000000E+002,  0.00000000000E+000,  0.10000000000E+001
  0.77710000000E+004,  0.15153366267E+007,  0.16500000000E+002,  0.00000000000E+000,  0.10000000000E+001
  0.78310000000E+004,  0.15165490146E+007,  0.16500000000E+002,  0.00000000000E+000,  0.10000000000E+001
  0.78910000000E+004,  0.15177512383E+007,  0.16500000000E+002,  0.00000000000E+000,  0.10000000000E+001
  0.79510000000E+004,  0.15189434538E+007,  0.16500000000E+002,  0.00000000000E+000,  0.10000000000E+001
  0.80110000000E+004,  0.15201258128E+007,  0.16500000000E+002,  0.00000000000E+000,  0.10000000000E+001
  0.80710000000E+004,  0.15212984634E+007,  0.16500000000E+002,  0.00000000000E+000,  0.10000000000E+001
  0.81310000000E+004,  0.15224615494E+007,  0.16500000000E+002,  0.00000000000E+000,  0.10000000000E+001
  0.81910000000E+004,  0.15236152115E+007,  0.16500000000E+002,  0.00000000000E+000,  0.10000000000E+001
  0.82510000000E+004,  0.15247595866E+007,  0.16500000000E+002,  0.00000000000E+000,  0.10000000000E+001
  0.83110000000E+004,  0.15258948083E+007,  0.16500000000E+002,  0.00000000000E+000,  0.10000000000E+001
  0.83710000000E+004,  0.15270210074E+007,  0.16500000000E+002,  0.00000000000E+000,  0.10000000000E+001
  0.84310000000E+004,  0.15281383110E+007,  0.16500000000E+002,  0.00000000000E+000,  0.10000000000E+001
  0.84910000000E+004,  0.15292468437E+007,  0.16500000000E+002,  0.00000000000E+000,  0.10000000000E+001
  0.85510000000E+004,  0.15303467270E+007,  0.16500000000E+002,  0.00000000000E+000,  0.10000000000E+001
  0.86110000000E+004,  0.15314380800E+007,  0.16500000000E+002,  0.00000000000E+000,  0.10000000000E+001
  0.86710000000E+004,  0.15325210184E+007,  0.16500000000E+002,  0.00000000000E+000,  0.10000000000E+001
  0.87310000000E+004,  0.15335956565E+007,  0.16500000000E+002,  0.00000000000E+000,  0.10000000000E+001
  0.87910000000E+004,  0.15346621052E+007,  0.16500000000E+002,  0.00000000000E+000,  0.10000000000E+001
  0.88510000000E+004,  0.15357204729E+007,  0.16500000000E+002,  0.00000000000E+000,  0.10000000000E+001
  0.89110000000E+004,  0.15367708666E+007,  0.16500000000E+002,  0.00000000000E+000,  0.10000000000E+001
  0.89710000000E+004,  0.15378133901E+007,  0.16500000000E+002,  0.00000000000E+000,  0.10000000000E+001
  0.90310000000E+004,  0.15388481456E+007,  0.16500000000E+002,  0.00000000000E+000,  0.10000000000E+001
  0.90910000000E+004,  0.15398752327E+007,  0.16500000000E+002,  0.00000000000E+000,  0.10000000000E+001
  0.91510000000E+004,  0.15408947497E+007,  0.16500000000E+002,  0.00000000000E+000,  0.10000000000E+001
  0.92110000000E+004,  0.15419067920E+007,  0.16500000000E+002,  0.00000000000E+000,  0.10000000000E+001
  0.92710000000E+004,  0.15429114540E+007,  0.16500000000E+002,  0.00000000000E+000,  0.10000000000E+001
  0.93310000000E+004,  0.15439088275E+007,  0.16500000000E+002,  0.00000000000E+000,  0.10000000000E+001
  0.93910000000E+004,  0.15448990028E+007,  0.16500000000E+002,  0.00000000000E+000,  0.10000000000E+001
  0.94510000000E+004,  0.15458820684E+007,  0.16500000000E+002,  0.00000000000E+000,  0.10000000000E+001
  0.95110000000E+004,  0.15468581110E+007,  0.16500000000E+002,  0.00000000000E+000,  0.10000000000E+001
  0.95710000000E+004,  0.15478272158E+007,  0.16500000000E+002,  0.00000000000E+000,  0.10000000000E+001
  0.96310000000E+004,  0.15487894663E+007,  0.16500000000E+002,  0.00000000000E+000,  0.10000000000E+001
  0.96910000000E+004,  0.15497449443E+007,  0.16500000000E+002,  0.00000000000E+000,  0.10000000000E+001
  0.97510000000E+004,  0.15506937303E+007,  0.16500000000E+002,  0.00000000000E+000,  0.10000000000E+001
  0.98110000000E+004,  0.15516359031E+007,  0.16500000000E+002,  0.00000000000E+000,  0.10000000000E+001
  0.98710000000E+004,  0.15525715402E+007,  0.16500000000E+002,  0.00000000000E+000,  0.10000000000E+001
  0.99310000000E+004,  0.15535007176E+007,  0.16500000000E+002,  0.00000000000E+000,  0.10000000000E+001
  0.99910000000E+004,  0.15544235099E+007,  0.16500000000E+002,  0.00000000000E+000,  0.10000000000E+001
  0.10051000000E+005,  0.15553399905E+007,  0.16500000000E+002,  0.00000000000E+000,  0.10000000000E+001
  0.10111000000E+005,  0.15562502314E+007,  0.16500000000E+002,  0.00000000000E+000,  0.10000000000E+001
  0.10171000000E+005,  0.15571543033E+007,  0.16500000000E+002,  0.00000000000E+000,  0.10000000000E+001
  0.10231000000E+005,  0.15580522756E+007,  0.16500000000E+002,  0.00000000000E+000,  0.10000000000E+001
  0.10291000000E+005,  0.15589442167E+007,  0.16500000000E+002,  0.00000000000E+000,  0.10000000000E+001
  0.10351000000E+005,  0.15598301936E+007,  0.16500000000E+002,  0.00000000000E+000,  0.10000000000E+001
  0.10411000000E+005,  0.15607102724E+007,  0.16500000000E+002,  0.00000000000E+000,  0.10000000000E+001
  0.10471000000E+005,  0.15615845178E+007,  0.16500000000E+002,  0.00000000000E+000,  0.10000000000E+001
  0.10531000000E+005,  0.15624529935E+007,  0.16500000000E+002,  0.00000000000E+000,  0.10000000000E+001
  0.10591000000E+005,  0.15633157622E+007,  0.16500000000E+002,  0.00000000000E+000,  0.10000000000E+001
  0.10651000000E+005,  0.15641728856E+007,  0.16500000000E+002,  0.00000000000E+000,  0.10000000000E+001
  0.10711000000E+005,  0.15650244242E+007,  0.16500000000E+002,  0.00000000000E+000,  0.10000000000E+001
  0.10771000000E+005,  0.15658704377E+007,  0.16500000000E+002,  0.00000000000E+000,  0.10000000000E+001
  0.10831000000E+005,  0.15667109847E+007,  0.16500000000E+002,  0.00000000000E+000,  0.10000000000E+001
  0.10891000000E+005,  0.15675461228E+007,  0.16500000000E+002,  0.00000000000E+000,  0.10000000000E+001
  0.10951000000E+005,  0.15683759087E+007,  0.16500000000E+002,  0.00000000000E+000,  0.10000000000E+001
  0.11011000000E+005,  0.15692003986E+007,  0.16500000000E+002,  0.00000000000E+000,  0.10000000000E+001
  0.11071000000E+005,  0.15700196471E+007,  0.16500000000E+002,  0.00000000000E+000,  0.10000000000E+001
  0.11131000000E+005,  0.15708337085E+007,  0.16500000000E+002,  0.00000000000E+000,  0.10000000000E+001
  0.11191000000E+005,  0.15716426360E+007,  0.16500000000E+002,  0.00000000000E+000,  0.10000000000E+001
