"           TIME(S)","              PRES","              TEMP","             SAT_G","             SAT_L"
  0.10000000000E+001,  0.11856549950E+006,  0.16500000000E+002,  0.00000000000E+000,  0.10000000000E+001
  0.60000000000E+001,  0.14501333198E+006,  0.16500000000E+002,  0.00000000000E+000,  0.10000000000E+001
  0.31000000000E+002,  0.20321406087E+006,  0.16500000000E+002,  0.00000000000E+000,  0.10000000000E+001
  0.91000000000E+002,  0.26203342549E+006,  0.16500000000E+002,  0.00000000000E+000,  0.10000000000E+001
  0.15100000000E+003,  0.29591683882E+006,  0.16500000000E+002,  0.00000000000E+000,  0.10000000000E+001
  0.21100000000E+003,  0.31928290061E+006,  0.16500000000E+002,  0.00000000000E+000,  0.10000000000E+001
  0.27100000000E+003,  0.33711246925E+006,  0.16500000000E+002,  0.00000000000E+000,  0.10000000000E+001
  0.33100000000E+003,  0.35155181332E+006,  0.16500000000E+002,  0.00000000000E+000,  0.10000000000E+001
  0.39100000000E+003,  0.36369572579E+006,  0.16500000000E+002,  0.00000000000E+000,  0.10000000000E+001
  0.45100000000E+003,  0.37417684951E+006,  0.16500000000E+002,  0.00000000000E+000,  0.10000000000E+001
  0.51100000000E+003,  0.38339529787E+006,  0.16500000000E+002,  0.00000000000E+000,  0.10000000000E+001
  0.57100000000E+003,  0.39162124201E+006,  0.16500000000E+002,  0.00000000000E+000,  0.10000000000E+001
  0.63100000000E+003,  0.39904618325E+006,  0.16500000000E+002,  0.00000000000E+000,  0.10000000000E+001
  0.69100000000E+003,  0.40581099699E+006,  0.16500000000E+002,  0.00000000000E+000,  0.10000000000E+001
  0.75100000000E+003,  0.41202240553E+006,  0.16500000000E+002,  0.00000000000E+000,  0.10000000000E+001
  0.81100000000E+003,  0.41776321952E+006,  0.16500000000E+002,  0.00000000000E+000,  0.10000000000E+001
  0.87100000000E+003,  0.42309899345E+006,  0.16500000000E+002,  0.00000000000E+000,  0.10000000000E+001
  0.93100000000E+003,  0.42808251440E+006,  0.16500000000E+002,  0.00000000000E+000,  0.10000000000E+001
  0.99100000000E+003,  0.43275691870E+006,  0.16500000000E+002,  0.00000000000E+000,  0.10000000000E+001
  0.10510000000E+004,  0.43715791351E+006,  0.16500000000E+002,  0.00000000000E+000,  0.10000000000E+001
  0.11110000000E+004,  0.44131539235E+006,  0.16500000000E+002,  0.00000000000E+000,  0.10000000000E+001
  0.11710000000E+004,  0.44525463544E+006,  0.16500000000E+002,  0.00000000000E+000,  0.10000000000E+001
  0.12310000000E+004,  0.44899721330E+006,  0.16500000000E+002,  0.00000000000E+000,  0.10000000000E+001
  0.12910000000E+004,  0.45256167986E+006,  0.16500000000E+002,  0.00000000000E+000,  0.10000000000E+001
  0.13510000000E+004,  0.45596411055E+006,  0.16500000000E+002,  0.00000000000E+000,  0.10000000000E+001
  0.14110000000E+004,  0.45921852393E+006,  0.16500000000E+002,  0.00000000000E+000,  0.10000000000E+001
  0.14710000000E+004,  0.46233721829E+006,  0.16500000000E+002,  0.00000000000E+000,  0.10000000000E+001
  0.15310000000E+004,  0.46533104082E+006,  0.16500000000E+002,  0.00000000000E+000,  0.10000000000E+001
  0.15910000000E+004,  0.46820960641E+006,  0.16500000000E+002,  0.00000000000E+000,  0.10000000000E+001
  0.16510000000E+004,  0.47098147612E+006,  0.16500000000E+002,  0.00000000000E+000,  0.10000000000E+001
  0.17110000000E+004,  0.47365430506E+006,  0.16500000000E+002,  0.00000000000E+000,  0.10000000000E+001
  0.17710000000E+004,  0.47623496428E+006,  0.16500000000E+002,  0.00000000000E+000,  0.10000000000E+001
  0.18310000000E+004,  0.47872964354E+006,  0.16500000000E+002,  0.00000000000E+000,  0.10000000000E+001
  0.18910000000E+004,  0.48114393727E+006,  0.16500000000E+002,  0.00000000000E+000,  0.10000000000E+001
  0.19510000000E+004,  0.48348291783E+006,  0.16500000000E+002,  0.00000000000E+000,  0.10000000000E+001
  0.20110000000E+004,  0.48575119760E+006,  0.16500000000E+002,  0.00000000000E+000,  0.10000000000E+001
  0.20710000000E+004,  0.48795298207E+006,  0.16500000000E+002,  0.00000000000E+000,  0.10000000000E+001
  0.21310000000E+004,  0.49009211579E+006,  0.16500000000E+002,  0.00000000000E+000,  0.10000000000E+001
  0.21910000000E+004,  0.49217212204E+006,  0.16500000000E+002,  0.00000000000E+000,  0.10000000000E+001
  0.22510000000E+004,  0.49419623702E+006,  0.16500000000E+002,  0.00000000000E+000,  0.10000000000E+001
  0.23110000000E+004,  0.49616743972E+006,  0.16500000000E+002,  0.00000000000E+000,  0.10000000000E+001
  0.23710000000E+004,  0.49808847822E+006,  0.16500000000E+002,  0.00000000000E+000,  0.10000000000E+001
  0.24310000000E+004,  0.49996189258E+006,  0.16500000000E+002,  0.00000000000E+000,  0.10000000000E+001
  0.24910000000E+004,  0.50179003497E+006,  0.16500000000E+002,  0.00000000000E+000,  0.10000000000E+001
  0.25510000000E+004,  0.50357508762E+006,  0.16500000000E+002,  0.00000000000E+000,  0.10000000000E+001
  0.26110000000E+004,  0.50531907862E+006,  0.16500000000E+002,  0.00000000000E+000,  0.10000000000E+001
  0.26710000000E+004,  0.50702389582E+006,  0.16500000000E+002,  0.00000000000E+000,  0.10000000000E+001
  0.27310000000E+004,  0.50869129953E+006,  0.16500000000E+002,  0.00000000000E+000,  0.10000000000E+001
  0.27910000000E+004,  0.51032293339E+006,  0.16500000000E+002,  0.00000000000E+000,  0.10000000000E+001
  0.28510000000E+004,  0.51192033461E+006,  0.16500000000E+002,  0.00000000000E+000,  0.10000000000E+001
  0.29110000000E+004,  0.51348494281E+006,  0.16500000000E+002,  0.00000000000E+000,  0.10000000000E+001
  0.29710000000E+004,  0.51501810796E+006,  0.16500000000E+002,  0.00000000000E+000,  0.10000000000E+001
  0.30310000000E+004,  0.51652109775E+006,  0.16500000000E+002,  0.00000000000E+000,  0.10000000000E+001
  0.30910000000E+004,  0.51799510411E+006,  0.16500000000E+002,  0.00000000000E+000,  0.10000000000E+001
  0.31510000000E+004,  0.51944124907E+006,  0.16500000000E+002,  0.00000000000E+000,  0.10000000000E+001
  0.32110000000E+004,  0.52086059007E+006,  0.16500000000E+002,  0.00000000000E+000,  0.10000000000E+001
  0.32710000000E+004,  0.52225412490E+006,  0.16500000000E+002,  0.00000000000E+000,  0.10000000000E+001
  0.33310000000E+004,  0.52362279503E+006,  0.16500000000E+002,  0.00000000000E+000,  0.10000000000E+001
  0.33910000000E+004,  0.52496749202E+006,  0.16500000000E+002,  0.00000000000E+000,  0.10000000000E+001
  0.34510000000E+004,  0.52628906303E+006,  0.16500000000E+002,  0.00000000000E+000,  0.10000000000E+001
  0.35110000000E+004,  0.52758830342E+006,  0.16500000000E+002,  0.00000000000E+000,  0.10000000000E+001
  0.35710000000E+004,  0.52886597200E+006,  0.16500000000E+002,  0.00000000000E+000,  0.10000000000E+001
  0.36310000000E+004,  0.53012278811E+006,  0.16500000000E+002,  0.00000000000E+000,  0.10000000000E+001
  0.36910000000E+004,  0.53135943531E+006,  0.16500000000E+002,  0.00000000000E+000,  0.10000000000E+001
  0.37510000000E+004,  0.53257656611E+006,  0.16500000000E+002,  0.00000000000E+000,  0.10000000000E+001
  0.38110000000E+004,  0.53377479786E+006,  0.16500000000E+002,  0.00000000000E+000,  0.10000000000E+001
  0.38710000000E+004,  0.53495471806E+006,  0.16500000000E+002,  0.00000000000E+000,  0.10000000000E+001
  0.39310000000E+004,  0.53611689355E+006,  0.16500000000E+002,  0.00000000000E+000,  0.10000000000E+001
  0.39910000000E+004,  0.53726185705E+006,  0.16500000000E+002,  0.00000000000E+000,  0.10000000000E+001
  0.40510000000E+004,  0.53839012120E+006,  0.16500000000E+002,  0.00000000000E+000,  0.10000000000E+001
  0.41110000000E+004,  0.53950217395E+006,  0.16500000000E+002,  0.00000000000E+000,  0.10000000000E+001
  0.41710000000E+004,  0.54059848474E+006,  0.16500000000E+002,  0.00000000000E+000,  0.10000000000E+001
  0.42310000000E+004,  0.54167950297E+006,  0.16500000000E+002,  0.00000000000E+000,  0.10000000000E+001
  0.42910000000E+004,  0.54274565384E+006,  0.16500000000E+002,  0.00000000000E+000,  0.10000000000E+001
  0.43510000000E+004,  0.54379734921E+006,  0.16500000000E+002,  0.00000000000E+000,  0.10000000000E+001
  0.44110000000E+004,  0.54483498096E+006,  0.16500000000E+002,  0.00000000000E+000,  0.10000000000E+001
  0.44710000000E+004,  0.54585892997E+006,  0.16500000000E+002,  0.00000000000E+000,  0.10000000000E+001
  0.45310000000E+004,  0.54686955610E+006,  0.16500000000E+002,  0.00000000000E+000,  0.10000000000E+001
  0.45910000000E+004,  0.54786720777E+006,  0.16500000000E+002,  0.00000000000E+000,  0.10000000000E+001
  0.46510000000E+004,  0.54885221719E+006,  0.16500000000E+002,  0.00000000000E+000,  0.10000000000E+001
  0.47110000000E+004,  0.54982490815E+006,  0.16500000000E+002,  0.00000000000E+000,  0.10000000000E+001
  0.47710000000E+004,  0.55078559429E+006,  0.16500000000E+002,  0.00000000000E+000,  0.10000000000E+001
  0.48310000000E+004,  0.55173456713E+006,  0.16500000000E+002,  0.00000000000E+000,  0.10000000000E+001
  0.48910000000E+004,  0.55267211446E+006,  0.16500000000E+002,  0.00000000000E+000,  0.10000000000E+001
  0.49510000000E+004,  0.55359851182E+006,  0.16500000000E+002,  0.00000000000E+000,  0.10000000000E+001
  0.50110000000E+004,  0.55451402749E+006,  0.16500000000E+002,  0.00000000000E+000,  0.10000000000E+001
  0.50710000000E+004,  0.55541891645E+006,  0.16500000000E+002,  0.00000000000E+000,  0.10000000000E+001
  0.51310000000E+004,  0.55631342650E+006,  0.16500000000E+002,  0.00000000000E+000,  0.10000000000E+001
  0.51910000000E+004,  0.55719779449E+006,  0.16500000000E+002,  0.00000000000E+000,  0.10000000000E+001
  0.52510000000E+004,  0.55807225671E+006,  0.16500000000E+002,  0.00000000000E+000,  0.10000000000E+001
  0.53110000000E+004,  0.55893703167E+006,  0.16500000000E+002,  0.00000000000E+000,  0.10000000000E+001
  0.53710000000E+004,  0.55979233539E+006,  0.16500000000E+002,  0.00000000000E+000,  0.10000000000E+001
  0.54310000000E+004,  0.56063837620E+006,  0.16500000000E+002,  0.00000000000E+000,  0.10000000000E+001
  0.54910000000E+004,  0.56147535548E+006,  0.16500000000E+002,  0.00000000000E+000,  0.10000000000E+001
  0.55510000000E+004,  0.56230346801E+006,  0.16500000000E+002,  0.00000000000E+000,  0.10000000000E+001
  0.56110000000E+004,  0.56312290037E+006,  0.16500000000E+002,  0.00000000000E+000,  0.10000000000E+001
  0.56710000000E+004,  0.56393384019E+006,  0.16500000000E+002,  0.00000000000E+000,  0.10000000000E+001
  0.57310000000E+004,  0.56473646033E+006,  0.16500000000E+002,  0.00000000000E+000,  0.10000000000E+001
  0.57910000000E+004,  0.56553093267E+006,  0.16500000000E+002,  0.00000000000E+000,  0.10000000000E+001
  0.58510000000E+004,  0.56631742338E+006,  0.16500000000E+002,  0.00000000000E+000,  0.10000000000E+001
  0.59110000000E+004,  0.56709609290E+006,  0.16500000000E+002,  0.00000000000E+000,  0.10000000000E+001
  0.59710000000E+004,  0.56786709875E+006,  0.16500000000E+002,  0.00000000000E+000,  0.10000000000E+001
  0.60310000000E+004,  0.56865989701E+006,  0.16500000000E+002,  0.00000000000E+000,  0.10000000000E+001
  0.60910000000E+004,  0.56945560562E+006,  0.16500000000E+002,  0.00000000000E+000,  0.10000000000E+001
  0.61510000000E+004,  0.57022315206E+006,  0.16500000000E+002,  0.00000000000E+000,  0.10000000000E+001
  0.62110000000E+004,  0.57097691887E+006,  0.16500000000E+002,  0.00000000000E+000,  0.10000000000E+001
  0.62710000000E+004,  0.57172062746E+006,  0.16500000000E+002,  0.00000000000E+000,  0.10000000000E+001
  0.63310000000E+004,  0.57245572817E+006,  0.16500000000E+002,  0.00000000000E+000,  0.10000000000E+001
  0.63910000000E+004,  0.57318297520E+006,  0.16500000000E+002,  0.00000000000E+000,  0.10000000000E+001
  0.64510000000E+004,  0.57390282408E+006,  0.16500000000E+002,  0.00000000000E+000,  0.10000000000E+001
  0.65110000000E+004,  0.57461560219E+006,  0.16500000000E+002,  0.00000000000E+000,  0.10000000000E+001
  0.65710000000E+004,  0.57532155853E+006,  0.16500000000E+002,  0.00000000000E+000,  0.10000000000E+001
  0.66310000000E+004,  0.57602091269E+006,  0.16500000000E+002,  0.00000000000E+000,  0.10000000000E+001
  0.66910000000E+004,  0.57671383416E+006,  0.16500000000E+002,  0.00000000000E+000,  0.10000000000E+001
  0.67510000000E+004,  0.57740049235E+006,  0.16500000000E+002,  0.00000000000E+000,  0.10000000000E+001
  0.68110000000E+004,  0.57808102511E+006,  0.16500000000E+002,  0.00000000000E+000,  0.10000000000E+001
  0.68710000000E+004,  0.57875556824E+006,  0.16500000000E+002,  0.00000000000E+000,  0.10000000000E+001
  0.69310000000E+004,  0.57942425224E+006,  0.16500000000E+002,  0.00000000000E+000,  0.10000000000E+001
  0.69910000000E+004,  0.58008718389E+006,  0.16500000000E+002,  0.00000000000E+000,  0.10000000000E+001
  0.70510000000E+004,  0.58074448278E+006,  0.16500000000E+002,  0.00000000000E+000,  0.10000000000E+001
  0.71110000000E+004,  0.58139626246E+006,  0.16500000000E+002,  0.00000000000E+000,  0.10000000000E+001
  0.71710000000E+004,  0.58204261326E+006,  0.16500000000E+002,  0.00000000000E+000,  0.10000000000E+001
  0.72310000000E+004,  0.58268363084E+006,  0.16500000000E+002,  0.00000000000E+000,  0.10000000000E+001
  0.72910000000E+004,  0.58331941495E+006,  0.16500000000E+002,  0.00000000000E+000,  0.10000000000E+001
  0.73510000000E+004,  0.58395006574E+006,  0.16500000000E+002,  0.00000000000E+000,  0.10000000000E+001
  0.74110000000E+004,  0.58457565912E+006,  0.16500000000E+002,  0.00000000000E+000,  0.10000000000E+001
  0.74710000000E+004,  0.58519628141E+006,  0.16500000000E+002,  0.00000000000E+000,  0.10000000000E+001
  0.75310000000E+004,  0.58581201794E+006,  0.16500000000E+002,  0.00000000000E+000,  0.10000000000E+001
  0.75910000000E+004,  0.58642294412E+006,  0.16500000000E+002,  0.00000000000E+000,  0.10000000000E+001
  0.76510000000E+004,  0.58702914682E+006,  0.16500000000E+002,  0.00000000000E+000,  0.10000000000E+001
  0.77110000000E+004,  0.58763069521E+006,  0.16500000000E+002,  0.00000000000E+000,  0.10000000000E+001
  0.77710000000E+004,  0.58822766405E+006,  0.16500000000E+002,  0.00000000000E+000,  0.10000000000E+001
  0.78310000000E+004,  0.58882012447E+006,  0.16500000000E+002,  0.00000000000E+000,  0.10000000000E+001
  0.78910000000E+004,  0.58940814333E+006,  0.16500000000E+002,  0.00000000000E+000,  0.10000000000E+001
  0.79510000000E+004,  0.58999179896E+006,  0.16500000000E+002,  0.00000000000E+000,  0.10000000000E+001
  0.80110000000E+004,  0.59057115032E+006,  0.16500000000E+002,  0.00000000000E+000,  0.10000000000E+001
  0.80710000000E+004,  0.59114626439E+006,  0.16500000000E+002,  0.00000000000E+000,  0.10000000000E+001
  0.81310000000E+004,  0.59171720267E+006,  0.16500000000E+002,  0.00000000000E+000,  0.10000000000E+001
  0.81910000000E+004,  0.59228402721E+006,  0.16500000000E+002,  0.00000000000E+000,  0.10000000000E+001
  0.82510000000E+004,  0.59284679515E+006,  0.16500000000E+002,  0.00000000000E+000,  0.10000000000E+001
  0.83110000000E+004,  0.59340557405E+006,  0.16500000000E+002,  0.00000000000E+000,  0.10000000000E+001
  0.83710000000E+004,  0.59396041388E+006,  0.16500000000E+002,  0.00000000000E+000,  0.10000000000E+001
  0.84310000000E+004,  0.59451137156E+006,  0.16500000000E+002,  0.00000000000E+000,  0.10000000000E+001
  0.84910000000E+004,  0.59505850720E+006,  0.16500000000E+002,  0.00000000000E+000,  0.10000000000E+001
  0.85510000000E+004,  0.59560186898E+006,  0.16500000000E+002,  0.00000000000E+000,  0.10000000000E+001
  0.86110000000E+004,  0.59614151211E+006,  0.16500000000E+002,  0.00000000000E+000,  0.10000000000E+001
  0.86710000000E+004,  0.59667748678E+006,  0.16500000000E+002,  0.00000000000E+000,  0.10000000000E+001
  0.87310000000E+004,  0.59720984320E+006,  0.16500000000E+002,  0.00000000000E+000,  0.10000000000E+001
  0.87910000000E+004,  0.59773863150E+006,  0.16500000000E+002,  0.00000000000E+000,  0.10000000000E+001
  0.88510000000E+004,  0.59826389915E+006,  0.16500000000E+002,  0.00000000000E+000,  0.10000000000E+001
  0.89110000000E+004,  0.59878569340E+006,  0.16500000000E+002,  0.00000000000E+000,  0.10000000000E+001
  0.89710000000E+004,  0.59930405560E+006,  0.16500000000E+002,  0.00000000000E+000,  0.10000000000E+001
  0.90310000000E+004,  0.59981904332E+006,  0.16500000000E+002,  0.00000000000E+000,  0.10000000000E+001
  0.90910000000E+004,  0.60033069128E+006,  0.16500000000E+002,  0.00000000000E+000,  0.10000000000E+001
  0.91510000000E+004,  0.60083904082E+006,  0.16500000000E+002,  0.00000000000E+000,  0.10000000000E+001
  0.92110000000E+004,  0.60134414078E+006,  0.16500000000E+002,  0.00000000000E+000,  0.10000000000E+001
  0.92710000000E+004,  0.60184603174E+006,  0.16500000000E+002,  0.00000000000E+000,  0.10000000000E+001
  0.93310000000E+004,  0.60234475421E+006,  0.16500000000E+002,  0.00000000000E+000,  0.10000000000E+001
  0.93910000000E+004,  0.60284034545E+006,  0.16500000000E+002,  0.00000000000E+000,  0.10000000000E+001
  0.94510000000E+004,  0.60333284651E+006,  0.16500000000E+002,  0.00000000000E+000,  0.10000000000E+001
  0.95110000000E+004,  0.60382229513E+006,  0.16500000000E+002,  0.00000000000E+000,  0.10000000000E+001
  0.95710000000E+004,  0.60430872919E+006,  0.16500000000E+002,  0.00000000000E+000,  0.10000000000E+001
  0.96310000000E+004,  0.60479218458E+006,  0.16500000000E+002,  0.00000000000E+000,  0.10000000000E+001
  0.96910000000E+004,  0.60527270023E+006,  0.16500000000E+002,  0.00000000000E+000,  0.10000000000E+001
  0.97510000000E+004,  0.60575030956E+006,  0.16500000000E+002,  0.00000000000E+000,  0.10000000000E+001
  0.98110000000E+004,  0.60622504678E+006,  0.16500000000E+002,  0.00000000000E+000,  0.10000000000E+001
  0.98710000000E+004,  0.60669694872E+006,  0.16500000000E+002,  0.00000000000E+000,  0.10000000000E+001
  0.99310000000E+004,  0.60716604691E+006,  0.16500000000E+002,  0.00000000000E+000,  0.10000000000E+001
  0.99910000000E+004,  0.60763237371E+006,  0.16500000000E+002,  0.00000000000E+000,  0.10000000000E+001
  0.10051000000E+005,  0.60809596169E+006,  0.16500000000E+002,  0.00000000000E+000,  0.10000000000E+001
  0.10111000000E+005,  0.60855684502E+006,  0.16500000000E+002,  0.00000000000E+000,  0.10000000000E+001
  0.10171000000E+005,  0.60901505379E+006,  0.16500000000E+002,  0.00000000000E+000,  0.10000000000E+001
  0.10231000000E+005,  0.60947061737E+006,  0.16500000000E+002,  0.00000000000E+000,  0.10000000000E+001
  0.10291000000E+005,  0.60992356597E+006,  0.16500000000E+002,  0.00000000000E+000,  0.10000000000E+001
  0.10351000000E+005,  0.61037392652E+006,  0.16500000000E+002,  0.00000000000E+000,  0.10000000000E+001
  0.10411000000E+005,  0.61082173483E+006,  0.16500000000E+002,  0.00000000000E+000,  0.10000000000E+001
  0.10471000000E+005,  0.61126701412E+006,  0.16500000000E+002,  0.00000000000E+000,  0.10000000000E+001
  0.10531000000E+005,  0.61170979273E+006,  0.16500000000E+002,  0.00000000000E+000,  0.10000000000E+001
  0.10591000000E+005,  0.61215009917E+006,  0.16500000000E+002,  0.00000000000E+000,  0.10000000000E+001
  0.10651000000E+005,  0.61258795978E+006,  0.16500000000E+002,  0.00000000000E+000,  0.10000000000E+001
  0.10711000000E+005,  0.61302340108E+006,  0.16500000000E+002,  0.00000000000E+000,  0.10000000000E+001
  0.10771000000E+005,  0.61345644684E+006,  0.16500000000E+002,  0.00000000000E+000,  0.10000000000E+001
  0.10831000000E+005,  0.61388712619E+006,  0.16500000000E+002,  0.00000000000E+000,  0.10000000000E+001
  0.10891000000E+005,  0.61431546575E+006,  0.16500000000E+002,  0.00000000000E+000,  0.10000000000E+001
  0.10951000000E+005,  0.61474148629E+006,  0.16500000000E+002,  0.00000000000E+000,  0.10000000000E+001
  0.11011000000E+005,  0.61516521063E+006,  0.16500000000E+002,  0.00000000000E+000,  0.10000000000E+001
  0.11071000000E+005,  0.61558666715E+006,  0.16500000000E+002,  0.00000000000E+000,  0.10000000000E+001
  0.11131000000E+005,  0.61600587897E+006,  0.16500000000E+002,  0.00000000000E+000,  0.10000000000E+001
  0.11191000000E+005,  0.61642286603E+006,  0.16500000000E+002,  0.00000000000E+000,  0.10000000000E+001
